No,date,Label,baseline_HBO,baseline_HHB,baseline_TSI,Stage1_HBO,Stage1_HHB,Stage1_TSI,Stage2_HBO,Stage2_HHB,Stage2_TSI,Stage3_HBO,Stage3_HHB,Stage3_TSI,Stage4_HBO,Stage4_HHB,Stage4_TSI,Stage5_HBO,Stage5_HHB,Stage5_TSI,Stage1_activation_HBO,Stage1_activation_HHB,Stage2_activation_HBO,Stage2_activation_HHB,Stage3_activation_HBO,Stage3_activation_HHB,Stage4_activation_HBO,Stage4_activation_HHB,Stage5_activation_HBO,Stage5_activation_HHB,Stage1_different_HBO,Stage1_different_HHB,Stage2_different_HBO,Stage2_different_HHB,Stage3_different_HBO,Stage3_different_HHB,Stage4_different_HBO,Stage4_different_HHB,Stage5_different_HBO,Stage5_different_HHB,baseline_s_HBO,Stage1_s_HBO,Stage2_s_HBO,Stage3_s_HBO,Stage4_s_HBO,Stage5_s_HBO,baseline_s_HHB,Stage1_s_HHB,Stage2_s_HHB,Stage3_s_HHB,Stage4_s_HHB,Stage5_s_HHB,baseline_HBT,Stage1_HBT,Stage2_HBT,Stage3_HBT,Stage4_HBT,Stage5_HBT,baseline_s_HBT,Stage1_s_HBT,Stage2_s_HBT,Stage3_s_HBT,Stage4_s_HBT,Stage5_s_HBT
5,20181227,1,0.324414197,0.18607206,0.329751687,0.691506075,0.474175483,0.531927545,0.73334882,0.584001192,0.62676171,0.774172709,0.478260568,0.640168774,0.872895592,0.360203718,0.822310141,0.867798244,0.467848163,0.793778648,0.80251026,0.69539876,0.822065324,0.751507501,0.812014013,0.70797039,0.807586089,0.522376247,0.843035659,0.656782238,0.80251026,0.69539876,0.65031517,0.756351959,0.296769392,0.452555619,0.757207683,0.226192296,0.572684684,0.559314987,0.844285237,0.741002536,0.39476184,0.552864643,0.718525066,0.356430612,0.580151089,0.524105546,0.611212589,0.312263409,0.580399812,0.75583873,0.294882075,0.584854696,0.699621486,0.701712868,0.754599678,0.789607865,0.778288225,0.671969992,0.548388304,0.447221104,0.733376081,0.411648704
7,20181228,1,0.374742306,0.429573046,0,0.186521102,0.042779983,0.66741775,0.331021315,0.108104552,0.77486033,0.440642667,0,0.808090468,0.880729466,0.045572647,0.954281668,0.81577072,0.067836564,0.952297689,0.448057187,0.003491363,0.535795779,0.108994884,0.581306316,0.193273994,0.780676666,0.174953559,0.782545125,0.273690683,0.448057187,0.003491363,0.662729134,0.651712238,0.444054354,0.47459049,1,0.350082682,0.514911612,0.4596477,0,0.911330573,0.231024093,1,0.911685561,0.303980639,0,0.513211219,0.209575507,0.501104699,0.631028899,0.584696423,0.460935589,0.091471558,0.252800214,0.248311133,0.597276882,0.593256192,0,0.841955452,0.163545825,0.942547143,0.850179815,0.314024806
10,20190215,1,0.326662532,0.483171139,0.845076168,0.605870066,0.541260621,1,0.738157995,0.640694558,0.971290345,1,0.991621005,0.652285941,0.788046646,0.904579452,0.591571017,0.474014197,0.648255179,0.620943742,0.747364339,0.475782883,0.823635626,0.567823864,0.945242081,0.89403676,0.753671951,0.714369748,0.596153005,0.618825343,0.747364339,0.475782883,0.757442681,0.750554335,0.700528557,1,0.534013812,0.264217141,0.259251228,0.243848468,0.684611436,0.708112281,0.868842608,0.307301513,0.450978311,0.190067378,0.577109997,0.315813138,0.880165767,0.421379842,0.566225977,0.336253737,0.101930055,0.229137721,0.347721549,0.436323643,0.676712749,0.845760508,0.668510112,0.455544562,0.543082406,0.642717706,0.807818682,0.581409676
11,20190315,1,0.274441769,0.027475786,0.299549625,0.758321478,0.348371661,0.713404648,0.836538598,0.557769569,0.882489568,0.893335465,0.731549076,0.829878284,0.918531697,0.709443341,0.926059907,0.949450449,0.829925488,0.977978287,0.883601749,0.717916263,0.919568803,0.853358362,0.914679336,1,0.867352605,0.844409588,0.921806991,0.971532845,0.883601749,0.717916263,0.72050831,0.869318366,0.32044697,0.790825499,0.706269033,0.311690697,0.613583706,0.59181921,0.839121359,0.828860825,0.458699454,0.543829045,0.630818346,0.498386196,0.697675316,0.438228892,0.729458063,0.547723331,0.514061571,0.939957509,0.015158188,0.264232485,0.703590735,0.900297677,0.795519064,0.741405736,0.743390125,0.69732764,0.922188516,0.305226368,0.60169287,0.677041384
14,20190313,1,0.486226854,0.899831425,0.139371383,0.229777852,0.705128591,0.195203683,0.04358948,0.403199325,0.307408661,0.103876961,0.167013032,0.564056068,0.470071104,0.240087589,0.814835278,0.724036762,0.389046381,0.869377511,0.387006138,0.241236619,0.28220739,0.011663217,0.309979952,0.008692884,0.456260199,0.036208211,0.663217187,0.236518253,0.387006138,0.241236619,0.198798397,0.257083328,0.369250774,0.304786795,0.935721041,0.37686167,0.777725362,0.591739823,0.526685055,0.290514913,0.392152279,0.752531935,1,0.655760703,0.344375359,0.180569128,0.322524969,0.455523302,0.722919876,0.954946531,0.327013041,0.948738146,0.958815223,0.92072327,0.971867052,1,1,0.703396528,0.516696162,0.409193337,0.875466761,0.387594882
17,20190416,1,0.105729462,0.764239192,0.306389833,0.393953615,0.830776602,0.625147479,0.536272975,0.519451883,0.839443146,0.686049895,0.035431349,1,0.871634583,0.397468973,0.979818152,0.916365388,0.687590185,0.913915599,0.789704136,0.505934662,0.839934833,0.22935053,0.897816925,0,0.944792299,0.217845856,0.995157884,0.498538355,0.789704136,0.505934662,0.715130005,0.259059509,0.506476857,0,0.818894147,0.612813106,0.621415892,0.735472526,0.648263373,0.757058803,0.588450762,0.543796841,0.757379853,0.505670812,0.566047098,0.168676678,0.013423166,0.678229812,0.786729203,0.912985231,0.756492527,0.554779269,0.218323015,0.12227844,0.273872652,0.367553375,0.562086377,0.008123462,0.281344622,0.315931062,0.713496214,0.359863681
19,20190418,1,0.146923981,0.518664315,0.165593777,0.312101306,0.575228347,0.578731073,0.427419717,0.538454684,0.702364328,0.519234146,0.542686566,0.645063227,0.73901586,0.441674664,0.807208464,0.921808264,0.181515638,0.973795793,0.706170787,0.476862105,0.744564864,0.443210533,0.77229148,0.53757531,0.836748931,0.387026033,0.975603833,0.300586088,0.706170787,0.476862105,0.654389443,0.580685263,0.406346329,0.58748416,0.839392332,0.241848222,0.740693235,0.213333787,0.631576065,0.713488033,0.567610768,0.49384676,0.885080173,0.391820202,0.585733697,0.243348014,0.561422857,0.505909315,0.458670838,0.349068967,0,0.231465794,0.392149319,0.495680116,0.785743756,0.887439367,0.660398059,0.606886853,0.644691823,0.639455659,0.819720567,0.592631824
21,20190510,1,1,0.686714178,0.491800182,0.516037334,0.900402641,0.049129424,0.170580026,0.513706208,0.184488624,0.331405815,0.393628467,0.526907629,0.514390355,0.155777852,0.944654041,0.155276645,0.466082914,0.465648616,0.159820514,0.654946524,0.028447757,0.285802325,0.12061671,0.316697536,0.159498016,0.10163614,0.02222346,0.396378528,0.159820514,0.654946524,0.046419911,0.170705778,0.546238648,0.438951108,0.806805687,0.125024398,0.181654884,0.740695101,0.540790317,0,0.2096456,0.69391653,0.809418211,0.226052806,0.570491883,0.259230541,0.217598562,0.337131594,0.531854918,0.75247431,0.255459682,0.627683005,0.591672573,0.538565059,0.685432,0.693237836,0.669197813,0.443771097,0.368408736,0.547649231,0.750094993,0.471696383
21,20190513,1,0.431901695,0.570581064,0.359110022,0.665908592,0.579077548,0.621086331,0.803468226,0.359534276,0.829620262,0.728457886,0.175642877,0.822760581,0.772333398,0.101773526,0.937592417,0.696554637,0.320465225,0.785286931,0.701702545,0.430198235,0.796424578,0.233273029,0.716756563,0.231113508,0.677546128,0.131940645,0.676338824,0.362968335,0.701702545,0.430198235,0.781097484,0.348112816,0.081275448,0.370099645,0.715351281,0.255472134,0.491079078,0.650206483,0.595477145,1,0.329636495,0.396647202,0.453160918,0.338664886,0.505696502,0.320821065,0.518081176,0.327243902,0.375942415,0.561078762,1,0.652089085,0.223286012,0.279581855,0.315504679,0.233774678,0.571747774,0,0.151036076,0.600371058,0.767260238,0.313438183
24,20190610,1,0.247603013,0.441301137,0.94898671,0.168472447,1,0.036953216,0.439357279,0.733784223,0.068477037,0.856280672,0.295065831,0.607755005,0.84771166,0.093980689,0.868915474,0.482766711,0.078153624,0.845995917,0.53717713,0.999505365,0.686677782,0.688907986,0.909564266,0.404561326,0.840471523,0.200392706,0.645655992,0.274245235,0.53717713,0.999505365,0.83963104,0.335358691,1,0.043394305,0.680245848,0.153075182,0.216577719,0.42613584,0.632584862,0.610948065,0.682053529,0.733330441,0.292972016,0.178787897,0.715381938,0.420157695,0,0.390437283,0.385838985,0.479052728,0.395435462,0.534404174,0.574489175,0.346334674,0.340666817,0.514579141,0.560532434,0.92075172,0.463565836,0.215218451,0.405516001,0.323161441
24,20190612,1,0.647272791,0.684149668,0.289863344,0.290828248,0.792139815,0.439036089,0.310521864,0.465656168,0.722549627,0.436389484,0.256948944,0.820301683,0.442338273,0.047460961,0.966073328,0.588654846,0.351339475,0.919642495,0.297919059,0.543505441,0.345813521,0.2425947,0.406359414,0.2169439,0.337484806,0.0312298,0.489052759,0.323989346,0.297919059,0.543505441,0.511190701,0.235443688,0.474848917,0.334640801,0.678941449,0.145204078,0.668732318,0.728282608,0.501063689,0.719301013,0.347384392,0.355677688,0.576992835,0.690921815,0.565484229,0.250598534,0.307807853,0.216582766,0.526741928,0.802663452,0.538144527,1,1,1,0.807418309,0.465754862,0.745448544,0.68356925,0.188603748,0.701284612,0.274829467,0.053564094
24,20190614,1,0.272624476,0.153566285,0.364309309,0.41388273,0.489028018,0.66504892,0.611082601,0.432469054,0.93703566,0.798645193,0.18177636,0.909139731,0.811687197,0.280795551,0.847386764,0.574767936,0.734233653,0.547952806,0.67037153,0.742784432,0.778653265,0.634731745,0.859369554,0.50926233,0.802395305,0.488201442,0.689104205,0.844756318,0.67037153,0.742784432,0.799380881,0.545889465,0.57154593,0.285772133,0.694569606,0.398686504,0.337787386,0.88442906,0.634321838,0.734019924,0.630493898,0.678977407,0.570016642,0.206988281,0.617025812,0.462489583,0.400777413,0.23148148,0.679585597,0.875451497,0.858559955,0.67707397,0.437736982,0.321611346,0.146925874,0.566488379,0.539240698,0.59007094,0.224178411,0.028744115,0.602769927,0.884461573
24,20190624,1,0.134790494,0.158355561,0.201814234,0.519514827,0.520695665,0.384732859,0.82019646,0.580120181,0.504528783,0.766137116,0.632459445,0.4149289,0.862185488,0.539992528,0.620887816,0.725696298,0.696502683,0.533702358,0.845015913,0.771436089,1,0.769969435,0.927184376,0.840592844,0.920609185,0.657447698,0.860034818,0.818035698,0.845015913,0.771436089,0.976463328,0.697265351,0.118678463,0.643288084,0.755000201,0.251080598,0.442473978,0.616340968,0.610926889,0.884114781,0.354910252,0.520306042,0.548811848,0.398096961,0.559440805,0.375008301,0.521087392,0.632024344,0.667706168,0.568266546,0.151446857,0.33252201,0.592048691,0.752289877,0.826683556,0.732968467,0.661129506,0.701256729,0.775497613,0.672621021,0.6700344,0.252652665
24,20190702,1,0,0.427443868,0.310656155,0.064537138,0.959952447,0.32854044,0.258207364,0.865165594,0.491969868,0.372785465,0.760890337,0.5005042,0.538008217,0.626140835,0.668599009,0.829700324,0.501421498,0.891129474,0.667868338,0.970892002,0.73337291,0.823702147,0.777919362,0.759362692,0.805093401,0.561365162,1,0.553351306,0.667868338,0.970892002,0.700773612,0.54945372,0.457010756,0.439620047,0.794861479,0.219183451,0.823021642,0.353181231,0.600862927,0.738916233,0.474083654,0.605379847,0.761053158,0.723205184,0.763401152,0.343321413,0.393808742,0.273881017,0.562436421,0.354250597,0.060378798,0.463321725,0.792615054,0.792349961,0.856125497,0.801736331,0.620110224,0.769799567,0.492092226,0.60292121,0.665281668,0.388349927
24,20190704,1,0.144099942,0.451309724,0.353328329,0.516894986,0.785215747,0.552163549,0.757144771,0.586616189,0.674904195,0.898136322,0.549863299,0.640517614,1,0.432808688,0.861413194,0.929781232,0.444335646,0.938822485,0.836033927,0.763668767,0.954212629,0.542316932,1,0.587091789,1,0.41950076,0.98215037,0.504316815,0.836033927,0.763668767,0.888864223,0.397705028,0.478600675,0.535567985,0.763083083,0.228745531,0.524294466,0.471877583,0.664695925,0.842989062,0.650036955,0.575378308,0.599915375,0.373004428,0.744085409,0.384800291,0.547725749,0.352925655,0.579422954,0.443316676,0.076498872,0.292837691,0.4503244,0.542935675,0.664281352,0.8751677,0.669547319,0.626090889,0.559576936,0.5410445,0.767282033,0.681210094
29,20190719,1,0.101947431,0,0.360116392,0.212596724,0.528921022,0.610715902,0.58679243,0.261590457,0.886289293,0.838727766,0.187169159,0.903157913,0.928783908,0.277228039,0.99417014,0.858625713,0.852087659,0.948370906,0.679662599,0.934783682,0.874232474,0.59633872,0.991244346,0.614017015,0.982536603,0.573287577,0.961248628,1,0.679662599,0.934783682,1,0.281622104,0.69051748,0.507162441,0.752651341,0.391401608,0.515670124,1,0.555999236,0.818475017,0.756973986,0.507846415,0.814995899,0.330357709,0.588807167,0.525826833,0.268286888,0.570622561,0.71864232,0.850917192,0.695681348,0.336032521,0.227049597,0.184088047,0.052999968,0.157728524,0.499176123,0.359751982,0.402482142,0.241248838,0.541434734,0.328301053
31,20190827,1,0.434476775,0.379239879,0.077599018,0.699627687,0.896600463,0.211774812,0.756628439,0.37633036,0.493455769,0.801385591,0.075678463,0.625757281,0.998865041,0.002313448,0.863605616,0.93564962,0.081834727,0.986335327,0.720684463,0.951302576,0.765230243,0.401777514,0.758610929,0.282461273,0.816074914,0.174915469,0.82404421,0.308750093,0.720684463,0.951302576,0.67428599,0,0.302713844,0.228493043,0.830993589,0.253482779,0.531026857,0.511733841,0.665066998,0.65588654,0.435114877,0.729278425,0.761206354,0.30493933,0.598111885,0.425248066,0.1948431,0.427979357,0.558456633,0.529839741,0.306710628,0.631188262,0.71617868,0.814225684,0.996254366,0.921412983,0.712145773,0.580595026,0.51796733,0.612375566,0.812271659,0.220890825
34,20191125,1,0.258175768,0.758298467,0.460125692,0,0.920854545,0.182191614,0.297142898,0.403369397,0.760489768,0.640291411,0.454749088,0.278699469,0.959693743,0.064034859,0.766237215,0.7963706,0.136607716,0.788214458,0.423833381,0.606544603,0.59017645,0.124763356,0.774091158,0.315092631,0.903082861,0,0.835382251,0.147634517,0.423833381,0.606544603,0.83228283,0.006243864,0.872749591,0.651373616,0.91650715,0,0.428037675,0.508689509,0.515171617,0.620817388,0.643159266,0.764336383,0.832940031,0.229935211,0.603545168,0.063725031,0.522064343,0.178279192,0.345636717,0.552776912,0.447138943,0.832867897,0.769048048,0.757813486,0.9682852,0.922646449,0.685145262,0.612773775,0.449373816,0.84936775,0.782089489,0.249839376
35,20191203,1,0.298683653,0.276789291,0.143074101,0.201621909,0.6911019,0,0.425838722,0.746902863,0.148140632,0.456501585,0.825236589,0.249738521,0.748757803,0.698051622,0.672957838,0.345570781,0.747042265,0.550669532,0.517511967,0.835095451,0.644970617,0.832539835,0.638879236,0.905959125,0.747018407,0.694871955,0.531620852,0.789171239,0.517511967,0.835095451,0.781400239,0.711570317,0.294647138,0.665897663,0.891170822,0.226992338,0.166993532,0.522989623,0.609732955,0.538637505,0.735152048,0.270303552,0.828109358,0.422863517,0.683283303,0.500157616,0.434649312,0.482600168,0.353824688,0.897530425,0.285266697,0.357087744,0.501841656,0.547991162,0.554853414,0.673191036,0.630003402,0.583901751,0.792211104,0.08690165,0.879554957,0
35,20191205,1,0.247356654,0.873906608,0.611099736,0.145441967,0.797750953,0.626930801,0.317182921,0.771765223,0.553355098,0.571562084,0.804267618,0.490445521,0.62400125,0.48662707,0.846060952,0.066104491,0,0.876544424,0.523018309,0.364046112,0.60983605,0.379469936,0.739955515,0.498637742,0.702218832,0.214547493,0.385892427,0,0.523018309,0.364046112,0.690901527,0.619150158,0.709408942,0.609358342,0.717184357,0.068883924,0,0,0.587549987,0.451644084,0.532927521,0.717346624,0,0.555753358,0.597317787,0.150407894,0.458630137,0.269923507,0,0.558934267,0.31359685,0.607876704,0.769929269,0.797427456,0.851672012,0.688911342,0.695891628,0.690536049,0.543061861,0.271382679,0.578452902,0.694087123
35,20191208,1,0.87830903,0.174329638,0.379022148,0.1054546,0.649472874,0.042713374,0,0.778224353,0,0,0.618303001,0.116085388,0.302621274,0.513949756,0.489917393,0.668540174,0.272491303,0.808021527,0,0.891369282,0,0.943799138,0,0.819606352,0.105262851,0.631071736,0.410174226,0.537355718,0,0.891369282,0.281603524,0.799946629,0.26137858,0.377097322,0.885747025,0.24090374,0.867141396,0.235358637,0.490175833,0.197158212,0.292834805,0.53820449,0.938372075,0.696604605,0.49115206,0.85809684,0.205693131,0.241058292,0.461652663,0.447452722,0.847988313,0.818086893,0.835125495,0.885637292,0.603945118,0.009375797,0.628131239,0.341537334,0.405440904,0.24663768,0,0.456584494
35,20191210,1,0.866030736,0.372810423,0.665602303,0.28225108,0.770823264,0.551993028,0.180682297,0.82964316,0.997721041,0.074316613,0.480798952,0.980745116,0.119961721,0.152857979,0.935254865,0,0.213224937,0.63912919,0.119877957,0.825203171,0.121854261,0.833842938,0.052079195,0.587338119,0,0.278461168,0,0.396491787,0.119877957,0.825203171,0.334525616,0.724272352,0.057277789,0.146704947,0.697907709,0.052572555,0.368185187,0.502204532,0.450235654,0.304057321,0.30441341,0.326386972,0.719578736,0.184884169,0.481090876,0.806684908,0.248840719,0,0.315399326,0.777407237,0.575257265,0.328881137,0.376058113,0.219296245,0.363654024,0.493497791,0.498787115,0.678238617,0.123298389,0.269862629,0.759288324,0.560639028
37,20191213,1,0.630641143,0.247163947,0.377789954,0.073887945,0.814762981,0.074841975,0.40296918,0.652393679,0.386403332,0.59841576,0.409650984,0.424093326,0.91769518,0.161247453,0.72556634,0.844557784,0.1696532,0.584584923,0.1758448,0.994187965,0.414885034,0.767170395,0.513489911,0.616970624,0.642079247,0.35558079,0.657942339,0.433568055,0.1758448,0.994187965,0.897990752,0.447173746,0.597091828,0.283854468,0.915215872,0.116677523,0.511395206,0.453145208,0.469486454,0.431883944,0.861311062,0.620923477,0.935072364,0.384536337,0.687674548,0.414542655,0.247490239,0.173164853,0.442162077,0.515661315,0.739955246,0.378419112,0.367710046,0.109559532,0,0,0.472769277,0.514014792,0.278907468,0,0.626907357,0.268815214
37,20191216,1,0.684523023,0.34645364,0.329544187,0.257378505,0.720314023,0.555827272,0.317157297,0.666821824,0.709432639,0.344140343,0.661442979,0.758128485,0.344699361,0.840639407,0.866889007,0.444742647,0.779835827,0.955806254,0.247665447,0.797789133,0.325794214,0.701528144,0.327789882,0.738694649,0.253571992,0.749804461,0.378533034,0.774162197,0.247665447,0.797789133,0.559875339,0.575484408,0.293735001,0.569188442,0.672312627,0.476582066,0.611429277,0.426571636,0.490162506,0.635164748,0.351303308,0.433690763,0.6883207,0.572170388,0.669321175,0.310294927,0.457014876,0.591097505,0.669061721,0.49218133,0.417838274,0,0.406070733,0.539877999,0.805199066,0.747835923,0.525855004,0.409909627,1,0.506078174,0.888192967,0.340589632
37,20191218,1,0.589494383,0.006201413,0.258851239,0.826632407,0,0.583409191,0.723125638,0.078914561,0.720344344,0.931676117,0.097562654,0.847929281,0,0.925687504,0.495953232,0.53895309,0.500300485,0.78637872,0.677461138,0.372038315,0.643400241,0.419344015,0.738228411,0.543447249,0.100270267,1,0.490238267,0.770781694,0.677461138,0.372038315,0.477488507,0.66428624,0.603917005,0.628888428,0,1,1,0.08386835,0.582976649,0.514125587,0.947634682,0,0.071668783,1,0.619975306,0.314852614,0.173628585,1,1,0,0.423506681,0.484493443,0.535644037,0.501634836,0.745859614,0.773137008,0.625306256,0.632942024,0.360013021,0.609666592,0.802224664,0.488370385
37,20191221,1,0.317011509,0.287434604,0.424360085,0.682819765,0.593983996,0.872051148,0.703527056,0.696904066,0.963833908,0.690499709,0.91640807,0.793958553,0.935869788,0.97831904,0.972100082,0.940784978,1,0.961488657,0.802940637,0.722480276,0.80807932,0.776955721,0.766806811,0.966637458,0.851218776,0.874763258,0.892686471,0.946171782,0.802940637,0.722480276,0.617597923,0.760853722,0.199925939,0.83866086,0.863218071,0.385665799,0.590186486,0.513210651,0.698214109,0.729053876,0.392659013,0.518893929,0.763138284,0.524186355,0.727337375,0.365586236,0.64844409,0.630432755,0.666084456,0.61766765,0.152206788,0.175697377,0.345750688,0.549144586,1,0.839601373,0.64672404,0.572374575,0.358451562,1,0.857899186,0.209265306
46,20200311,1,0.542991711,0.286873083,0.520152486,0.980905746,0.361874047,0.741456574,1,0.237659767,1,0.909371745,0.29968365,0.854229871,0.871567836,0.424283504,0.787368195,0.69098249,0.568720368,0.659251273,0.810319958,0.478733909,0.84811613,0.344882584,0.754348319,0.509306255,0.668845883,0.507488012,0.610975709,0.669385652,0.810319958,0.478733909,0.695086336,0.44551952,0.042211717,0.672867534,0.660155862,0.422693397,0.400356547,0.59811529,0.677402519,0.876151882,0.092876201,0.501316788,0.705522048,0.310097746,0.571112155,0.056199849,0.682061438,0.476619781,0.471271108,0.663742155,0.326964703,0.660953792,0.745060782,0.828250667,0.970697072,0.975481417,0.741227632,0.621682514,0.543275732,0.545786382,0.765101363,0.473044783
46,20200313,1,0.178519273,0.695169973,0.18934689,0.183068228,0.421919545,0.612362801,0.328034544,0.29760614,0.747321999,0.460937148,0.210119911,0.76555531,0.603952722,0.154602057,0.881019457,0.420551585,0.10414856,0.905163051,0.600810909,0.143084688,0.661398852,0.075529433,0.717543534,0.174959666,0.73325017,0.096040598,0.645334164,0.159473649,0.600810909,0.143084688,0.662474911,0.452061474,0.486771785,0.489532407,0.780971791,0.271488203,0.364962276,0.396636129,0.521493421,0.666521533,0.472114005,0.656293182,0.801090481,0,0.500487895,0.120889363,0.417469088,0.321492437,0.540378505,0.517894288,0.368767683,0.686934174,0.722201552,0.697340472,0.782388753,0.748758512,0.671483315,0.584059493,0.407087664,0.507884463,0.650376613,0.372857051
46,20200316,1,0.44358358,0.451473688,0.505824079,1,0.261882238,0.848059466,0.974887687,0.212968609,0.987275737,0.945031331,0.23843783,0.862623507,0.881645741,0.366450548,0.686499142,0.826117368,0.392876342,0.638614349,0.900696512,0.212701949,0.896873973,0.190280783,0.838499044,0.355861024,0.737805873,0.375379664,0.7506481,0.471171713,0.900696512,0.212701949,0.636631905,0.530410403,0.154644984,0.630100233,0.642266823,0.424043045,0.524275207,0.48223377,0.721738291,0.736148314,0.338342014,0.234535561,0.75738769,0.207076116,0.477011084,0.331158768,0.5405153,0.84519225,0.408848853,0.737301386,0.565173191,0.311717822,0.274395708,0.157779869,0.175211674,0.130944549,0.513210029,0.39415005,0.343097152,0.304543396,0.695296572,0.090469024
47,20200323,1,0.402047313,0.221752076,0.226731157,0.282000654,0.497158725,0.553695228,0.610761303,0.496989543,0.779047844,0.891638937,0.13662974,0.901233863,0.948985251,0,1,0.834022453,0.307238908,0.958038725,0.486007416,0.684734337,0.694365132,0.641087183,0.832940696,0.431021311,0.805677065,0.26306689,0.778718575,0.535120569,0.486007416,0.684734337,0.953248699,0.61867972,0.742141049,0.150219554,0.729987355,0.202598129,0.474176875,0.728733084,0.602810627,0.71027066,1,0.48907704,0.703240102,0.339410183,0.482760322,1,0.191508014,0.269586634,0.529095092,0.876966543,0.23782973,0.674510083,0.8181262,0.885616571,0.90801683,0.862974609,0.707383917,0.737445666,0.560051459,0.422586527,0.715353209,0.177417089
8,20190103,0,0.577863318,1,0.163448214,0.868335842,0.902896731,0.586466246,0.42500113,0.595293647,0.607131773,0.294452096,0.546182798,0.564775757,0.28600855,0.437648304,0.733200218,0.605303694,0.565094242,0.828666967,0.712633995,0.351536698,0.463060519,0.112647555,0.365639181,0.224373201,0.284560858,0.110242919,0.538105266,0.297746026,0.712633995,0.351536698,0,0.271813218,0,0.520219528,0.664233106,0.235707389,0.819374487,0.582689528,0.803577759,0.435056252,0,0.287223838,0.648326543,0.338609881,0.652685182,0,0.352117136,0.297327611,0.496860326,0.781973177,0.804500799,0.924053663,0.531511819,0.408044927,0.365273481,0.657471766,0.770144626,0.245983859,0.116695393,0.159740438,0.659982752,0.429509816
9,20190213,0,0.992571628,0.615071087,0.048987323,0.836824627,0.561537331,0.182473145,0.407913953,0.430644977,0.340595689,0.298560645,0.33742641,0.302978839,0.48595386,0.221255984,0.683074649,0.358532781,0.070928809,0.768698799,0.365609283,0.368276914,0.182856378,0.264743862,0.105732055,0.321991314,0.146591724,0.185879389,0.153146544,0.179612662,0.365609283,0.368276914,0.012304339,0.459179618,0.039659509,0.475666935,0.809123255,0.224362669,0.405494455,0.305271833,0.636559049,0.104365829,0.274641725,0.55262156,0.820189875,0.216066604,0.637170696,0.217879525,0.41331628,0.339031387,0.450198957,0.513603155,0.771147917,0.606421055,0.33860515,0.133750548,0.146177767,0.064599066,0.67299069,0.215769501,0.278458602,0.311324549,0.654728354,0.227727195
9,20190215,0,0.321407355,0.126159584,0.015353559,0.192889818,0.565121569,0.136659247,0.058613938,0.735160482,0.08736993,0.115171949,0.551514472,0.414174364,0.508324057,0.23082947,0.791264025,0.722369914,0.305530008,0.861566736,0.494130934,0.849644998,0.398759464,0.941679688,0.420984372,0.801643128,0.583925377,0.470657233,0.753997121,0.583527563,0.494130934,0.849644998,0.26356952,0.84321344,0.361629567,0.350754374,0.955973508,0.060279445,0.743225583,0.520395877,0.772066741,0.28004089,0.215555683,0.892080567,0.867289962,0.739949297,0.625146518,0.770765014,0.478604493,0.07294647,0.366182418,0.92950299,0.160054405,0.152783092,0.156970967,0.152537503,0.426506771,0.699330735,0.788628199,0.405564141,0.343647199,0.82320223,0.777342786,1
9,20190219,0,0.248476054,0.32124814,0.140254388,0.6031373,0.760606206,0.398107011,0.666922841,0.587261184,0.582444279,0.70415526,0.409067988,0.626975635,0.874623069,0.065757282,0.913216609,0.939729841,0.133508462,0.947475592,0.807384468,0.864818632,0.829536375,0.646710472,0.818306564,0.567932475,0.856570559,0.2500348,0.93020888,0.371980467,0.807384468,0.864818632,0.658208347,0.427167232,0.29375807,0.36505998,0.808238003,0.038127011,0.641770571,0.504191878,0.769432347,0.733042576,0.411087921,0.54854964,0.785991194,0.432482281,0.717396339,0.458417363,0.230600054,0.113421551,0.417846069,0.696050077,0.245022783,0.630882264,0.716390497,0.762563643,0.865185045,0.935832529,0.799691261,0.662406654,0.478631978,0.462812762,0.765025038,0.467736055
13,20190226,0,0.283148427,0.365650865,0.411173472,0.956115932,0.930256564,0.140364006,0.857494429,1,0.262334909,0.818874954,1,0.61284317,0.925036105,0.932431192,0.942068786,1,0.935626833,1,1,1,0.927119766,1,0.864773865,0.977358414,0.865883084,0.799774598,0.948487803,0.864308862,1,1,0.519180446,0.755903773,0.144906764,0.558249945,0.763987869,0.280532728,0.657588249,0.492922062,1,0.734396412,0.404133563,0.465295236,0.94012401,0.386867325,1,0.535725233,0.571566442,0.470002107,0.709255916,0.591267,0.345820134,0.312613828,0.366406917,0.100159249,0.391473465,0.405991376,0.6436131,0.585577462,0,0.555389033,0.994168541,0.247694953
14,20190315,0,0.565097561,0.418427939,0.419454077,0.439319418,0.362700602,0.610499832,0.56960021,0.202264672,0.807186243,0.738120247,0.123692411,0.841897358,0.904278343,0.106843907,0.932420242,0.733108846,0.384490275,0.850208641,0.455335478,0.351093826,0.562489622,0.20656943,0.638254102,0.292383962,0.675135236,0.221953136,0.624937811,0.482897599,0.455335478,0.351093826,0.709965192,0.399434918,0.538955861,0.505261467,0.806025693,0.301406623,0.413582738,0.706715168,0.541158912,0.690497769,0.544267622,0.634856804,0.571244936,0.241184153,0.552868236,0.266328655,0.364920914,0.396478526,0.70060369,1,0.591725914,0.224234504,0,0,0.408123164,0.723306016,0.489806187,0.144742085,0.468689329,0.84818896,1,0.842914454
14,20190317,0,0.777541923,0.657573435,0.183670296,0.494514296,0.898163345,0.113074476,0.126483581,0.673324443,0.145045121,0.042419331,0.622771686,0.198585213,0.22216106,0.594051892,0.42441745,0.250949775,0.677465586,0.400168345,0.322023258,0.681055956,0.145185816,0.459386121,0.089040978,0.505874064,0.119065002,0.409020097,0.20583102,0.547273215,0.322023258,0.681055956,0.008198132,0.376797698,0.100943988,0.5144015,0.796124294,0.303598634,0.526581695,0.549778554,0.51774608,0.063948058,0.215391642,0.279025419,0.692295406,0.351721743,0.587039842,0.188487028,0.360552172,0.604156877,0.558075558,0.61511766,0.454000853,0.041472655,0.25813213,0.515431547,0.781177217,0.81510598,0.50630934,0.670623001,0.688086519,0.811160093,0.709961139,0.542481263
19,20190420,0,0.178022901,0.429544471,0.076510648,0.311045501,0.429740439,0.376645913,0.297992998,0.325210512,0.471382503,0.216925839,0.399962781,0.404209284,0.401888513,0.215619085,0.706288857,0.597800684,0.081948571,0.887117721,0.680962149,0.410793774,0.642787314,0.313490413,0.572364827,0.49012355,0.608547592,0.287793325,0.756173111,0.282771784,0.680962149,0.410793774,0.46951643,0.47815056,0.0972468,0.683630803,0.804986317,0.169454319,0.712456874,0.320827245,0.639765269,0.698712554,0.079128318,0.561657939,0.789540716,0.542113299,0.578918969,0.26644767,0.461441397,0.380961948,0.491879136,0.433998528,0.075633584,0.211732447,0.370688189,0.46601869,0.632194226,0.685723286,0.645608174,0.588522381,0.741787599,0.527921181,0.791809306,0.249692508
20,20190501,0,0.374338994,0.022750322,0.352243781,0.698725562,0.567232377,0.649464274,0.62971643,0.497628762,0.893951268,0.625523581,0.416317536,0.887328091,0.915131576,0.274491385,0.959648269,0.897417147,0.275660344,0.945638952,0.767597201,0.952882479,0.724313831,0.800487913,0.691797453,0.769152453,0.802215505,0.558515961,0.833698284,0.617890691,0.767597201,0.952882479,0.492849155,0.537944716,0.220024108,0.486516038,0.894058342,0.20503169,0.565456493,0.452815299,0.651071492,0.471096877,0.313912621,0.727169181,0.923299889,0.488004393,0.632925469,0.364278657,0.402467871,0.298337686,0.386135523,0.597455881,0.140214651,0.200111532,0.213502877,0.179568752,0.30478676,0.476170263,0.650729445,0.564029414,0.219573625,0.538283066,0.767723498,0.507073357
26,20190618,0,0.862744457,0.438571876,0.07177893,0.731676994,0.04781486,0.519829574,0.496177365,0,0.524633799,0.417291289,0.085868947,0.546371354,0.138106,0.121925725,0.80399435,0.26239204,0.047465898,0.880686396,0.402568364,0,0.322833731,0,0.258658226,0.251097304,0.013299331,0.22048812,0.165502676,0.255943224,0.402568364,0,0.26226718,0.508038008,0.090630846,0.7140343,0.467608541,0.344275563,0.610022085,0.371849684,0.496671779,0.511801215,0.225171804,0.109229724,0.293876468,0.418810372,0.426145096,0.129771972,0.565770036,0.617665774,0.58577249,0.441004921,0.152566668,0.478221772,0.711316752,0.879561285,0.978908972,0.90197809,0.696097168,0.706596696,0.793440392,0.568234913,0.668329497,0.333931859
30,20190812,0,0.587994279,0.211250734,0.932809113,0.081759565,0.694865256,0.576951026,0.243152216,0.568328967,0.697785105,0.319637617,0.501271102,0.697153997,0.62386978,0.532099363,0.792775949,0.794810264,0.767262536,0.65039373,0.214417636,0.903078042,0.341866101,0.716655242,0.374247,0.708528233,0.487200883,0.622087878,0.650669635,0.83610254,0.214417636,0.903078042,0.658971266,0.479539517,0.388183559,0.499998412,0.896100672,0.349949953,0.715025263,0.690880278,0.403370278,0.59637276,0.514079378,0.56668334,0.835202118,0.570912023,0.669414039,0.359647696,0.36719028,0.386899022,0.537473208,0.92867328,0.061105877,0.203848096,0.541309321,0.815402766,0.943058511,0.951581546,0.585304833,0.719892101,0.853670142,0.545990524,0.840249164,0.35612894
30,20190813,0,0.275719623,0.535835196,0.394993444,0.368095453,0.844698455,0.246282966,0.672029197,0.769631517,0.216131663,0.818154801,0.892697347,0,0.959848458,1,0,0.800681276,0.990027091,0,0.639392063,0.743704968,0.815054648,0.647233403,0.869044154,0.786068891,0.892108704,0.747688784,0.82829757,0.811124407,0.639392063,0.743704968,0.94059951,0.561793761,0.492539325,0.718623637,0.790234638,0.422656944,0.432133833,0.484285982,0.568747384,0.853209759,0.553495586,0.532240743,0.696806491,0.095537102,0.720865538,0.221620721,0.526692751,0.63095742,0.726652198,0.567841958,0.369874611,0.00608376,0.163794065,0.222555183,0.548332204,0.816063446,0.484236468,0.518225845,0.587677344,0.551928353,0.813772706,0.74163137
34,20191202,0,0.397153908,0.107772151,1,0.608300919,0.118174964,0.848253941,0.554808761,0.450135238,0.638699645,0.55443378,0.57159857,0.440130731,0.357530372,0.925702033,0.20154441,0.55900114,0.82529723,0.37023361,0.693230843,0.397197151,0.662279632,0.687912587,0.634976477,0.82861217,0.442835529,0.942167002,0.609894994,0.926975993,0.693230843,0.397197151,0.490951925,1,0.231010674,0.733398257,0.532366796,0.619156037,0.712501422,0.393746462,0.655204255,0.694502246,0.454249973,0.063104154,0.797404619,0.065682055,0.496770324,0.353284206,1,0.572574383,0.884021544,0.375630965,0.738172224,0.863780901,0.214314843,0.692600306,0.257328426,0.341307929,0.551920902,0.185345933,0.870278795,0.17021693,0.399187923,0.137412133
47,20200327,0,0.142992436,0.914806655,0.185693794,0.272592476,0.71739379,0.294236455,0.380793856,0.409843964,0.501193108,0.445121104,0.336829387,0.584912721,0.722178685,0.396390364,0.728913836,0.789549424,0.322780353,0.779482936,0.684651371,0.239517067,0.717732693,0.00597133,0.730588492,0.124896412,0.828812622,0.131384856,0.895295155,0.186190154,0.684651371,0.239517067,0.633577669,0.251280184,0.35859484,0.50110593,0.879608991,0.36976749,0.625403304,0.388584696,0.632242489,0.620884798,0.313702456,0.658268475,0.825175082,0.450672208,0.551304703,0.243586993,0.250246514,0.378257463,0.479126629,0.657819939,0.324582618,0.271678821,0.647941341,0.776145541,0.782868195,0.829476251,0.578141744,1,0.962592085,0.367467546,0.712344956,0.482161034
