Time_Host,Time_Arduino,easingdata,CH1_Oxy,CH1_Deoxy,CH2_Oxy,CH2_Deoxy,CH3_Oxy,CH3_Deoxy
1.314,0.04,0.0,0.2964571585696741,0.908762206992273,0.20502295270561674,0.40707132681947805,0.1508685723927756,0.5518170666841088
1.335,0.1,0.0,0.29652690068960114,0.9073900019427094,0.20888786553570188,0.4015772980307307,0.15200674117584467,0.549612809294806
1.355,0.15,0.0,0.296597163167539,0.9060498536602026,0.21270245526647935,0.3961009891158452,0.1531417301106878,0.5473978500660963
1.375,0.21,0.0,0.2966678502118384,0.9047428157435129,0.21646511063784718,0.3906442139935788,0.1542728629197123,0.5451729741204288
1.395,0.26,0.0,0.2967388622263004,0.9034699236346375,0.22017426307741583,0.38520876734828646,0.15539946131694093,0.5429389739108907
1.416,0.32,0.0,0.296810095798018,0.9022321935248958,0.22382838793489995,0.37979642352444803,0.15652084566144556,0.5406966485372748
1.436,1.07,0.0,0.2968814436889587,0.9010306212742001,0.22742600564375887,0.3744089354651957,0.15763633561336501,0.5384468030555322
1.456,1.12,0.0,0.2969527948313718,0.8998661813445546,0.23096568280904486,0.36904803369445316,0.1587452507910508,0.5361902477815776
1.476,1.18,0.0,0.2970240343270948,0.8987398257488035,0.2344460332206007,0.3637154253421218,0.159846911427845,0.5339277975904168
1.537,1.23,0.0,0.2970950434508235,0.8976524830156117,0.2378657187909287,0.3584127932115716,0.16094063902695457,0.5316602712115691
1.598,1.29,0.08,0.29716569965740014,0.8966050571716496,0.24122345041722598,0.3531417948885332,0.16202575701284783,0.5293884905217736
1.64,1.34,0.2,0.29723587659315404,0.8955984267419366,0.24451798876723627,0.34790406189035206,0.16310159137756375,0.5271132798359635
1.701,1.4,0.13,0.2973054441112943,0.8946334437693472,0.24774814498868164,0.3427011988545164,0.16416747132032014,0.5248354651974882
1.761,1.45,0.14,0.2973742682913022,0.8937109328543416,0.2509127813421121,0.337534782765427,0.16522272987884754,0.5225558736684968
1.823,1.51,0.27,0.2974422114622263,0.8928316902160179,0.2540108117571027,0.33240636221847886,0.16626670455095718,0.5202753326212917
1.886,1.56,0.26,0.2975091322297605,0.8919964827755251,0.25704120231188027,0.3273174567205616,0.16729873790493557,0.5179946690313594
1.927,1.62,0.21,0.297574885506973,0.8912060472627554,0.26000297163661634,0.32226955602607515,0.1683181781774194,0.5157147087726873
1.988,1.67,0.3,0.29763932254853404,0.8904610893471001,0.26289519124073724,0.3172641195075371,0.16932437985746435,0.5134362759158976
2.05,1.73,0.34,0.2977022909882608,0.8897622827929212,0.2657169857646756,0.3123025755598568,0.17031670425558368,0.5111601920296304
2.111,1.78,0.27,0.2977636348797619,0.8891102686402663,0.26846753315656396,0.30738632103733926,0.17129452005658502,0.5088872754855437
2.195,1.84,0.35,0.29782319473993085,0.8885056544112604,0.2711460647744529,0.30251672072248953,0.17225720385507967,0.5066183407672751
2.218,1.89,0.46,0.29788080759501145,0.887949013342553,0.27375186541473634,0.2976951068257248,0.17320414067258413,0.504354197783725
2.259,1.95,0.41,0.29793630702894713,0.8874408836441584,0.276284273267586,0.2929227785151567,0.17413472445518666,0.5020956511870647
2.302,2.0,0.4,0.2979895232337135,0.8869817677850043,0.27874267980031564,0.2882010014756911,0.17504835855081893,0.49984349969595165
2.405,2.06,0.53,0.2980402830613198,0.8865721318054905,0.2811265295696733,0.28353100749679705,0.1759444561652605,0.4975985354244917
2.425,2.11,0.51,0.29808841007715986,0.886212404657315,0.2834353199641359,0.27891399408835743,0.1768224407960999,0.495361543217499
2.467,2.17,0.47,0.29813372461439913,0.8859029775707449,0.2856686008773593,0.27435112412400886,0.1776817466439617,0.4931332999925874
2.569,2.22,0.58,0.2981760438290863,0.8856442034494031,0.28782597431401197,0.2698435255113476,0.17852181900038824,0.49091457408956524
2.59,2.28,0.61,0.2982151817556767,0.885436396292528,0.2899070939293275,0.26539229088835453,0.1793421146118524,0.4887061246275344
2.633,2.33,0.54,0.2982509493626445,0.8852798306445372,0.29191166450385064,0.2609984773453753,0.18014210201945824,0.48650870087008363
2.715,2.39,0.61,0.29828315460784677,0.8851747410716543,0.2938394413549998,0.2566631061720346,0.18092126187397078,0.48432304159900663
2.736,2.44,0.68,0.2983116024932974,0.8851213216653113,0.29569022968723097,0.25238716262853506,0.18167908722590118,0.4821498744970653
2.799,2.5,0.63,0.2983360951190304,0.8851197255720673,0.2974638838827621,0.248171595740848,0.1824150837904551,0.4799899155404106
2.861,2.55,0.63,0.29835643173575765,0.8851700645498689,0.2991603067349833,0.2440173181193308,0.18312877018722706,0.47784386840135745
2.923,2.61,0.75,0.2983724087960531,0.8852724085506102,0.3007794486268032,0.23992520580031557,0.18381967815460654,0.4757124238622568
2.965,2.66,0.72,0.29838382000381336,0.8854267853290914,0.3023213066563055,0.23589609811018705,0.18448735273894704,0.4735962592412305
3.026,2.72,0.68,0.2983904563617551,0.8856331800785563,0.30378592371217766,0.23193079755142265,0.18513135245863888,0.4714960378305483
3.088,2.77,0.76,0.29839210621673634,0.8858915350930183,0.30517338750144946,0.22803006971003703,0.1857512494433142,0.4694124083484275
3.15,2.83,0.76,0.2983885553027366,0.8862017494565405,0.3064838295321273,0.22419464318385526,0.18634662954850867,0.4673460044050175
3.191,2.88,0.68,0.29837958678140336,0.8865636787595709,0.3077174240533741,0.22042520953102357,0.18691709244618648,0.4652974439833312
3.295,2.94,0.72,0.2983649812801273,0.886977134842422,0.3088743869559346,0.21672242323819335,0.18746225169159936,0.46326732893593764
3.315,2.99,0.76,0.2983445169276467,0.8874418855660369,0.30995497463555544,0.21308690170787944,0.18798173476700827,0.46125624449830416
3.357,3.05,0.7,0.2983179693871866,0.8879576546103032,0.3109594828222155,0.2095192252645577,0.18847518310283437,0.45926475881976964
3.419,3.1,0.74,0.2982851118871372,0.8885241213003117,0.31188824537802706,0.20601993717912712,0.18894225207683546,0.45729342251319793
3.459,3.16,0.85,0.29824571524928173,0.8891409204610717,0.3127416330666831,0.20258954371142196,0.18938261099193823,0.4553427682243535
3.522,3.21,0.81,0.29819954791460346,0.8898076423012686,0.31352005229733837,0.19922851417048795,0.1897959430334115,0.4534133102219601
3.585,3.27,0.76,0.298146375966739,0.8905238323266724,0.314223943845816,0.19593728099233784,0.1901819452061387,0.45150554400925963
3.708,3.32,0.82,0.2980859631531789,0.8912889912838174,0.3148537815560428,0.19271623983491157,0.19054032825284428,0.44961994595774
3.75,3.38,0.83,0.2980180709043587,0.8921025751345526,0.31541007102463287,0.18956574968997164,0.19087081655422972,0.4477569729635809
3.77,3.43,0.74,0.2979424583508241,0.8929639950620479,0.31589334827156,0.18648613301165462,0.19117314801204915,0.4459170621273269
3.811,3.49,0.79,0.297858882338687,0.8938726175088697,0.3163041783998398,0.18347767586141434,0.19144707391620502,0.44410063045730835
3.851,3.54,0.82,0.29776709744361374,0.8948277642478083,0.31664315424708844,0.18054062806914553,0.19169235879698338,0.4423080745973431
3.911,3.6,0.73,0.29766685598360404,0.8958287124862407,0.31691089503175385,0.17767520341035428,0.19190878026358235,0.44053977057925886
3.974,3.65,0.7,0.2975579080308276,0.8968746950049084,0.31710804499672685,0.17488157979935,0.19209612883011123,0.43879607360077033
4.036,3.71,0.77,0.29744000142278404,0.8979649003320893,0.3172352720529446,0.17215989949853702,0.19225420773026486,0.43707731782921483
4.057,3.76,0.69,0.29731288177306464,0.8990984729541842,0.31729326642553973,0.16951026934392213,0.19238283272188703,0.4353838162315816
4.12,3.82,0.63,0.2971762924820119,0.9002745135637217,0.31728273930504797,0.16693276098689586,0.1924818318826269,0.43371586043119237
4.183,3.87,0.74,0.2970299747475913,0.9014920793457257,0.3172044215061545,0.16442741115222093,0.1925510453978738,0.43207372059128163
4.223,3.93,0.73,0.2968736675768014,0.9027501843032948,0.31705906213642887,0.16199422191200333,0.192590325342138,0.43045764532561404
4.305,3.98,0.62,0.2967071077979503,0.9040477996231487,0.3168474272774659,0.15963316097529123,0.19259953545503827,0.4288678616361823
4.408,4.04,0.66,0.29653003007413226,0.9053838540818377,0.3165702986807937,0.15734416199291526,0.19257855091306264,0.42730457487795864
4.429,4.09,0.71,0.29634216691825355,0.9067572344933038,0.31622847248084407,0.15512712487723818,0.19252725809829135,0.4257679687506239
4.45,4.15,0.63,0.2961432487099998,0.9081667861985221,0.3158227579272351,0.15298191613656523,0.1924455543652779,0.42425820531717406
4.512,4.2,0.63,0.29593300371518316,0.9096113135980577,0.3153539761385753,0.15090836922405976,0.19233334780727854,0.4227754250493019
4.553,4.26,0.7,0.2957111581079527,0.9110895807284918,0.31482295887995526,0.1489062849011002,0.1921905570230162,0.4213197468994183
4.615,4.31,0.64,0.29547743599639165,0.9126003118837654,0.31423054736626965,0.1469754316150612,0.1920171108851748,0.4198912683990858
4.676,4.37,0.59,0.29523155945204504,0.9141421922825006,0.31357759109348865,0.1451155458914898,0.19181294831182688,0.41849006578352776
4.781,4.42,0.66,0.2949732485439406,0.9157138687823033,0.31286494669995146,0.14332633274061377,0.191578018042013,0.4171161941417675
4.802,4.48,0.63,0.2947022213776868,0.9173139506419268,0.31209347685969285,0.1416074660780669,0.19131227841669782,0.41576968759186134
4.842,4.53,0.54,0.2944181941402634,0.9189410103320255,0.31126404920973394,0.13995858915967152,0.19101569716632683,0.41445055948064463
4.884,4.59,0.62,0.29412088115114515,0.920593584395092,0.3103775353131668,0.1383793150301156,0.19068825120619448,0.4131588026073821
4.945,4.64,0.64,0.2938099949204185,0.9222701743550555,0.3094348096597664,0.13686922698539944,0.1903299264408259,0.41189438947069634
5.028,4.7,0.53,0.29348524621456357,0.9239692476769074,0.3084367487057932,0.13542787904897585,0.18994071757855996,0.4106572725381562
5.068,4.75,0.5,0.29314634413057944,0.9256892387766195,0.3073842299545861,0.13405479646158822,0.18952062795751448,0.4094473845379552
5.13,4.81,0.53,0.2927929961791359,0.9274285500815473,0.30627813107947816,0.132749476184909,0.18906966938410813,0.40826463877216773
5.21,4.86,0.44,0.2924249083774413,0.9291855531414385,0.30511932909051614,0.13151138741915125,0.18858786198528676,0.407108929451108
5.231,4.92,0.4,0.29204178535252034,0.9309585897901083,0.30390869954639427,0.13033997213485451,0.18807523407553578,0.4059801320483336
5.272,4.97,0.46,0.2916433304555718,0.9327459733578047,0.30264711581289677,0.12923464561906203,0.18753182203967567,0.40487810367581384
5.355,5.03,0.39,0.29122924588804505,0.9345459899341994,0.3013354483689989,0.12819479703609657,0.18695767023234955,0.4038026834787229
5.396,5.08,0.27,0.29079923284003045,0.9363568996818203,0.2999745641616208,0.12721979000310102,0.18635283089502525,0.40275369304924924
5.498,5.14,0.3,0.29035299164151945,0.9381769381995677,0.29856532600989033,0.12630896318045065,0.1857173640912569,0.401730936858739
5.519,5.19,0.27,0.28989022192707026,0.9400043179357278,0.29710859205966555,0.12546163087705364,0.18505133766086027,0.4007342027074157
5.581,5.25,0.16,0.28941062281440233,0.9418372296496633,0.29560521528901484,0.12467708367043756,0.1843548271935404,0.39976326219087654
5.601,5.3,0.18,0.28891389309742344,0.9436738439211232,0.29405604306528726,0.12395458904141768,0.18362791602236947,0.39881787118255974
5.664,5.36,0.19,0.2883997314541471,0.9455123127059241,0.29246191675431366,0.12329339202309518,0.18287069523736996,0.397897770331392
5.705,5.41,0.1,0.2878678366698903,0.9473507709365887,0.29082367138214055,0.12269271586392698,0.18208326371932282,0.3970026855738469
5.767,5.47,0.07,0.2873179078760631,0.9491873381663626,0.28914213534950584,0.12215176270464467,0.18126572819378853,0.3961323286596741
5.869,5.52,0.14,0.2867496448047874,0.9510201202548649,0.28741813019903506,0.12166971426883615,0.18041820330520664,0.3952863976905628
5.89,5.58,0.06,0.2861627480595228,0.9528472110934176,0.2856524704349301,0.12124573256697273,0.1795408117108189,0.39446457767097143
5.932,5.63,-0.0,0.2855569194018164,0.9546666943678426,0.28384596339474055,0.12087896061354587,0.17863368419404155,0.3936665410702943
5.992,5.69,0.06,0.2849318620542093,0.9564766453562306,0.28199940917264366,0.12056852315683556,0.17769695979680245,0.39289194839547903
6.055,5.74,0.07,0.2842872810192394,0.9582751327588628,0.2801136005935098,0.1203135274206977,0.17673078597025668,0.3921404487731931
6.096,5.8,-0.02,0.2836228834143916,0.9600602205571221,0.27818932323689716,0.12011306385764414,0.17573531874319084,0.3914116805406831
6.157,5.85,0.02,0.2829383788227665,0.9618299698979498,0.2762273555099821,0.1199662069124308,0.17471072290733236,0.39070527184455217
6.259,5.91,0.06,0.2822334796591693,0.9635824410002313,0.2742284687682889,0.11987201579537567,0.1736571722186999,0.39002084124673875
6.279,5.96,-0.01,0.2815079015512431,0.9653156950794344,0.2721934274829389,0.11982953526466009,0.17257484961405709,0.38935799833702217
6.32,6.02,-0.01,0.2807613637351748,0.9670277962868636,0.2701229894529864,0.11983779641690556,0.17146394744145538,0.38871634435140257
6.38,6.07,0.09,0.27999358946538994,0.96871681365998,0.26801790606123244,0.11989581748534946,0.17032466770378393,0.3880954727956869
6.441,6.13,0.05,0.27920430643754063,0.9703808230803014,0.26587892257173296,0.12000260464493961,0.1691572223141853,0.3874949700735552
6.523,6.18,0.02,0.2783932472239799,0.972017909235431,0.263706778467053,0.12015715282362473,0.16796183336214673,0.386914416118314
6.545,6.24,0.12,0.2775601497208151,0.9736261675817696,0.2615022078231738,0.12035844651906455,0.16673873338904543,0.38635338502747885
6.606,6.29,0.17,0.27670475760555246,0.9752037063044557,0.2592659397198659,0.12060546061991527,0.16548816567191363,0.38581144569929865
6.667,6.35,0.09,0.2758268208042886,0.9767486482711216,0.25699869868431335,0.12089716123078689,0.16421038451418332,0.3852881624703703
6.73,6.4,0.16,0.2749260959673677,0.9782591329761744,0.25470120516578393,0.12123250649997501,0.16290565554218397,0.3847830957535874
6.772,6.46,0.2,0.2740023469524046,0.9797333184725615,0.25237417603917794,0.12161044744914966,0.1615742560061941,0.3842958026757867
6.835,6.51,0.13,0.2730553453135875,0.9811693832882749,0.25001832513537026,0.12202992880430295,0.16021647508488157,0.3838258377145926
6.876,6.57,0.14,0.2720848707961961,0.9825655283252137,0.24763436379631748,0.12248988982738981,0.15883261419198613,0.383372753334094
6.98,6.62,0.21,0.2710907118353041,0.9839199787383912,0.24522300145293346,0.12298926514821899,0.15742298728410953,0.3829361006190813
7.001,6.68,0.14,0.27007266605766206,0.9852309857938213,0.2427849462237535,0.12352698559620416,0.15598792116847762,0.3825154299076192
7.041,6.73,0.09,0.269030540785775,0.98649682870372,0.24032090553241747,0.12410197903156019,0.1545277558095254,0.3821102914217406
7.103,6.79,0.19,0.267964153543187,0.9877158164378925,0.23783158674197397,0.12471317117546649,0.15304284463313775,0.38172023589602017
7.143,6.84,0.22,0.2668733325599845,0.9888862895103134,0.23531769780396922,0.12535948643863706,0.1515335548273515,0.38134481520374053
7.205,6.9,0.15,0.2657579172775218,0.9900066217399748,0.23277994792023746,0.12603984874764945,0.15000026763829719,0.38098358298031354
7.267,6.95,0.22,0.26461775885136435,0.9910752219850949,0.23021904821526995,0.12675318236833436,0.14844337866014543,0.380636095243588
7.329,7.01,0.27,0.2634527206514339,0.9920905358497805,0.22763571241701613,0.12749841272551987,0.14686329811784765,0.3803019110106194
7.37,7.06,0.2,0.26226267875833187,0.9930510473622194,0.2250306575439572,0.12827446721845268,0.14526045114149627,0.3799805929104472
7.411,7.12,0.19,0.2610475224548112,0.9939552806234847,0.2224046045962705,0.12908027603128414,0.1436352780311704,0.37967170779241893
7.47,7.17,0.26,0.2598071547113567,0.99480180142605,0.21975827924886077,0.1299147729380933,0.1419882345111719,0.3793748273295898
7.531,7.23,0.19,0.25854149266482906,0.9955892188411125,0.21709241254400408,0.1307768961019544,0.14031979197258226,0.37908952861670314
7.573,7.28,0.13,0.2572504680891173,0.9963161867737894,0.21440774158132164,0.13166558886751714,0.13863043770307684,0.37881539476221443
7.655,7.34,0.22,0.255934027856723,0.9969814054851786,0.21170501020275742,0.13257980054646726,0.13692067510292133,0.37855201547376377
7.736,7.39,0.23,0.25459213439018274,0.9975836230801766,0.2089849696701918,0.13351848719507686,0.13519102388605472,0.3782989876364171
7.757,7.45,0.15,0.25322476610220646,0.9981216369598517,0.20624837933327064,0.13448061238289039,0.1334420202651368,0.37805591588292375
7.797,7.5,0.23,0.2518319178233842,0.9985942952370978,0.20349600728495046,0.13546514795148826,0.13167421711942362,0.3778224131551564
7.86,7.56,0.27,0.25041360121629963,0.9990004981142675,0.20072863100217717,0.1364710747622497,0.12988818414435038,0.3775981012558336
7.901,7.61,0.19,0.24896984517489015,0.9993391992214603,0.19794703796906604,0.13749738343206158,0.1280845079817272,0.3773826113895647
7.982,7.67,0.2,0.2475006962079161,0.9996094069141168,0.19515202627992098,0.13854307505598756,0.1262637923294887,0.3771755846922414
8.065,7.72,0.26,0.24600621880543094,0.9998101855285562,0.19234440521941498,0.13960716191600087,0.12442665802997561,0.3769766727477726
8.086,7.78,0.19,0.2444864957871795,0.999940656594053,0.18952499581725443,0.14068866817494052,0.1225737431357617,0.3767855380911469
8.149,7.83,0.17,0.24294162863187896,1.0,0.18669463137465978,0.1417866305548599,0.12070570295205524,0.3766018546968025
8.19,7.89,0.25,0.24137173778636042,0.9999874551166207,0.18385415796000126,0.1429000989989067,0.11882321005471953,0.3764253084512743
8.251,7.94,0.22,0.23977696295357717,0.9999023218675489,0.18100443487095622,0.1440281373158099,0.11692695428297109,0.3762555976090496
8.291,8.0,0.16,0.23815746335851493,0.9997439617523973,0.1781463350605952,0.14516982380597582,0.11501764270582888,0.3760924332305213
8.353,8.05,0.24,0.23651341799106537,0.9995117988172547,0.17528074552486486,0.14632425186813755,0.11309599956141114,0.3759355396008678
8.436,8.11,0.27,0.23484502582495553,0.9992053205708613,0.1724085676490483,0.1474905305854524,0.11116276616820489,0.375784654628635
8.457,8.16,0.19,0.23315250601188142,0.9988240788440566,0.1695307175109669,0.14866778528988725,0.10921870080746517,0.3756395302227668
8.519,8.22,0.24,0.23143609805006202,0.9983676905899576,0.16664812613889946,0.1498551581037205,0.10726457857593706,0.3754999326468468
8.581,8.27,0.31,0.22969606192651484,0.9978358386222789,0.16376173972241695,0.15105180845702748,0.10530119120814722,0.37536564284935786
8.622,8.33,0.26,0.22793267823243754,0.9972282722891969,0.1608725197745564,0.15225691358006221,0.10332934686756975,0.37523645676882666
8.684,8.38,0.24,0.22614624825114757,0.9965448080802113,0.1579814432439482,0.15346966896948347,0.10134986990603277,0.3751121856127797
8.745,8.44,0.34,0.2243370940180824,0.9957853301635318,0.15508950257563325,0.1546892888274159,0.09936360059080535,0.374992656109469
8.829,8.49,0.31,0.22250555835239552,0.9949497908516057,0.15219770571939018,0.15591500647236559,0.09737139479888317,0.374877710731317
8.849,8.55,0.24,0.22065200485970307,0.9940382109924988,0.14930707608447746,0.15714607472102166,0.09537412367807087,0.37476720788901263
8.91,8.6,0.3,0.21877681790554757,0.9930506802849614,0.14641865243980215,0.1583817662399945,0.0933726732745394,0.3746610220951789
8.952,8.66,0.32,0.21688040255916238,0.991987357515093,0.1435334887586758,0.1596213738665673,0.09136794412661585,0.37455904409653895
9.013,8.71,0.22,0.21496318450715457,0.9908484707125482,0.14065265400751045,0.16086421089755923,0.08936085082462662,0.37446118097355463
9.075,8.77,0.28,0.21302560993675945,0.9896343172242337,0.13777723187801502,0.16210961134544996,0.08735232153666544,0.3743673562066064
9.2,8.82,0.32,0.21106814538836322,0.9883452637034904,0.13490832046266998,0.1633569301610024,0.08534329750020914,0.3742775097078998
9.226,8.88,0.28,0.20909127757704438,0.9869817460128273,0.1320470318734852,0.16460554342173023,0.083334732479557,0.3741915978184072
9.265,8.93,0.26,0.20709551318293962,0.9855442690384129,0.12919449180424417,0.1658548484856888,0.08132759218912868,0.3741095932692863
9.286,8.99,0.36,0.2050813786102991,0.9840334064147206,0.1263518390365876,0.16710426411020948,0.07932285368272798,0.37403148510732404
9.347,9.04,0.31,0.2030494197151569,0.9824498001579723,0.1235202248904115,0.16835323053530182,0.07732150470896505,0.373957278584038
9.388,9.1,0.26,0.20100020150160341,0.9807941602072815,0.12070081261914893,0.1696012095315094,0.0753245430331166,0.37388699500814915
9.449,9.15,0.33,0.19893430778670337,0.9790672638727433,0.11789477675058428,0.17084768441204928,0.07333297572579914,0.37382067156122983
9.531,9.21,0.34,0.19685234083415956,0.9772699551900776,0.11510330237395575,0.1720921600090923,0.07134781841892426,0.3737583610764325
9.551,9.26,0.28,0.19475492095687652,0.9754031441818136,0.11232758437423732,0.17333416261405815,0.0693700945294909,0.37370013178033973
9.612,9.32,0.31,0.19264268608863275,0.9734678060254033,0.10956882661462711,0.1745732398818529,0.06740083445185115,0.37364606699814273
9.673,9.37,0.35,0.19051629132512005,0.9714649801290374,0.1068282410683851,0.17580896069907456,0.06544107471917761,0.37359626482249964
9.735,9.43,0.28,0.18837640843466605,0.9693957691163118,0.10410704690127266,0.1770409150163191,0.06349185713495448,0.3735508377465342
9.797,9.48,0.27,0.18622372533901566,0.9672613377212513,0.10140646950593926,0.17826871364483066,0.06155422787540545,0.37350991226152597
9.838,9.54,0.36,0.184058945564624,0.9650629115954982,0.0987277394896807,0.17949198801785526,0.059629236563861696,0.3734736284199111
9.899,9.59,0.3,0.18188278766501073,0.9628017760297068,0.09607209161709437,0.18071038991714541,0.05771793531815958,0.3734421393642809
9.959,9.65,0.25,0.1796959846148287,0.9604792745913705,0.09344076370927523,0.1819235911651167,0.05582137777224174,0.37341561082312796
10.02,9.7,0.31,0.17749928317640393,0.9580968076814286,0.09083499550131613,0.18313128328319997,0.05394061807322649,0.37339422057412763
10.08,9.76,0.32,0.17529344323960266,0.9556558310120835,0.08825602746001336,0.18433317711696548,0.05207670985530549,0.3733781578757754
10.121,9.81,0.22,0.1730792371359815,0.9531578540082847,0.08570509956380935,0.18552900242864223,0.050230705191916074,0.37336762286825853
10.182,9.87,0.28,0.17085744892826477,0.9506044381353902,0.08318345004710234,0.18671850745777788,0.04840365352771728,0.3733628259445398
10.285,9.92,0.29,0.16862887367627613,0.947997195155612,0.08069231411112712,0.18790145845096337,0.04659660059198392,0.3733639870927379
10.305,9.98,0.19,0.16639431668051433,0.9453377853160141,0.07823292260369433,0.18907763916174072,0.04481058729511384,0.37337133521100097
10.346,10.03,0.16,0.16415459270461238,0.9426279154710399,0.07580650067015546,0.19024685032198815,0.04304664861001632,0.373385107396183
10.408,10.09,0.22,0.16191052517795346,0.9398693371427493,0.07341426637803916,0.19140890908622682,0.04130581244021528,0.373405548207738
10.449,10.14,0.13,0.159662945379752,0.9370638445221091,0.0710574293178889,0.1925636484503693,0.03958909847654939,0.37343290890834624
10.51,10.2,0.07,0.15741269160594923,0.9342132724147805,0.06873718918290105,0.19371091664643678,0.03789751704438113,0.37346744668289067
10.571,10.25,0.14,0.15516060832031778,0.9313194941349342,0.06645473432999219,0.19485057651475873,0.036232067943250894,0.373509423837491
10.653,10.31,0.14,0.15290754529122638,0.9283844193506743,0.06421124032494895,0.1959825048551375,0.03459373928093909,0.3735591069803713
10.674,10.36,0.04,0.1506543567155667,0.9254099918847106,0.062007868474367366,0.19710659175842943,0.032983506303926095,0.3736167661864139
10.713,10.42,0.08,0.14840190033138767,0.9223981874739838,0.059845764347166826,0.19822273992000364,0.03140233022628154,0.37368267414733086
10.775,10.47,0.07,0.14615103652081868,0.9193510114920225,0.05772605628856231,0.19933086393659544,0.02985115705907353,0.3737571053094691
10.837,10.53,-0.04,0.14390262740489765,0.9162704966378765,0.05564985392948908,0.20043088958815877,0.028330916442446563,0.3738403350013574
10.877,10.58,-0.04,0.14165753593194952,0.9131587005955395,0.05361824669456453,0.2015227531064415,0.026842520482557173,0.37393263855321585
10.939,10.64,-0.03,0.13941662496118337,0.9100177036678186,0.051632302311728696,0.20260640043215386,0.025386862595580276,0.3740342904107377
11.001,10.69,-0.14,0.13718075634319438,0.906849606388633,0.04969306532672604,0.20368178646272123,0.023964816361003474,0.3741455632454905
11.062,10.75,-0.2,0.1349507899990608,0.9036565271177118,0.04780155562557369,0.20474887429268843,0.022577234386411963,0.37426672706426206
11.123,10.8,-0.15,0.13272758299971466,0.9004405996216304,0.045958766968099043,0.20580763444887687,0.02122494718594289,0.37439804831959267
11.185,10.86,-0.2,0.13051198864724228,0.8972039706450581,0.04416566553555596,0.20685804412237713,0.019908762074553717,0.3745397890236303
11.226,10.91,-0.31,0.1283048555597405,0.8939487974760086,0.04242318849525486,0.2079000863994021,0.018629462080205033,0.3746922058673647
11.288,10.97,-0.27,0.12610702676131927,0.8906772455088118,0.040732242585064124,0.2089337494929931,0.01738780487601941,0.3748555493472288
11.392,11.02,-0.27,0.1239193387788167,0.887391485808459,0.039093702720582275,0.20995902597756042,0.016184521734449786,0.3750300629009957
11.412,11.08,-0.37,0.12174262074678072,0.8840936926798748,0.037508410627747395,0.21097591202823585,0.01502031650545967,0.3752159820548703
11.433,11.13,-0.38,0.11957769352226112,0.8807860412455639,0.03597717350361884,0.21198440666702184,0.013895864620685303,0.37541353358366697
11.495,11.19,-0.37,0.11742536881093517,0.8774707050349819,0.03450076270802414,0.21298451101775012,0.012811812125522798,0.3756229346859485
11.537,11.24,-0.47,0.11528644830604762,0.8741498535889239,0.03307991248871949,0.2139762275718709,0.011768774741054743,0.3758443921759686
11.617,11.3,-0.54,0.11316172284157745,0.870825650082209,0.0317153187426381,0.21495955946708298,0.010767336957688575,0.37607810169421557
11.658,11.35,-0.5,0.11105197156095897,0.8675002489679404,0.0304076378156932,0.2159345097807767,0.00980805116232471,0.3763242469382757
11.761,11.41,-0.56,0.10895796110260143,0.8641757936465966,0.029157485343485695,0.2169010808401641,0.008891436800801027,0.3765829989156272
11.782,11.46,-0.67,0.10688044480336971,0.8608544141631421,0.02796543513514822,0.2178592735508157,0.00801797957727193,0.37685451521985197
11.823,11.52,-0.64,0.10482016192111253,0.8575382249352657,0.02683201810244251,0.21880908674513813,0.007188130692088131,0.3771389393316228
11.907,11.57,-0.66,0.10277783687726373,0.8542293225157283,0.0257577212361246,0.21975051655214684,0.006402306119653961,0.3774363999457084
11.928,11.63,-0.77,0.10075417852050042,0.8509297833916584,0.024742986631511463,0.22068355578972987,0.005660885927644742,0.37774701032518104
11.991,11.68,-0.74,0.09874987941241471,0.8476416618234489,0.02378821056508922,0.22160819338051835,0.004964213638867571,0.3780708676840075
12.052,11.74,-0.71,0.0967656151361395,0.8443669877257671,0.022893742623913832,0.22252441379246218,0.004312595636956669,0.37840805259924387
12.115,11.79,-0.81,0.09480204362885465,0.8411077645931032,0.022059884889478725,0.22343219650520596,0.003706300617006034,0.3787586284540864
12.176,11.85,-0.87,0.09285980453908262,0.8378659674723153,0.021286891177658265,0.22433151550334413,0.0031455590821633777,0.37912264091304665
12.196,11.9,-0.82,0.09093951860966418,0.8346435409847252,0.020574966336258275,0.22522233879758996,0.00263056288713913,0.3795001174304728
12.258,11.96,-0.9,0.08904178708728477,0.8314423974004236,0.019924265601641785,0.22610462797478975,0.002161464829507208,0.3798910667935616
12.32,12.01,-0.95,0.08716719115939237,0.8282644147675066,0.01933489401582016,0.22697833777756232,0.0017383782895766108,0.3802954787009241
12.381,12.07,-0.9,0.08531629141930053,0.8251114350989429,0.01880690590529832,0.22784341571418265,0.0013613769195038635,0.3807133233776728
12.422,12.12,-0.9,0.08348962736021141,0.8219852626196837,0.018340304422872346,0.22869980169915607,0.0010304943822122194,0.38114455122788266
12.483,12.18,-1.0,0.08168771689883053,0.8188876620764742,0.017935041153494313,0.22954742772477038,0.00074572414058867,0.381589092525168
12.544,12.23,-0.95,0.07991105592918193,0.8158203571126931,0.0175910157852339,0.2303862175638228,0.0005070192973489359,0.3820468571420352
12.585,12.29,-0.93,0.07816011790717749,0.8127850287104433,0.01730807584628092,0.23121608650370007,0.00031429248589543693,0.38251773431863073
12.646,12.34,-1.02,0.07643535346645565,0.8097833137020436,0.01708601650887102,0.23203694111200204,0.00016741581242996507,0.38300159247149507
12.708,12.4,-1.02,0.07473719006597233,0.8068168033529937,0.016924580460951195,0.23284867903391163,6.622084951821162e-05,0.3834982790429545
12.749,12.45,-0.95,0.07306603166979753,0.8038870420183919,0.016823457846328174,0.23365118882151586,1.0498681240557867e-05,0.3840076203917795
12.849,12.51,-1.02,0.07142225845953684,0.8009955258746188,0.016782286273979763,0.23444434979522458,0.0,0.3845294217256908
12.869,12.56,-1.1,0.06980622657974711,0.7981437017279222,0.016800650897139186,0.23522803193732034,3.443525499018616e-05,0.38506346707621325
12.931,12.62,-1.05,0.06821826791664985,0.795332965901326,0.016878084562660323,0.23600209581755774,0.00011347485225774644,0.38560951931624293
12.973,12.67,-1.05,0.06665868991036908,0.7925646632010589,0.01701406803103576,0.2367663925506562,0.0002367494062192153,0.3861673202205565
13.056,12.73,-1.14,0.06512777540083749,0.7898400859634479,0.017208030267277748,0.23752076378549258,0.0004038500423977667,0.3867365905693802
13.076,12.78,-1.07,0.06362578250742727,0.7871604731829699,0.017459348802703716,0.2382650417257856,0.0006143287510436601,0.38731703029507786
13.138,12.84,-1.0,0.06215294454228638,0.7845270097219162,0.017767350167542672,0.23899904918202713,0.000867698791211691,0.3879083186719712
13.219,12.89,-1.08,0.060709469957301636,0.7819408256019006,0.018131310394209236,0.23972259965435216,0.0011634351447955325,0.3885101145492917
13.281,12.95,-1.06,0.05929554232455842,0.7794029953772766,0.01855045559103206,0.24043549744598752,0.0015009750199679248,0.38912205662723237
13.301,13.0,-1.01,0.057911320350125146,0.7769145375904172,0.01902396258614993,0.24113753780689678,0.0018797184034514203,0.3897437637759892
13.361,13.06,-1.08,0.05655693792094544,0.7744764143087102,0.019550959641205866,0.24182850710720857,0.002299028661027222,0.3903748353975603
13.425,13.11,-1.13,0.05523250418456786,0.7720895307430361,0.020130527234369477,0.24250818303997054,0.002758233185659032,0.39101485182991397
13.466,13.17,-1.04,0.053938103661375886,0.7697547349474015,0.02076169891210641,0.24317633485270546,0.0032566240925594645,0.3916633747929845
13.526,13.22,-1.06,0.05267379638891093,0.7674728175992575,0.021443462209010247,0.24383272360714986,0.003793458960462226,0.39231994787579794
13.588,13.28,-1.15,0.05143961809781415,0.7652445118598623,0.022174759634904843,0.24447710246643076,0.0043679616182877475,0.39298409706390713
13.651,13.33,-1.06,0.050235580418845134,0.7630704933138431,0.0229544897282873,0.2451092170088428,0.00497932297631988,0.39365533130620306
13.691,13.39,-1.03,0.049061671120374684,0.7609513799869224,0.023781508175016303,0.2457288055673439,0.005626701900953138,0.39433314312004525
13.753,13.44,-1.1,0.047917854375701535,0.7588877324406008,0.02465462899098056,0.2463355995939116,0.006309226132011996,0.3950170092335559
13.814,13.5,-1.09,0.04680407105950437,0.7568800539424588,0.02557262576731317,0.2469293240480037,0.007025993241587267,0.3957063912638491
13.856,13.55,-1.04,0.045720239072709834,0.7549287907106739,0.026534232976575416,0.24750969780852008,0.007776071633293058,0.39640073642989726
13.957,13.61,-1.11,0.04466625369502552,0.7530343322313428,0.02753814733824621,0.24807643410877178,0.008558501580806427,0.3970994782986719
13.977,13.66,-1.15,0.04364198796434056,0.7511970116472376,0.028583029241791506,0.24862924099400807,0.00937229630449876,0.39780203756313715
14.018,13.72,-1.08,0.04264729308213545,0.7494171062166892,0.029667504225513928,0.24916782180105143,0.010216443084902334,0.39850782285061126
14.081,13.77,-1.13,0.0416819988439796,0.7476948378413069,0.03079016450929457,0.24969187565953027,0.011089904411677629,0.39921623155993935
14.122,13.83,-1.19,0.04074591409413572,0.7460303736612045,0.03194957057923024,0.250201098014087,0.011991619166655351,0.3999266507258541
14.183,13.88,-1.11,0.03983882720322891,0.7444238267163326,0.03314425282204669,0.2506951811668056,0.012920503839431394,0.40063845790883484
14.245,13.94,-1.09,0.03896050656788483,0.742875256672402,0.03437271320705135,0.25117381483895873,0.013875453773900003,0.40135102210869417
14.348,13.99,-1.16,0.038110701131194344,0.7413846706097599,0.03563342701329056,0.2516366867510267,0.014855344444018046,0.40206370470006675
14.369,14.05,-1.15,0.0372891409228304,0.7399520238734462,0.036924844599465316,0.2520834832198337,0.01585903275701178,0.40277586038794083
14.41,14.1,-1.09,0.03649553761761872,0.7385772209825481,0.03824539321404427,0.252513889771611,0.016885358382173327,0.4034868381813677
14.473,14.16,-1.15,0.03572958511135516,0.7372601165968962,0.039593478842897795,0.2529275917697909,0.017933145103331393,0.40419598238350285
14.554,14.21,-1.18,0.03499096011265903,0.7360005165390583,0.04096748809165183,0.2533242750563555,0.01900120219300881,0.4049026335961749
14.574,14.27,-1.08,0.03427932274964924,0.7347981788694917,0.04236579009981944,0.2537036266055744,0.020088325806205003,0.4056061297372117
14.636,14.32,-1.12,0.033594317190229865,0.733652815012562,0.04378673848362689,0.25406533518894797,0.021193300391665462,0.4063058070687307
14.678,14.38,-1.17,0.032935572274763084,0.7325640909309915,0.045228673304302115,0.2544090920501137,0.0223149001184212,0.4070010012345458
14.741,14.43,-1.09,0.03230270215988153,0.7315316283461964,0.04668992305843293,0.25473459158840717,0.023451890315310045,0.4076910483047523
14.803,14.49,-1.06,0.03169530697216124,0.730555006001851,0.048168806686858724,0.2550415320496774,0.02460302892112928,0.4083752858254373
14.844,14.54,-1.13,0.03111297347034015,0.7296337609679221,0.049663635598456046,0.2553296162228483,0.025767067943008693,0.4090530538713762
14.906,14.6,-1.04,0.030555275714733196,0.7287673899823035,0.05117271570509379,0.25559855214065097,0.02694275492053914,0.40972369609955034
14.968,14.65,-0.97,0.03002177574247007,0.727955350827108,0.05269434946397263,0.25584805378294234,0.02812883439315218,0.4103865608013375
15.051,14.71,-1.03,0.02951202424717919,0.7271970637366426,0.05422683792353518,0.2560778417810441,0.029324049368216986,0.4110410019512838
15.072,14.76,-1.02,0.02902556126175235,0.7264919128340965,0.05576848276912274,0.2562876441215697,0.03052714278730154,0.4116863802504313
15.113,14.82,-0.91,0.02856191684284055,0.7258392475940235,0.05731758836454607,0.25647719684823994,0.03173685898803878,0.4123220641622078
15.196,14.87,-0.96,0.02812061175575347,0.7252383843277097,0.0588724637857397,0.25664624476017717,0.03295194515903304,0.41294743093887637
15.257,14.93,-0.97,0.02770115815845284,0.7246886076884963,0.060431424842671826,0.25679454210510577,0.034171152785228254,0.4135618676365133
15.277,14.98,-0.88,0.027303060283352963,0.7241891721940477,0.06199279608567253,0.2569218532657665,0.035393239081147825,0.4141647721164177
15.339,15.04,-0.85,0.02692581511566014,0.7237393037624356,0.06355491279235859,0.25702795343768187,0.03661696840940865,0.41475555403075937
15.421,15.09,-0.89,0.02656891306699285,0.7233382012588015,0.06511612293135949,0.2571126292962252,0.03784111368190425,0.4153336357901831
15.441,15.15,-0.77,0.026231838643024415,0.7229850380492708,0.06667478909904918,0.2571756796508218,0.03906445774105027,0.41589845351101973
15.504,15.2,-0.69,0.025914071103895583,0.7226789635587594,0.0682292904254669,0.2572169160840771,0.0402857947185028,0.4164494579397148
15.566,15.26,-0.72,0.025615085116170635,0.722419104829296,0.06977802444560777,0.2572361635736531,0.04150393136879744,0.41698611535210495
15.628,15.31,-0.68,0.025334351395160194,0.7222045680755139,0.07131940893229248,0.25723326109479966,0.04271768837541804,0.4175079084252433
15.69,15.37,-0.55,0.025071337336499105,0.7220344402340101,0.07285188368689137,0.25720806220157494,0.043925901626891126,0.4180143370795827
15.732,15.42,-0.58,0.024825507635941726,0.7219077905033415,0.0743739122842868,0.25716043558491325,0.045127423460594916,0.4185049192894356
15.794,15.48,-0.56,0.02459632489639779,0.7218236718714882,0.07588398376858044,0.2570902656057992,0.04632112387206131,0.41897919185975285
15.836,15.53,-0.43,0.02438325022127482,0.7217811226277157,0.07738061429617384,0.25699745280189296,0.047505891687642195,0.4194367111673555
15.899,15.59,-0.41,0.024185743793225252,0.7217791678558637,0.0788623487229947,0.25688191436600133,0.048680635698511214,0.41987705386481694
15.961,15.64,-0.45,0.024003265437434265,0.7218168209061765,0.08032776213280239,0.25674358459481744,0.049844285754074485,0.4202998175452571
16.023,15.7,-0.34,0.02383527516863061,0.7218930848428642,0.08177546130365933,0.25658241530641457,0.0509957938129736,0.4207046213663755
16.064,15.75,-0.25,0.023681233721062834,0.7220069538646641,0.08320408610982781,0.2563983762250722,0.05213413494998303,0.42109110663214305
16.147,15.81,-0.29,0.02354060306075666,0.7221574146957463,0.08461231085654912,0.2561914553321346,0.05325830831722082,0.4214589373306956
16.167,15.86,-0.23,0.023412846879446874,0.7223434479444218,0.08599884554537608,0.2559616591817641,0.05436733805821075,0.42180780062714734
16.228,15.92,-0.11,0.02329743106965794,0.7225640294272749,0.08736243706795853,0.25570901318065303,0.05546027417347013,0.4221374073102181
16.27,15.97,-0.16,0.023193824180488192,0.7228181314565283,0.08870187032642488,0.2554335618309414,0.05653619333644197,0.4224474921917468
16.333,16.03,-0.14,0.02310149785373175,0.72310472408866,0.09001596927873709,0.2551353689357398,0.05759419965873422,0.4227378144583341
16.395,16.08,-0.01,0.023019927240041836,0.7234227763324977,0.09130359790760725,0.2548145177667825,0.05863342540377591,0.4230081579745154
16.477,16.14,0.01,0.02294859139490837,0.7237712573152051,0.09256366111177136,0.2544711111938126,0.05965303164814426,0.4232583315369946
16.518,16.19,-0.04,0.022886973654289645,0.7241491374047309,0.09379510551862742,0.2541052717753464,0.060652208889957364,0.4234881690795839
16.539,16.25,0.06,0.022834561989804315,0.7245553892874406,0.09499692021744904,0.253717141810509,0.061630177603874334,0.4236975298286004
16.6,16.3,0.1,0.022790849343463343,0.724988988999773,0.09616813741260924,0.25330688335169704,0.06258618874239986,0.42388629840856445
16.661,16.36,0.02,0.02275533394200119,0.7254489169128746,0.0973078329964938,0.25287467817791204,0.06351952418333727,0.4240543848981709
16.722,16.41,0.09,0.022727519590939365,0.7259341586692898,0.09841512704202204,0.2524207277287348,0.0644294971233682,0.42420172483669244
16.764,16.47,0.17,0.02270691594858386,0.7264437060709347,0.09948918421492586,0.25194525299908543,0.06531545241786334,0.42432827918118504
16.929,16.52,0.11,0.022693038780220734,0.7269765579177668,0.10052921410618076,0.2514484943950608,0.06617676686714302,0.42443403421510095
16.949,16.58,0.12,0.02268541019283468,0.7275317207967664,0.10153447148521282,0.25093071155127644,0.06701284944951558,0.4245190014091448
16.971,16.63,0.24,0.022683558850741265,0.7281082098210649,0.10250425647471675,0.2503921831102669,0.06782314150153713,0.4245832172353861
16.991,16.69,0.22,0.02268702017260262,0.7287050493192189,0.10343791464811333,0.2498332064645796,0.06860711684606194,0.42462674293575636
17.054,16.74,0.18,0.022695336510377914,0.7293212734747596,0.1043348370508457,0.24925409746225557,0.06936428186877826,0.42464966424612155
17.116,16.8,0.26,0.02270805731083967,0.7299559269162548,0.1051944601468678,0.2486551900764361,0.0700941755440593,0.4246520910771562
17.179,16.85,0.28,0.02272473926035797,0.7306080652582182,0.10601626569184731,0.2480368360398819,0.07079636941109828,0.42463415715326464
17.26,16.91,0.21,0.02274494641372558,0.7312767555933138,0.1067997805348007,0.24739940444523723,0.07147046750142555,0.4245960196108597
17.28,16.96,0.24,0.02276825030785121,0.7319610769364647,0.10754457635006176,0.24674328131196493,0.07211610621902437,0.42453785855741893
17.321,17.02,0.27,0.022794230061189785,0.7326601206216984,0.10825026930164888,0.2460688691210402,0.07273295417437371,0.4244598765928815
17.381,17.07,0.21,0.02282247245980597,0.7333729906528232,0.10891651964224582,0.24537658631868672,0.07332071197384474,0.4243622982950887
17.441,17.13,0.19,0.02285257203098791,0.7340988040093039,0.10954303124914028,0.2446668667906579,0.07387911196595469,0.42424536967114507
17.503,17.18,0.28,0.022884131105348107,0.7348366909089611,0.11012955109958134,0.24394015930875892,0.07440791794604915,0.4241093575767119
17.543,17.24,0.22,0.02291675986838011,0.7355857950293107,0.11067586868815919,0.24319692695141262,0.07490692482104283,0.42395454910535596
17.625,17.29,0.16,0.02295007640247444,0.73634527368949,0.11118181538894867,0.242437646500088,0.07537595823590573,0.4237812509501204
17.646,17.35,0.23,0.022983706720424543,0.7371142979948082,0.111647263765269,0.24166280781338847,0.07581487416364308,0.42358978873947833
17.707,17.4,0.22,0.023017284791477584,0.7378920529460045,0.11207212682999994,0.24087291318056137,0.07622355846058038,0.4233805063497806
17.749,17.46,0.11,0.023050452560997234,0.7386777375153376,0.11245635725947237,0.24006847665615075,0.07660192638881713,0.42315376519627346
17.809,17.51,0.18,0.023082859964802405,0.7394705646916818,0.11279994656400721,0.23925002337752474,0.07694992210775517,0.422909943504761
17.871,17.57,0.2,0.02311416493923171,0.7402697614968837,0.11310292421822729,0.23841808886706076,0.07726751813664827,0.422649435566
17.932,17.62,0.09,0.02314403342796011,0.7410745689757078,0.11336535675432925,0.237573218320841,0.07755471479015297,0.4223726509749523
17.995,17.68,0.08,0.023172139386565718,0.7418842421617644,0.1135873468215591,0.23671596588578228,0.07781153958888833,0.4220800138570597
18.036,17.73,0.14,0.02319816478581159,0.7426980500218618,0.11376903221518374,0.23584689392717298,0.07803804664704175,0.42177196208371326
18.097,17.79,0.04,0.02322179961457233,0.7435152753812297,0.11391058487829095,0.23496657228858875,0.07823431603907352,0.4214489464790763
18.139,17.84,-0.01,0.023242741883298976,0.7443352148320324,0.1140122098797543,0.23407557754611133,0.07840045314756912,0.42111143002038437
18.243,17.9,0.06,0.023260697628869634,0.7451571786275284,0.11407414437164806,0.23317449225870948,0.07853658799427812,0.42075988703376577
18.263,17.95,-0.0,0.023275380921629528,0.7459804905641438,0.11409665652932083,0.23226390421654783,0.07864287455636096,0.4203948023875204
18.304,18.01,-0.11,0.023286513875368474,0.746804487853605,0.11408004447725772,0.23134440568887513,0.07871949006983885,0.4200166706846797
18.386,18.06,-0.08,0.023293826660914892,0.7476285209871641,0.11402463520376553,0.23041659267304956,0.07876663432221101,0.41962599545657797
18.427,18.12,-0.09,0.02329705752395039,0.748451953593834,0.1139307834674133,0.22948106414619834,0.0787845289361688,0.4192232883590777
18.468,18.17,-0.22,0.02329595280757801,0.7492741622944212,0.11379887069806045,0.22853842132096483,0.07877341664628278,0.4188090683730473
18.55,18.23,-0.22,0.023290266980110542,0.7500945365530404,0.11362930389519137,0.22758926690678596,0.07873356057046749,0.41838386101067854
18.591,18.28,-0.19,0.023279762668473574,0.7509124785276942,0.1134225145261437,0.22663420437816142,0.07866524347794744,0.41794819752922324
18.632,18.34,-0.29,0.02326421069754065,0.7517274029214182,0.11317895742667984,0.2256738372513854,0.0785687670553588,0.41750261415370726
18.735,18.39,-0.34,0.023243390135623546,0.7525387368354192,0.11289910970619256,0.2247087683711931,0.07844445117252578,0.41704765131012783
18.755,18.45,-0.27,0.023217088346244526,0.7533459196255593,0.11258346965966425,0.22373959920873057,0.07829263314936004,0.416583852870543
18.795,18.5,-0.33,0.02318510104622762,0.7541484027634354,0.1122325556883347,0.22276692917216692,0.07811366702524357,0.41611176541133815
18.856,18.56,-0.41,0.023147232370071515,0.7549456497031954,0.11184690523087586,0.2217913549311503,0.07790792283216683,0.41563193748582317
18.92,18.61,-0.36,0.02310329494049923,0.7557371357551179,0.11142707370671504,0.22081346975619817,0.07767578587281046,0.4151449189122046
18.959,18.67,-0.36,0.02305310994503364,0.75652234796688,0.11097363347301362,0.2198338628740103,0.07741765600468434,0.4146512600778739
19.042,18.72,-0.47,0.022996507218422852,0.7573007850133041,0.11048717279669973,0.2188531188395882,0.07713394693136118,0.4141515112608756
19.103,18.78,-0.43,0.022933325330724032,0.7580719570952675,0.10996829484286133,0.2178718169259699,0.07682508550176484,0.4136462219693891
19.164,18.83,-0.4,0.022863411680843364,0.7588353858483766,0.10941761668073137,0.216890530532349,0.07649151101840218,0.41313594030002704
19.186,18.89,-0.48,0.02278662259530652,0.7595906042619714,0.10883576830843877,0.2159098266113124,0.07613367455535296,0.4126212123157468
19.246,18.94,-0.49,0.022702823431997997,0.7603371566090222,0.10822339169762758,0.21493026511590918,0.07575203828675825,0.4121025814441302
19.308,19.0,-0.41,0.022611888688554335,0.7610745983875112,0.1075811398589566,0.21395239846722724,0.07534707482648292,0.4115805878967128
19.349,19.05,-0.46,0.022513702115038184,0.7618024962738883,0.10690967592940798,0.21297677104306154,0.07491926657956892,0.4110557681099177
19.412,19.11,-0.52,0.022408156830466274,0.7625204280891533,0.10620967228226232,0.21200391868810856,0.07446910510603885,0.41052865420801016
19.474,19.16,-0.45,0.022295155442721457,0.7632279827780459,0.10548180966053805,0.21103436824595218,0.07399709049756345,0.40999977348835964
19.557,19.22,-0.43,0.02217461017135603,0.7639247604016967,0.10472677633464926,0.21006863711295215,0.07350373076746959,0.40946964792915996
19.577,19.27,-0.52,0.022046442972783124,0.7646103721439859,0.10394526728499447,0.20910723281402627,0.07298954125452559,0.4089387937196862
19.619,19.33,-0.47,0.021910585667340367,0.7652844403317605,0.10313798341011333,0.20815065260028875,0.07245504404090146,0.40840772081310944
19.68,19.38,-0.44,0.0217669800676884,0.7659465984690402,0.10230563076094482,0.20719938306855287,0.07190076738467101,0.4078769325018673
19.743,19.44,-0.53,0.021615578107985152,0.7665964912853499,0.10144891980161587,0.20625389980277511,0.07132724516719113,0.4073469250155697
19.845,19.49,-0.54,0.021456341973257437,0.7672337747983373,0.1005685646970923,0.2053146670375767,0.07073501635565324,0.4068181871414272
19.866,19.55,-0.46,0.021289244228383263,0.7678581163908293,0.09966528262793256,0.2043821373440088,0.07012462448105704,0.40629119986716444
19.907,19.6,-0.53,0.021114267946101817,0.7684691949024184,0.09873979313231641,0.203456751337697,0.0694966171318028,0.4057664360463362
19.948,19.66,-0.55,0.020931406833469862,0.7690667007355815,0.09779281747545363,0.20253893740942105,0.06885154546303628,0.40524436008588527
20.009,19.71,-0.45,0.020740665356176406,0.7696503359762245,0.09682507804639112,0.20162911147809578,0.068189963721826,0.4047254276556795
20.07,19.77,-0.46,0.02054205886011747,0.770219814528442,0.09583729778215692,0.2007276767660271,0.06751242878821277,0.40421008541964426
20.13,19.82,-0.52,0.020335613689629384,0.7707748622631617,0.09483019961910177,0.1998350235962479,0.06681949973214152,0.40369877078800726
20.192,19.88,-0.44,0.020121367301779634,0.7713152171802367,0.09380450597121948,0.19895152921172177,0.06611173738627442,0.40319191169010626
20.253,19.93,-0.41,0.019899368376131144,0.7718406295834402,0.09276093823516092,0.19807755761623388,0.06538970393469035,0.4026899263671589
20.315,19.99,-0.49,0.01966967691942515,0.7723508622677079,0.09170021632162166,0.19721345943683605,0.06465396251748282,0.4021932231843816
20.336,20.04,-0.48,0.019432364364660216,0.7728456907178772,0.09062305821277143,0.1963595718077589,0.06390507685127261,0.4017022004618488
20.398,20.1,-0.43,0.019187513664067832,0.7733249033181249,0.0895301795453999,0.19551621827573915,0.0631436108656533,0.4012172463234864
20.461,20.15,-0.51,0.018935219375491932,0.7737883015712819,0.0884222932194775,0.19468370872668292,0.062370128355575795,0.4007387385635856
20.523,20.21,-0.53,0.01867558774165948,0.7742357003272238,0.0873001090318249,0.1938623393335292,0.061585192649648506,0.40026704453020534
20.567,20.26,-0.43,0.018408736761794667,0.7746669280195424,0.08616433333452939,0.19305239252511347,0.060789366294289555,0.3998025210247919
20.63,20.32,-0.46,0.01813479625499056,0.7750818269096581,0.08501566871767001,0.19225413697576177,0.059983210753626365,0.39934551421728615
20.671,20.37,-0.53,0.017853907914730457,0.7754802533374274,0.08385481371583424,0.19146782761525952,0.059167286125000815,0.3988963595759326
20.733,20.43,-0.45,0.01756622535394239,0.775862077977152,0.0826824625378294,0.19069370565879054,0.058342150869917335,0.3984553818109509
20.795,20.48,-0.44,0.017271914139981782,0.776227186097738,0.08149930481893153,0.18993199865642013,0.057508361560264974,0.3980228948311835
20.857,20.54,-0.55,0.016971151818965025,0.7765754778255956,0.08030602539498553,0.1891829205616832,0.056666472639633945,0.3975992017128378
20.958,20.59,-0.52,0.016664127928913582,0.7769068684087299,0.07910330409765323,0.18844667181883804,0.055817036199529366,0.39718459467949374
20.978,20.65,-0.48,0.016351044001204136,0.77722128848038,0.0778918155700887,0.18772343946836706,0.05496060177026127,0.3967793550926296
21.018,20.7,-0.55,0.01603211354985398,0.7775186843204913,0.07667222910229773,0.18701339727033953,0.054097716126252464,0.39638375345200855
21.079,20.76,-0.57,0.01570756204819113,0.7777990181133104,0.07544520848538605,0.1863167058452982,0.05322892310545374,0.3959980494053545
21.16,20.81,-0.48,0.0153776268924619,0.7780622681994345,0.07421141188382058,0.18563351283237403,0.052354763442505316,0.3956224917667763
21.181,20.87,-0.55,0.015042557351928852,0.7783084293207001,0.0729714917247452,0.18496395306431884,0.05147577461523916,0.39525731854337126
21.242,20.92,-0.59,0.014702614505013773,0.7785375128563334,0.07172609460331995,0.1843081487590741,0.05059249070407555,0.3949027569693909
21.304,20.98,-0.53,0.014358071161046761,0.7787495470487682,0.07047586120300828,0.18366620972739833,0.04970544226383442,0.3945590235472851
21.345,21.03,-0.51,0.014009211767211163,0.7789445772174952,0.06922142622975556,0.1830382335959471,0.0488151562074538,0.39422632409489383
21.406,21.09,-0.59,0.013656332300317217,0.7791226659592411,0.06796341835908024,0.18242430604504864,0.04792215570107539,0.39390485379804707
21.448,21.14,-0.51,0.013299740143079265,0.779283893332804,0.06670246019517072,0.18182450106029416,0.047026960069927924,0.39359479726785684
21.509,21.2,-0.48,0.012939753944601827,0.7794283570269692,0.06543916824113248,0.18123888119699288,0.04613008471442528,0.3932963286020279
21.549,21.25,-0.56,0.012576703464815183,0.7795561725100603,0.06417415287954903,0.18066749785655187,0.045232041035891214,0.393009611449553
21.611,21.31,-0.59,0.012210929402641605,0.7796674731597909,0.06290801836250128,0.18011039157392783,0.04433333637132327,0.3927347990782067
21.673,21.36,-0.51,0.011842783207717941,0.7797624103721755,0.06164136281014495,0.17956759231542582,0.043434473936609666,0.3924720344442845
21.736,21.42,-0.58,0.011472626875543466,0.7798411536483377,0.06037477821691039,0.17903911978619608,0.04253595277759867,0.392221450264054
21.777,21.47,-0.61,0.011100832725955984,0.7799038906581346,0.05910885046435007,0.17852498374678932,0.04163826772838073,0.3919831690864112
21.839,21.53,-0.5,0.0107277831648703,0.7799508272795928,0.05784415933960671,0.17802518433810452,0.04074190937610067,0.3917573033662326
21.9,21.58,-0.5,0.010353870429254156,0.7799821876132061,0.05658127855843367,0.17753971241401784,0.039847364031582504,0.391543955537903
21.961,21.64,-0.57,0.009979496315360728,0.7799982139701973,0.05532077579168217,0.17706854988093104,0.038955113705029853,0.3913432180884945
22.023,21.69,-0.51,0.009605071890273896,0.7799991668339049,0.05406321269417218,0.17661167004344785,0.03806563608606839,0.39115517363008373
22.043,21.75,-0.48,0.009231017186863472,0.7799853247935589,0.05280914493491567,0.17616903795534467,0.0371794045274216,0.3909798949706981
22.105,21.8,-0.57,0.008857760882298983,0.7799569844497923,0.05155912222777634,0.17574061077491232,0.036296888031534885,0.3908174451834214
22.187,21.86,-0.57,0.008485739960329924,0.7799144602913376,0.05031368836178883,0.175326338123658,0.0354185512394751,0.3906678776732637
22.228,21.91,-0.49,0.008115399357601595,0.7798580845424578,0.049073381230470565,0.17492616244733183,0.034544854421434866,0.3905312362414877
22.29,21.97,-0.56,0.007747191594324215,0.7797882069807721,0.047838732859537506,0.17454001937826666,0.033676253468160465,0.3904075551471593
22.33,22.02,-0.57,0.007381576389634856,0.7797051947252669,0.04661026943246062,0.17416783809805214,0.03281319988259899,0.39029685916576673
22.413,22.08,-0.46,0.007019020261989854,0.7796094319944186,0.04538851131328908,0.17380954169959145,0.03195614077104297,0.390199163644788
22.433,22.13,-0.48,0.006659996114922863,0.7795013198344721,0.04417397306615051,0.17346504754758957,0.03110551883304593,0.39011447455609655
22.516,22.19,-0.54,0.006304982808511051,0.7793812758179726,0.04296716347083966,0.17313426763648987,0.03026177234939337,0.3900427885450881
22.557,22.24,-0.45,0.00595446471691625,0.779249733712687,0.041768585533926296,0.17281710894484836,0.02942533516744527,0.3899840929764018
22.619,22.3,-0.42,0.005608931272399979,0.7791071431210616,0.040578736494863266,0.17251347378511542,0.02859663668321255,0.3899383659760855
22.681,22.35,-0.5,0.005268876496252429,0.778953969090362,0.03939810782663482,0.17222326014780753,0.02777610181957396,0.3899055764700795
22.702,22.41,-0.46,0.0049347985171083585,0.7787906916936528,0.03822718523052911,0.17194636203912747,0.026964151000079713,0.38988568421895137
22.765,22.46,-0.4,0.004607199077157552,0.7786178055817843,0.03706644862464321,0.17168266981121336,0.0261612001178313,0.3898786398488956
22.827,22.52,-0.46,0.0042865830267849155,0.7784358195065786,0.03591637212575827,0.17143207048430842,0.025367660498966705,0.38988438487908705
22.867,22.57,-0.46,0.003973457808188901,0.778245255815464,0.034777424024246946,0.17119444806022446,0.024583938860314347,0.3899028517455502
22.929,22.63,-0.35,0.003668332928524475,0.7780466499178872,0.033650066751684304,0.17096968382653543,0.023810437260817243,0.38993396382171974
22.992,22.68,-0.38,0.003371719423114696,0.7778405497238965,0.03253475684085038,0.17075765665095624,0.023047553046372675,0.38997763543585207
23.033,22.74,-0.44,0.0030841293092824912,0.7776275150553067,0.03143194487783848,0.170558243265337,0.022295678787781156,0.3900337718853902
23.136,22.79,-0.35,0.002806075031377733,0.7774081170298401,0.030342075446022684,0.1703713185386534,0.021555202211561524,0.3901022694483276
23.156,22.85,-0.33,0.002538068897617422,0.777182937418608,0.029265587061704217,0.17019675573831214,0.020826506123458176,0.3901830153915664
23.24,22.9,-0.42,0.002280622509405578,0.7769525679772615,0.028202912101333927,0.1700344267790475,0.02010996832452552,0.39027588797627577
23.26,22.96,-0.37,0.0020342461838375936,0.7767176097511931,0.02715447672027012,0.16988420245871869,0.01940596151972702,0.3903807564603169
23.322,23.01,-0.38,0.001799448370116969,0.7764786723552967,0.02612070076307461,0.16974595268043471,0.01871485321904037,0.3904974810978797
23.363,23.07,-0.45,0.0015767350606251712,0.7762363732290112,0.025101997665391944,0.16961954666058823,0.0180370056311044,0.39062591313656897
23.425,23.12,-0.46,0.0013666091973935659,0.7759913368676137,0.024098774347472027,0.16950485312255148,0.017372775549467746,0.39076589481229634
23.548,23.18,-0.38,0.0011695700747375124,0.7757441940309421,0.023111431099403328,0.16940174047594186,0.016722514231505517,0.39091725934245786
23.568,23.23,-0.43,0.0009861127388383034,0.7754955809308643,0.022140361458142424,0.16931007698143644,0.016086567270063846,0.3910798309179873
23.61,23.29,-0.47,0.0008167273850909285,0.7752461383988751,0.02118595207647436,0.1692297309010909,0.015465274457884788,0.3912534246949259
23.652,23.34,-0.39,0.0006618987540656014,0.7749965110352368,0.020248582584084282,0.16916057063404952,0.014858969644873894,0.39143784678614735
23.715,23.4,-0.39,0.0005221055269640897,0.7747473463410787,0.019328625440969496,0.16910246483745303,0.014267980588298578,0.39163289425383296
23.777,23.45,-0.46,0.0003978197214868829,0.7744992938348562,0.018426445783467662,0.16905528253229607,0.013692628796035602,0.3918383551032664
23.798,23.51,-0.39,0.00028950608906417057,0.7742530041545286,0.017542401263204586,0.16901889319398994,0.013133229363023009,0.3920540082785116
23.88,23.56,-0.37,0.00019762151444664925,0.7740091281467705,0.01667684187930337,0.16899316682743432,0.01259009080112057,0.39227962366055324
23.941,23.62,-0.46,0.00012261441869669684,0.7737683159444986,0.015830109804257426,0.16897797402646897,0.012063514862631842,0.3925149620684973
23.982,23.67,-0.46,6.492416665769023e-05,0.7735312160340315,0.015002539203926218,0.16897318601767336,0.011553796357786554,0.39275977526447065
24.045,23.73,-0.42,2.498048000433248e-05,0.7732984743132795,0.014194456052144568,0.16897867468860756,0.011061222966523513,0.3930138059628884
24.106,23.78,-0.5,3.2028569904491514e-06,0.7730707331424783,0.013406177940461186,0.16899431260068762,0.010586075044939648,0.3932767878447874
24.147,23.84,-0.53,0.0,0.7728486303891049,0.012638013883531855,0.16901997298695096,0.010128625426772193,0.3935484455779521
24.249,23.89,-0.4,1.5769251979675648e-05,0.7726327984687296,0.011890264120681305,0.1690555297349948,0.00968913922027184,0.3938284948435589
24.269,23.95,-0.42,5.089604279808663e-05,0.7724238633836324,0.011163219914141966,0.16910085735535457,0.009267873600814854,0.3941166423700363
24.31,24.0,-0.48,0.00010575334654607222,0.7722224437610503,0.01045716334447188,0.16915583093556333,0.008865077599606261,0.3944125859747904
24.37,24.06,-0.42,0.0001807011507705629,0.7720291498929228,0.00977236710362137,0.16922032608017396,0.008480991888863039,0.39471601461438954
24.412,24.11,-0.4,0.0002760859386291103,0.7718445827790092,0.009109094286084562,0.16929421883714038,0.008115848563931051,0.3950266084437242
24.474,24.17,-0.51,0.00039224018496150816,0.7716693331752179,0.008467598178565319,0.16937738561108606,0.007769870922852437,0.39534403888460246
24.535,24.22,-0.47,0.0005294818672918871,0.7715039806489864,0.007848122048620015,0.16946970306409823,0.007443273243948479,0.39566796870422904
24.617,24.28,-0.43,0.0006881139927903296,0.7713490926435748,0.007250898932810707,0.16957104800476827,0.007136260562018071,0.3959980521040466
24.638,24.33,-0.51,0.000868424142229518,0.7712052235531883,0.006676151424991684,0.1696812972662478,0.006849028443771225,0.3963339348194824
24.7,24.39,-0.53,0.0010706840319622847,0.7710729138109377,0.0061240914654149435,0.1698003275741397,0.006581762763121833,0.3966752542312334
24.804,24.44,-0.44,0.001295149094921034,0.7709526889917253,0.005594920131350264,0.16992801540510713,0.0063346394769690315,0.39702163948875974
24.824,24.5,-0.51,0.001542058081612736,0.7708450589321967,0.005088827429891444,0.17006423683713226,0.006107824402102786,0.3973727116466292
24.844,24.55,-0.55,0.0018116326820477302,0.770750516869886,0.004605992093568156,0.17020886739236996,0.005901472993874974,0.39772808381426894
24.906,24.61,-0.48,0.002104077169500115,0.770669538603652,0.004146581379313984,0.17036178187352838,0.005715730127289512,0.39808736131957007
24.968,24.66,-0.46,0.0024195780669601886,0.7706025816774369,0.003710750871283018,0.1705228541946722,0.005550729881181994,0.3984501418866728
25.031,24.72,-0.56,0.0027583038371135054,0.7705500845893064,0.0032986442879715952,0.17069195720730712,0.005406595326177134,0.398816015828177
25.095,24.77,-0.5,0.0031204045966599083,0.7705124660276516,0.0029103932940786775,0.17086896252262176,0.005283438317135621,0.39918456625196774
25.136,24.83,-0.48,0.003506011855769675,0.770490124136401,0.002546117317541409,0.17105374033083148,0.0051813592908355475,0.3995553692828076
25.177,24.88,-0.56,0.00391523828345522,0.7704834358110877,0.0022059233722119924,0.17124615921865222,0.005100447069664072,0.39992799429883014
25.239,24.94,-0.59,0.00434817749961508,0.770492756027636,0.0018899058866811277,0.17144608598602454,0.00504077867211308,0.4003020041830835
25.34,24.99,-0.52,0.004804903894487499,0.770518417205755,0.0015981465397878261,0.17165338546329464,0.0050024191308831725,0.40067695559027117
25.36,25.05,-0.59,0.005285472476232358,0.7705607286087882,0.0013307141033939201,0.1718679203300859,0.004985421319399483,0.4010523992288128
25.423,25.1,-0.64,0.00578991874733858,0.7706199757817902,0.0010876642930374091,0.17208955093705333,0.004989825787525874,0.4014278801582964
25.465,25.16,-0.55,0.006318258610512379,0.7706964200294797,0.0008690396271006855,0.1723181351316194,0.005015660607244493,0.4018029381023048
25.505,25.21,-0.57,0.006870488304649054,0.7707902979355634,0.000674869295150054,0.17255352808866445,0.005062941229053764,0.40217710777647475
25.566,25.27,-0.65,0.007446584371426525,0.7709018209247563,0.0005051690361167466,0.17279558214701232,0.005131670349825258,0.4025499192315277
25.627,25.32,-0.59,0.008046503652992414,0.7710311748686487,0.00035994102698552386,0.17304414665247067,0.005221837792858761,0.40292089821092475
25.709,25.38,-0.57,0.00867018332115654,0.7711785197364113,0.00023917378266933456,0.17329906780814358,0.005333420400882992,0.4032895665227346
25.729,25.43,-0.67,0.009317540938448844,0.7713439892911881,0.000142842067787961,0.17356018853270558,0.0054663819427526895,0.40365544242529566
25.791,25.49,-0.66,0.00998847455135692,0.7715276908329235,7.090682111425411e-05,0.1738273483273211,0.005620673034590933,0.4040180410262761
25.833,25.54,-0.63,0.010682862816009088,0.7717297049883023,2.3315093485290604e-05,0.17410038315191334,0.005796231076121365,0.4043768746947719
25.895,25.6,-0.71,0.011400565156518409,0.7719500855484208,0.0,0.17437912531150548,0.005992980202920922,0.4047314534861086
25.956,25.65,-0.75,0.012141421956134556,0.7721888593547573,8.806873205393457e-07,0.17466340335336103,0.006210831255292301,0.4050812855790456
26.017,25.71,-0.69,0.012905254781263227,0.7724460262339502,2.586231685658637e-05,0.17495304197562783,0.006449681764412647,0.40542587772508515
26.159,25.76,-0.74,0.01369186663831422,0.7727215589817931,7.483606455847953e-05,0.1752478619481127,0.006709415956365678,0.4057647357095529
26.18,25.82,-0.81,0.01450104226322992,0.7730154033967362,0.00014767913797286515,0.17554768004568852,0.006989904774607062,0.4060973648240478
26.201,25.87,-0.74,0.015332548443429819,0.7733274783630453,0.00024425481112640564,0.17585230899471427,0.007291005921357917,0.40642327034976095
26.241,25.93,-0.74,0.016186134371799513,0.7736576759836205,0.0003644124777273749,0.17616155743273187,0.007612563918373433,0.40674195805105995
26.302,25.98,-0.84,0.01706153203226072,0.7740058617623307,0.0005079877231310226,0.17647522988159717,0.007954410187485671,0.4070529346786525
26.344,26.04,-0.8,0.01795845661638117,0.7743718748355841,0.0006748024154819938,0.17679312673414396,0.008316363151276731,0.4073557084816125
26.468,26.09,-0.77,0.018876606970412872,0.7747555282527633,0.000864664816409688,0.17711504425448393,0.008698228354204435,0.40764978972754295
26.489,26.15,-0.86,0.01981566607208059,0.7751566093050939,0.0010773697116098462,0.17744077459208304,0.009099798604463347,0.4079346912301664
26.51,26.2,-0.88,0.020775301536372248,0.7755748799024681,0.0013126985615817112,0.17777010580981567,0.00952085413681535,0.40820992888366125
26.55,26.26,-0.82,0.021755166149510986,0.7760100769976854,0.0015704196727079995,0.17810282192626578,0.009961162796570196,0.40847502220306003
26.612,26.31,-0.9,0.022754898430220365,0.7764619130574705,0.0018502883887858454,0.17843870297256614,0.010420480244837337,0.40872949486998567
26.674,26.37,-0.94,0.02377412321732437,0.7769300765794551,0.0021520473030483904,0.17877752506401967,0.010898550185098391,0.4089728752829251
26.716,26.42,-0.89,0.024812452282648428,0.777414232654114,0.0024754264906459928,0.1791190604866435,0.011395104611076765,0.4092046971111486
26.817,26.48,-0.87,0.025869484968109716,0.7779140235704012,0.002820143761503007,0.1794630777986264,0.011909864075808635,0.40942449985128204
26.838,26.53,-0.96,0.02694480884580932,0.7784290694635958,0.003185904933427319,0.17980934194652498,0.01244253798174771,0.40963182938547255
26.878,26.59,-0.91,0.028038000399862914,0.7789589690036642,0.0035724041253116776,0.18015761439591255,0.012992824891673417,0.40982623854004097
26.938,26.64,-0.89,0.029148625728627853,0.7795033001223087,0.003979324070223356,0.18050765327614895,0.01356041286012455,0.41000728764347755
27.0,26.7,-0.97,0.03027624126590963,0.7800616207767902,0.004406336448131569,0.18085921353894413,0.014144979785033502,0.4101745450826071
27.062,26.75,-0.98,0.031420394519657883,0.7806334697485573,0.004853102237947445,0.18121204713042832,0.01474619377918227,0.4103275878557424
27.104,26.81,-0.91,0.03258062482659823,0.7812183674746607,0.005319272088449132,0.1815659031764842,0.015363713561043317,0.41046600212163314
27.188,26.86,-0.99,0.03375646412119341,0.7818158169098498,0.005804486707578227,0.18192052818107157,0.015997188864503038,0.4105893837429987
27.248,26.92,-1.03,0.034947437717277804,0.7824253044171544,0.006308377269535207,0.18227566623716862,0.016646260866892765,0.4106973388234137
27.269,26.97,-0.92,0.03615306510065625,0.7830463006846506,0.006830565839053411,0.1826310592497947,0.017310562634680737,0.4107894842362776
27.372,27.03,-0.92,0.03737286073091125,0.7836782616660116,0.007370665812213981,0.1829864471703823,0.017989719586109065,0.4108654481445559
27.393,27.08,-1.01,0.03860633485061585,0.7843206295423382,0.007928282373164532,0.18334156824157483,0.018683349969990527,0.4109248705099669
27.456,27.14,-0.92,0.039852994300110176,0.7849728337027196,0.008503012966104003,0.18369615925140215,0.019391065359828596,0.4109674035902988
27.498,27.19,-0.89,0.04111234333598083,0.7856342917409587,0.009094447781912013,0.18404995579572414,0.020112471162394636,0.4109927124235874
27.559,27.25,-0.97,0.042383884451391476,0.7863044104658974,0.009702170258826269,0.18440269254781372,0.02084716713987318,0.41100047529795464
27.601,27.3,-0.95,0.04366711919643986,0.7869825869227981,0.01032575759656225,0.18475410353397756,0.021594747944659168,0.4109903842059905
27.662,27.36,-0.89,0.044961548996748264,0.7876682094232647,0.010964781283205657,0.18510392241420892,0.022354803665866157,0.4109621452826119
27.723,27.41,-0.98,0.04626667596852797,0.7883606585812273,0.011618807634112901,0.18545188276699148,0.0231269203865717,0.41091547922536337
27.783,27.47,-1.01,0.04758200372837955,0.7890593083525673,0.012287398341939456,0.18579771837747996,0.0239106807507795,0.4108501216961577
27.825,27.52,-0.9,0.048907038196102,0.7897635270760075,0.012970111036810854,0.18614116352833718,0.024705664539020216,0.4107658237034927
27.907,27.58,-0.92,0.050241288388790474,0.7904726785129154,0.01366649985557614,0.18648195329248093,0.025511449251445485,0.4106623519642127
27.928,27.63,-0.96,0.05158426720450411,0.7911861228836582,0.01437611601904653,0.1868198238269223,0.026327610697198293,0.41053948924392475
27.989,27.69,-0.88,0.052935492193789985,0.791903217898138,0.015098508416098336,0.18715451266681435,0.02715372358878987,0.4103970346751949
28.051,27.74,-0.84,0.05429448631736554,0.7926233197781142,0.015833224193518035,0.18748575901878728,0.02798936214018914,0.4102348040526404
28.112,27.8,-0.92,0.05566077868829693,0.7933457842689092,0.016579809350476073,0.18781330405261465,0.028834100667318608,0.4100526301040487
28.154,27.85,-0.86,0.05703390529705259,0.7940699676380953,0.017337809336498287,0.18813689119027724,0.029687514189644423,0.40985036273671327
28.215,27.91,-0.78,0.058413409717860756,0.7947952276588016,0.01810676965175952,0.18845626639157184,0.030549179031548645,0.4096278692582674
28.297,27.96,-0.84,0.0597988437948529,0.7955209245753478,0.018886236448485864,0.1887711784355086,0.031418673422169606,0.40938503457139963
28.318,28.02,-0.86,0.061189768306526914,0.7962464220490115,0.01967575713220411,0.18908137919683363,0.032295578092391274,0.4091217613419386
28.38,28.07,-0.77,0.06258575360711958,0.7969710880818486,0.020474880961511805,0.18938662391710157,0.033179476867661505,0.4088379701398517
28.421,28.13,-0.79,0.06398638024354038,0.7976942959165616,0.021283159644970143,0.18968667146977594,0.03406995725531686,0.4085335995527251
28.483,28.18,-0.81,0.0653912395465809,0.7984154249104386,0.02210014793364968,0.18998128461884278,0.03496661102507488,0.4082086062712942
28.543,28.24,-0.7,0.06679993419517095,0.7991338613813966,0.022925404207794535,0.19027023027039414,0.035869034781337336,0.40786296514659126
28.626,28.29,-0.67,0.0682120787525104,0.7998489994241744,0.023758491056053075,0.19055327971657512,0.03677683052594358,0.407496669218269
28.71,28.35,-0.72,0.06962730017297004,0.8005602416947674,0.02459897584574483,0.1908302088712233,0.03768960621002485,0.4071097297136837
28.73,28.4,-0.64,0.07104523827872562,0.8012670001612903,0.025446431282658773,0.19110079849653458,0.03860697627364328,0.40670217601738345
28.77,28.46,-0.58,0.0724655462051661,0.8019686968196251,0.026300435958889368,0.19136483442019153,0.039528562171950575,0.4062740556107243
28.812,28.51,-0.64,0.07388789081419944,0.8026647643723877,0.02716057488722444,0.19162210774254732,0.0404539928866559,0.4058254339814381
28.874,28.57,-0.63,0.07531195307466611,0.8033546468699697,0.028026440020587233,0.1918724150336506,0.04138290542164337,0.4053563945030788
28.916,28.62,-0.53,0.07673742840915852,0.8040378003126005,0.02889763075503223,0.19211555852005383,0.042314945281626874,0.4048670382843575
29.019,28.68,-0.59,0.07816402700663694,0.804713693212555,0.0297737544148382,0.19235134626138098,0.04324976693276605,0.4043574839884488
29.039,28.73,-0.64,0.07959147410031447,0.805381807115763,0.03065442671833363,0.19257959231650354,0.04418703424418732,0.4038278676223956
29.1,28.79,-0.53,0.08101951021035927,0.8060416370821869,0.03153927222319017,0.19280011689896076,0.045126420909370184,0.4032783422967736
29.141,28.84,-0.5,0.08244789135103438,0.8066926921244141,0.032427924750008164,0.19301274652106484,0.0460676108463704,0.40270907795580363
29.203,28.9,-0.56,0.08387638920196996,0.8073344956039723,0.03332002778307385,0.19321731412602414,0.04701029857585594,0.40212026107817034
29.265,28.95,-0.45,0.08530479124333905,0.8079665855849859,0.03421523484719069,0.19341365920744036,0.04795418957594503,0.4015120943489205
29.306,29.01,-0.38,0.08673290085479064,0.8085885151449411,0.03511320985951961,0.19360162791564126,0.048899000612877656,0.400884796302928
29.389,29.06,-0.43,0.08816053737808713,0.8091998526425241,0.036013627455429346,0.19378107315044543,0.0498444600466142,0.40023860094053393
29.409,29.12,-0.4,0.08958753614348827,0.8098001819427225,0.036916173287439534,0.19395185464011178,0.05079030811053279,0.3995737573160846
29.472,29.17,-0.31,0.09101374846001806,0.8103891025996242,0.03782054429640174,0.19411383900640325,0.05173629716448843,0.398890529100173
29.535,29.23,-0.37,0.09243904156984756,0.810966229997558,0.038726448954132645,0.19426689981583473,0.05268219192058668,0.39818919411644776
29.576,29.28,-0.38,0.09386329856712453,0.8115311954513817,0.03963360747679297,0.19441091761725526,0.053627769641097535,0.39747004385390156
29.638,29.34,-0.3,0.0952864182816754,0.8120836462668243,0.040541752008403764,0.19454577996592848,0.05457282030799696,0.39673338295557303
29.698,29.39,-0.29,0.09670831512809044,0.8126232457618262,0.04145062677401042,0.19467138143422,0.05551714676367536,0.3959795286846035
29.761,29.45,-0.34,0.09812891892077226,0.8131496732498235,0.04235998820211982,0.1947876236089203,0.05646056482239542,0.39520881036859756
29.802,29.5,-0.23,0.09954817465557968,0.8136626239859045,0.04326960501611554,0.19489441507519845,0.057402903352125695,0.3944215688232876
29.864,29.56,-0.18,0.10096604225875994,0.8141618090767521,0.04417925829445215,0.1949916713871981,0.058344004326432525,0.39361815575657005
29.925,29.61,-0.23,0.10238249630394133,0.8146469553552794,0.045088741499562754,0.19507931502532003,0.059283722846179374,0.3927989331540856
29.966,29.67,-0.18,0.10379752569804908,0.8151178052208962,0.045997860475565026,0.1951572753402983,0.0602219271308655,0.39196427264762573
30.028,29.72,-0.1,0.10521113333710007,0.8155741164464153,0.04690643341499909,0.19522548848425006,0.06115849847953802,0.3911145548677275
30.129,29.78,-0.18,0.10662333573291044,0.8160156619527175,0.04781429079497964,0.1952838973289263,0.06209333120131453,0.3902501687818837
30.15,29.83,-0.19,0.10803416261180779,0.8164422295524345,0.04872127528325944,0.1953324513714125,0.06302633251564733,0.38937151101984624
30.191,29.89,-0.09,0.10944365648647836,0.8168536216640729,0.04962724161477164,0.1953711066275453,0.06395742242254339,0.38847898518752466
30.253,29.94,-0.11,0.11085187220211135,0.8172496549981527,0.0505320564392569,0.19539982551330318,0.0648865335430201,0.38757300117097265
30.295,30.0,-0.17,0.11225887645802929,0.8176301602170419,0.05143559814060851,0.19541857671441215,0.0658136109301237,0.3866539744319408
30.377,30.05,-0.06,0.1136647473060145,0.8179949815702298,0.0523377566285929,0.1954273350444052,0.06673861185088381,0.3857223252964328
30.398,30.11,-0.03,0.11506957362656763,0.8183439765067896,0.05323843310365621,0.19542608129138347,0.06766150553963596,0.3847784782376533
30.499,30.16,-0.1,0.11647345458436546,0.8186770152667528,0.05413753979560784,0.19541480205374162,0.0685822729232094,0.3838228611547081
30.52,30.22,-0.05,0.11787649906422222,0.8189939804531016,0.055034999677052394,0.1953934895651682,0.06950090631855292,0.38285590464842884
30.582,30.27,0.02,0.11927882508889473,0.8192947665861066,0.05593074615251238,0.19536214150931525,0.07041740910345821,0.3818780412957231
30.624,30.33,-0.05,0.12068055922010996,0.8195792796417893,0.05682472272425025,0.1953207608246098,0.07133179536112128,0.38088970492389795
30.686,30.38,-0.07,0.12208183594422702,0.8198474365763317,0.05771688263584511,0.1952693554997611,0.07224408949935296,0.3798913298864566
30.728,30.44,0.02,0.12348279704397677,0.8200991648383005,0.05860718849459594,0.1952079383606204,0.07315432584531714,0.3788833503418795
30.789,30.49,-0.04,0.12488359095775375,0.8203344018705394,0.059495611873828444,0.195136526849141,0.07406254821673584,0.3778661995368653
30.85,30.55,-0.1,0.12628437212796012,0.8205530946035278,0.0603821328961855,0.19505514279524358,0.0749688094705479,0.37684030909545624
30.912,30.6,-0.02,0.1276853003399179,0.8207551989419043,0.06126673979898006,0.19496381218239836,0.07587317103004414,0.37580610831543176
30.973,30.66,0.01,0.12908654005287806,0.8209406792457488,0.06214942848271478,0.19486256490768503,0.07677570239153174,0.37476402347332577
31.034,30.71,-0.07,0.13048825972467035,0.8211095078080796,0.06303020204393359,0.19475143453700366,0.07767648061159964,0.3737144771394498
31.076,30.77,-0.02,0.13189063113154645,0.8212616643299442,0.06390907029363739,0.19463045805606471,0.07857558977607937,0.37265788750435835
31.138,30.82,0.06,0.13329382868477668,0.8213971353944575,0.06478604926255643,0.19449967561781098,0.07947312045183831,0.37159466771825367
31.261,30.88,-0.01,0.1346980287455645,0.8215159139411747,0.06566116069462728,0.19435913028700866,0.08036916912259577,0.37052522524486775
31.282,30.93,-0.02,0.1361034089398437,0.8216179987422587,0.06653443153004894,0.19420886778286126,0.0812638376100114,0.3694499612313984
31.303,30.99,0.1,0.1375101474745217,0.8217033938819629,0.06740589337929184,0.1940489362206205,0.08215723248136117,0.3683692698960549
31.344,31.04,0.04,0.1389184224567298,0.821772108240969,0.06827558198944744,0.19387938585321926,0.08304946444518424,0.36728353793469715
31.408,31.1,-0.03,0.1403284112176345,0.82182415498706,0.06914353670432394,0.19370026881393068,0.0839406477363449,0.36619314394790864
31.448,31.15,0.03,0.14174028964233476,0.8218595510735093,0.0700097999197128,0.19351163886099837,0.08483089949201729,0.365098457889638
31.508,31.21,0.03,0.14315423150733336,0.8218783167464261,0.07087441653527331,0.1933135511250925,0.0857203391201553,0.3639998405383132
31.59,31.26,-0.06,0.14457040782701938,0.8218804750621359,0.07173743340451218,0.19310606186034535,0.08660908766204194,0.3628976429911678
31.611,31.32,-0.01,0.14598898621054,0.8218660514155458,0.07259889878433819,0.19288922819966597,0.0874972671505228,0.36179220618244473
31.694,31.37,0.02,0.1474101302303866,0.8218350730803387,0.0734588617856588,0.19266310791504956,0.0883849999655338,0.36068386042612494
31.736,31.43,-0.05,0.1488339988039769,0.8217875687617724,0.07431737182647516,0.19242775918365138,0.08927240818853649,0.3595729249838336
31.798,31.48,-0.08,0.15026074558947444,0.8217235681628359,0.0751744780889113,0.19218324036046716,0.0901596129574742,0.3584597076585845
31.839,31.54,-0.01,0.15169051839704367,0.8216431015645175,0.07603022898158805,0.19192960975851805,0.09104673382386602,0.35734450441499555
31.901,31.59,-0.08,0.15312345861669463,0.8215461994209365,0.07688467160873104,0.19166692543742572,0.09193388811365395,0.35622759902654016
31.963,31.65,-0.15,0.1545597006638245,0.82143289197006,0.07773785124738071,0.19139524500117291,0.09282119029340687,0.35510926275030447
32.025,31.7,-0.09,0.15599937144351717,0.8213032088606502,0.07858981083403957,0.1911146254057203,0.09370875134346457,0.3539897540296
32.066,31.76,-0.08,0.15744258983462214,0.8211571787959876,0.07944059046206746,0.19082512277699898,0.09459667813957862,0.35286931822465545
32.129,31.81,-0.17,0.15888946619458344,0.8209948291947743,0.08029022689111964,0.19052679223965266,0.09548507284456555,0.35174818737151486
32.191,31.87,-0.11,0.1603401018859184,0.8208161858695507,0.08113875306987663,0.19021968775682635,0.09637403231145035,0.3506265799692091
32.232,31.92,-0.08,0.1617945888251579,0.8206212727229099,0.08198619767324532,0.18990386198129675,0.09726364749955227,0.34950470079523266
32.336,31.98,-0.16,0.16325300905497753,0.8204101114617669,0.08283258465514992,0.1895793661182856,0.09815400290494827,0.34838274074935516
32.356,32.03,-0.19,0.16471543434018598,0.8201827213299021,0.08367793281797538,0.18924624980036386,0.09904517600673558,0.3472608767258182
32.397,32.09,-0.12,0.1661819257881959,0.8199391188589481,0.08452225539968569,0.1889045609749193,0.09993723673050407,0.3461392715139733
32.479,32.14,-0.21,0.16765253349458226,0.8196793176379318,0.08536555967961829,0.18855434580466668,0.10083024693040998,0.34501807372738014
32.5,32.2,-0.28,0.1691272962143201,0.8194033281014461,0.0862078466039366,0.18819564858160184,0.10172425989120096,0.34389741776132177
32.541,32.25,-0.23,0.17060624105927416,0.8191111573365171,0.08704911043169426,0.1878285116546675,0.10261931985148745,0.3427774237785906
32.606,32.31,-0.24,0.17208938322249,0.8188028089082309,0.08788933840242745,0.18745297537122152,0.10351546154948497,0.3416581977232676
32.707,32.36,-0.35,0.17357672572979913,0.8184782827041797,0.08872851042612445,0.18706907803223105,0.10441270979236437,0.3405398313621131
32.727,32.42,-0.28,0.17506825921920174,0.8181375747977727,0.0895665987963029,0.18667685586101163,0.10531107905025436,0.33942240235313026
32.789,32.47,-0.26,0.17656396174842176,0.8177806773304568,0.0904035679268044,0.1862763429852812,0.10621057307585505,0.33830597434084114
32.851,32.53,-0.34,0.1780637986309603,0.817407578412888,0.09123937411282863,0.1858675714322746,0.10711118455054386,0.3371905970778222
32.892,32.58,-0.35,0.17956772230090368,0.8170182620451152,0.09207396531665894,0.18545057113666888,0.1080128947577862,0.33607630657206583
32.975,32.64,-0.27,0.1810756722066805,0.816612708055883,0.09290728097847457,0.1850253699611032,0.10891567328460622,0.3349631252597384
33.016,32.69,-0.35,0.18258757473391454,0.8161908920612133,0.09373925185259945,0.18459199372908264,0.1098194777518153,0.3338510622028893
33.058,32.75,-0.39,0.18410334315747026,0.8157527854424571,0.09456979986947928,0.18415046627002962,0.11072425357363214,0.33274011331163633
33.118,32.8,-0.3,0.1856228776227401,0.8152983553440226,0.0953988380236018,0.18370080947618353,0.11162993374726377,0.3316302615902813
33.159,32.86,-0.32,0.1871460651561766,0.8148275646909281,0.09622627028751118,0.18324304337095187,0.11253643867295428,0.330521477406708
33.22,32.91,-0.41,0.18867277970502905,0.8143403722262016,0.0970519915520117,0.1827771861881951,0.11344367600494111,0.3294137187843286
33.282,32.97,-0.35,0.1902028822061897,0.8138367325679982,0.09787588759259046,0.18230325446185952,0.11435154053369713,0.32830693171578407
33.344,33.02,-0.31,0.19173622068399607,0.8133165962861425,0.09869783506202338,0.1818212631253484,0.11525991409978056,0.3272010504975674
33.427,33.08,-0.38,0.19327263037677972,0.8127799099976717,0.0995177015090737,0.18133122562003506,0.11616866553955157,0.3260959980847387
33.448,33.13,-0.39,0.19481193389189497,0.8122266164808659,0.10033534542313567,0.1808331540123687,0.11707765066294791,0.3249916864649162
33.49,33.19,-0.32,0.1963539413889164,0.8116566548072592,0.10115061630462978,0.1803270591191032,0.11798671226345517,0.3238880170507314
33.551,33.24,-0.4,0.1978984507906518,0.8110699604911781,0.10196335476093438,0.17981295064023273,0.11889568016035579,0.3227848810899117
33.612,33.3,-0.43,0.19944524802157312,0.8104664656564559,0.10277339262762242,0.17929083729923048,0.11980437127328024,0.32168216009213424
33.653,33.35,-0.33,0.20099410727321565,0.809846099220042,0.10358055311473184,0.1787607269901768,0.12071258972901398,0.3205797262717594
33.715,33.41,-0.35,0.20254479129604475,0.8092087870921991,0.10438465097774119,0.17822262693132676,0.12162012700043862,0.319477443005526
33.798,33.46,-0.42,0.20409705171724074,0.8085544523928858,0.10518549271285273,0.17767654382462708,0.12252676207740686,0.31837516530427257
33.839,33.52,-0.34,0.20565062938380438,0.8078830156837831,0.10598287677611745,0.1771224840206764,0.12343226166928785,0.3172727402977372
33.88,33.57,-0.31,0.20720525473034124,0.8071943952153194,0.10677659382590124,0.17656045368862106,0.1243363804388715,0.3161700077314722
33.943,33.63,-0.38,0.20876064817083873,0.8064885071879673,0.10756642698819704,0.1759904589904838,0.1252388612672756,0.3150668004749058
34.005,33.68,-0.35,0.21031652051370694,0.805765266027054,0.10835215214428948,0.1754125062594652,0.12613943554945117,0.3139629450396002
34.047,33.74,-0.28,0.21187257339931234,0.8050245846703143,0.10913353824026654,0.17482660218182558,0.12703782351984164,0.3128582621067491
34.109,33.79,-0.35,0.2134284997591975,0.8042663748673858,0.10991034761784693,0.17423275398200563,0.12793373460771118,0.3117525670629504
34.171,33.85,-0.37,0.21498398429614957,0.8034905474904444,0.11068233636594113,0.17363096961066254,0.12882686782161362,0.3106456705432864
34.21,33.9,-0.26,0.2165387039842471,0.8026970128551667,0.1114492546922935,0.17302125793529632,0.12971691216243056,0.3095373789807398
34.292,33.96,-0.28,0.21809232858799335,0.8018856810511819,0.11221084731448623,0.17240362893309616,0.13060354706436098,0.30842749516096174
34.332,34.01,-0.35,0.21964452119962308,0.8010564622811124,0.11296685386953635,0.1717780938855667,0.13148644286319536,0.3073158187813986
34.394,34.07,-0.26,0.2211949387936477,0.8002092672072626,0.11371700934127155,0.17114466557444932,0.13236526129116694,0.3062021470137631
34.414,34.12,-0.23,0.2227432327976835,0.7993440073049358,0.11446104450464466,0.17050335847842227,0.1332396559976472,0.3050862750688068
34.475,34.18,-0.33,0.22428904967859706,0.7984605952212926,0.11519868638615781,0.1698541889700378,0.1341092730949208,0.30396799676234415
34.537,34.23,-0.31,0.2258320315429923,0.7975589451385978,0.11592965873958126,0.16919717551235486,0.13497375172823697,0.302847105081506
34.597,34.29,-0.24,0.22737181675104373,0.7966389731406837,0.1166536825361551,0.16853233885476712,0.13583272466929375,0.30172339275023247
34.638,34.34,-0.31,0.22890804054265285,0.7957005975814826,0.11737047646845118,0.16785970222757043,0.1366858189322588,0.30059665279305137
34.7,34.4,-0.32,0.23044033567485936,0.794743739454535,0.11807975746702566,0.16717929153485556,0.1375326564113657,0.29946667909622326
34.762,34.45,-0.22,0.23196833306938672,0.7937683227624389,0.1187812412289124,0.1664911355453345,0.13837285453905626,0.2983332669653581
34.805,34.51,-0.28,0.23349166246915817,0.7927742748852464,0.11947464275694542,0.165795266080679,0.1392060269635782,0.29719621367860755
34.907,34.56,-0.33,0.23500995310258063,0.7917615269468292,0.1201596769088666,0.16509171820085994,0.1400317842448876,0.2960553190345489
34.927,34.62,-0.25,0.23652283435435761,0.7907300141782737,0.12083605895515757,0.16438053038589237,0.14084973456765235,0.2949103858938968
34.968,34.67,-0.23,0.23802993644155404,0.7896796762774236,0.12150350514454353,0.16366174471333456,0.1416594844700983,0.29376122071420874
35.029,34.73,-0.3,0.23953089109360695,0.7886104577637522,0.12216173327615128,0.16293540703086656,0.14246063958737884,0.29260763407681534
35.132,34.78,-0.26,0.24102533223496322,0.7875223083277793,0.12281046327734321,0.1622015671232982,0.14325280540808824,0.2914494412052852
35.154,34.84,-0.19,0.24251289666902753,0.786415183174275,0.12344941778628853,0.16146027887341327,0.14403558804249358,0.29028646247479917
35.193,34.89,-0.26,0.24399322476211124,0.7852890433585237,0.12407832273837716,0.16071160041610513,0.14480859500101853,0.2891185239118557
35.254,34.95,-0.24,0.2454659611260644,0.7841438561149788,0.1246969079555873,0.15995559428529013,0.14557143598146535,0.28794545768374497
35.337,35.0,-0.11,0.2469307552982614,0.782979595177698,0.12530490773787398,0.1591923275531209,0.14632372366342125,0.2867671025772076
35.378,35.06,-0.13,0.24838726241760084,0.7817962410919553,0.12590206145556762,0.15842187196106555,0.14706507450826045,0.28558330446563945
35.439,35.11,-0.16,0.24983514389518352,0.7805937815164027,0.12648811414167618,0.15764430404250018,0.14779510956313352,0.28439391676414777
35.48,35.17,-0.06,0.25127406807834546,0.779372211515104,0.1270628170828812,0.15685970523659037,0.14851345526734516,0.2831988008717126
35.541,35.22,-0.01,0.2527037109067561,0.7781315338387117,0.12762592840795703,0.15606816199335333,0.14921974425955117,0.28199782659967065
35.645,35.28,-0.09,0.2541237565593329,0.7768717591940163,0.12817721367234675,0.15526976586985636,0.1499136161842397,0.2807908725857511
35.706,35.33,-0.03,0.2555338980907662,0.7755929065011055,0.12871644643766023,0.15446461361757127,0.15059471849598885,0.2795778266929726
35.727,35.39,0.03,0.25693383805648734,0.774295003137426,0.1292434088449183,0.1536528072609818,0.15126270726002375,0.27835858639280464
35.767,35.44,-0.04,0.2583232891249592,0.7729780851681395,0.12975789218044703,0.15283445416760444,0.15191724794761563,0.27713305913210967
35.829,35.5,-0.04,0.2597019746762064,0.7716421975622567,0.13025969743338864,0.15200966710961655,0.15255801622486873,0.2759011626834787
35.85,35.55,0.08,0.26106962938554057,0.7702873943941352,0.13074863584381785,0.1511785643172963,0.15318469873344207,0.27466282547862586
35.91,35.61,0.05,0.2624259997914658,0.768913739029961,0.13122452944045598,0.150341269524434,0.15379699386174678,0.2734179869245057
35.992,35.66,0.04,0.2637708448467728,0.7675213042988452,0.13168721156696567,0.14949791200578064,0.15439461250515552,0.2721665977017941
36.013,35.72,0.14,0.26510393645184555,0.7661101726481475,0.13213652739579593,0.14864862660649497,0.15497727881376888,0.2709086200453296
36.075,35.77,0.17,0.26642505996923677,0.7646804362826211,0.13257233442855543,0.14779355376344933,0.1555447309263167,0.2696440280060684
36.137,35.83,0.12,0.2677340147186106,0.7632321972869612,0.13299450298192997,0.1469328395181785,0.15609672168881153,0.2683728076940957
36.178,35.88,0.19,0.2690306144511949,0.761765567731362,0.1334029166582036,0.14606663552124818,0.15663301935662372,0.2670949575022734
36.241,35.94,0.26,0.2703146878029378,0.7602806697597436,0.13379747279949458,0.14519509902786945,0.1571534082787052,0.2658104883101644
36.303,35.99,0.22,0.27158607872561313,0.7587776356603786,0.13417808292488242,0.14431839288465215,0.157657689562747,0.26451942366795217
36.367,36.05,0.22,0.27284464689517507,0.7572566079187208,0.1345446731496572,0.14343668550745894,0.15814568172010782,0.263221799960149
36.408,36.1,0.3,0.27409026809670733,0.755717739252319,0.13489718458594774,0.1425501508503938,0.15861722128940764,0.26191766654891113
36.47,36.16,0.25,0.27532283458536233,0.7541611926277396,0.1352355737240016,0.14165896836598546,0.1590721634377365,0.26060708589675124
36.533,36.21,0.19,0.2765422554227243,0.7525871412594429,0.1355598127933909,0.14076332295661256,0.1595103825384685,0.2592901336683903
36.575,36.27,0.28,0.27774845678806387,0.7509957685905467,0.13586989010339445,0.1398634049171905,0.1599317727246976,0.2579668988114398
36.657,36.32,0.32,0.27894138226398163,0.7493872682553723,0.1361658103617962,0.13895940986911348,0.1603362484173248,0.2566374836155921
36.697,36.38,0.24,0.280120993095973,0.7477618440236306,0.13644759497135722,0.13805153868542808,0.16072374482682128,0.25530200375005885
36.739,36.43,0.33,0.28128726842547674,0.7461197097261122,0.13671528230324353,0.1371399974072463,0.16109421842770089,0.25396058827912266
36.801,36.49,0.39,0.2824402054960038,0.7444610891617857,0.1369689279467375,0.1362249971514794,0.16144764740475967,0.2526133796558078
36.843,36.54,0.33,0.283579819831988,0.7427862159862918,0.13720860493462764,0.13530675401005038,0.16178403207018527,0.25126053369382123
36.905,36.6,0.35,0.28470614539004796,0.741095333581909,0.13743440394373127,0.1343854889408228,0.16210339525068668,0.24990221951803437
36.947,36.65,0.46,0.28581923468240755,0.7393886949091681,0.13764643347005504,0.13346142765055874,0.16240578264385688,0.24853861949384187
37.028,36.71,0.4,0.2869191588722912,0.737666562340364,0.1378448199781587,0.13253480047024974,0.1626912631430463,0.2471699291357218
37.11,36.76,0.34,0.2880060078411739,0.7359292074752625,0.13802970802435544,0.13160584222313293,0.16295992913008583,0.2457963569952562
37.13,36.82,0.43,0.289079890227819,0.7341769109393336,0.1382012603534365,0.13067479208563104,0.16321189673525485,0.24441812452876224
37.171,36.87,0.45,0.29014093343907926,0.732409962164859,0.13835965796865812,0.12974189344135212,0.16344730606393398,0.24303546594460007
37.235,36.93,0.38,0.29118928363247265,0.7306286591552712,0.13850510017477868,0.12880739372817981,0.16366632138940593,0.2416486280302236
37.295,36.98,0.46,0.29222510567056964,0.7288333082331286,0.13863780459397726,0.12787154427843378,0.1638691313112872,0.24025786995912762
37.336,37.04,0.52,0.29324858304726686,0.7270242237722229,0.1387580071545399,0.1269346001520871,0.1640559488791092,0.23886346307795991
37.397,37.09,0.47,0.29425991778606075,0.7252017279144407,0.13886596205227636,0.12599681996306836,0.16422701168061765,0.2374656906741854
37.481,37.15,0.47,0.2952593303104863,0.7233661502721492,0.1389619416846951,0.12505846569874945,0.164382581894422,0.23606484772478054
37.502,37.2,0.58,0.2962470592869383,0.7215178276170147,0.1390462365580028,0.12411980253280545,0.16452294630670247,0.2346612406264673
37.564,37.26,0.51,0.2972233614401532,0.7196571035562327,0.13911915516703363,0.12318109863167216,0.16464841629176047,0.23325518690796831
37.604,37.31,0.46,0.2981885113416893,0.7177843281971781,0.13918102384824746,0.12224262495480165,0.16475932775626942,0.2318470149247089
37.666,37.37,0.55,0.2991428011717895,0.7158998578014514,0.13923218660595954,0.1213046550488472,0.1648560410471424,0.23043706353632146
37.728,37.42,0.58,0.3000865404550538,0.7140040544292447,0.1392730049119954,0.12036746483580736,0.1649389408229842,0.22902568176724644
37.769,37.48,0.5,0.30102005577037116,0.7120972855748993,0.1393038574789968,0.11943133239506343,0.16500843588912822,0.2276132284507172
37.85,37.53,0.56,0.301943690435583,0.7101799237945169,0.13932514000762786,0.11849653773922017,0.16506495899629411,0.22620007185646457
37.891,37.59,0.61,0.30285780416736874,0.7082523463265425,0.1393372649079644,0.11756336258371747,0.16510896660295615,0.22478658930255804
37.953,37.64,0.55,0.30376277271687796,0.7063149347063141,0.1393406609954041,0.11663209011028494,0.16514093860157253,0.22337316675191346
38.015,37.7,0.54,0.3046589874816743,0.704368074375668,0.13933577316148846,0.11570300472444894,0.16516137800888128,0.2219601983941251
38.056,37.75,0.64,0.3055468550946014,0.7024121542887533,0.1393230620200782,0.11477639180742844,0.16517081062052982,0.2205480862133734
38.118,37.81,0.57,0.30642679699023506,0.7004475665152148,0.13930300352940617,0.11385253746281147,0.16516978463036097,0.21913723954320852
38.241,37.86,0.51,0.3072992489496435,0.6984747058418529,0.13927608859062215,0.11293172825837293,0.16515887021473197,0.21772807460901272
38.262,37.92,0.59,0.3081646606242219,0.6964939693737728,0.13924282262350884,0.11201425096331444,0.16513865908228928,0.21632101405890874
38.283,37.97,0.6,0.30902349503940896,0.6945057561359276,0.13920372512008744,0.11110039228109508,0.16510976398966298,0.21491648648381392
38.324,38.03,0.53,0.30987622807911497,0.692510466675839,0.13915932917683815,0.11019043857792105,0.1650728182235638,0.21351492592730517
38.387,38.08,0.62,0.3107233479516894,0.6905085026682066,0.1391101810062288,0.10928467560694571,0.16502847504978796,0.21211677138596763
38.451,38.14,0.67,0.3115653546382475,0.6885002665220851,0.1390568394282026,0.10838338822830083,0.16497740712967054,0.21072246630094102
38.491,38.19,0.6,0.31240275932417505,0.6864861609913203,0.1389998753422542,0.10748686012518947,0.16492030590458687,0.20933245804144304
38.574,38.25,0.6,0.3132360838146379,0.6844665887889836,0.1389398711807105,0.10659537351640822,0.1648578809491712,0.2079471973811098
38.595,38.3,0.68,0.31406585993495545,0.6824419522066009,0.13887742034382808,0.1057092088658078,0.1647908592940084,0.20656713796801512
38.658,38.36,0.6,0.3148926289167349,0.6804126527389949,0.13881312661733272,0.10482864458929156,0.16471998471862975,0.20519273578921754
38.721,38.41,0.56,0.31571694077071,0.6783790907155414,0.1387476035730444,0.10395395675997934,0.16464601701570203,0.20382444863065102
38.762,38.47,0.64,0.31653935364725716,0.6763416649385903,0.13868147395323646,0.10308541881214373,0.16456973122734728,0.2024627355331164
38.825,38.52,0.64,0.31736043318558504,0.6743007723297257,0.13861536903938274,0.10222330124445178,0.1644919168545661,0.20110805624505762
38.886,38.58,0.55,0.3181807518525995,0.6722568075844535,0.13854992800594643,0.10136787132295232,0.1644133770407644,0.19976087067276113
38.948,38.63,0.64,0.31900088827244033,0.670210162835843,0.138485797259836,0.10051939278420159,0.16433492773040861,0.1984216383285978
38.988,38.69,0.67,0.3198214265476859,0.6681612273276234,0.1384236297661279,0.0996781255389336,0.16425739680387724,0.19709081777793064
39.05,38.74,0.6,0.3206429555732232,0.6661103870972209,0.13836408436065983,0.0988443253767322,0.164181623189617,0.195768866085341
39.091,38.8,0.6,0.3214660683437954,0.6640580246692595,0.13830782505011788,0.09801824367225183,0.16410845595476323,0.19445623826087344
39.153,38.85,0.7,0.3222913612562542,0.6620045187601095,0.13825552030026797,0.09720012709363776,0.16403875337544374,0.19315338670702767
39.215,38.91,0.6,0.3231194334075658,0.6599502439941081,0.13820784231303657,0.09639021731385368,0.16397338198804412,0.19186076066723604
39.34,38.96,0.55,0.3239508858896403,0.6578955706320687,0.13816546629321913,0.0955887507256209,0.16391321562276595,0.19057880567656912
39.36,39.02,0.62,0.3247863210820614,0.6558408643126544,0.1381290697056647,0.09479595816063494,0.16385913442084923,0.1893079630153998
39.381,39.07,0.61,0.32562634194379037,0.653786485807101,0.13809933152386314,0.09401206461365359,0.16381202383686258,0.18804866916673577
39.422,39.13,0.52,0.32647155130489836,0.6517327907876734,0.138076931470927,0.0932372889719624,0.1637727736274744,0.18680135527792724
39.504,39.18,0.59,0.3273225511593467,0.649680129610137,0.13806254925398673,0.09247184375067377,0.16374227682812348,0.18556644662745558
39.547,39.24,0.62,0.3281799419597958,0.6476288471104386,0.13805686379302956,0.09171593483431571,0.16372142871902584,0.1843443620974948
39.609,39.29,0.56,0.32904432191537963,0.6455792824157328,0.13806055244523435,0.09096976122519702,0.16371112578197217,0.18313551365293365
39.672,39.35,0.54,0.3299162862933498,0.6435317687698653,0.13807429022588827,0.09023351479910084,0.16371226464939762,0.18194030582755868
39.692,39.4,0.6,0.3307964267254584,0.6414866333734529,0.1380987490270198,0.08950738006893198,0.16372574104724252,0.1807591352180999
39.754,39.46,0.52,0.3316853305199382,0.6394441972387374,0.13813459683494764,0.088791533956966,0.16375244873315994,0.17959238998682328
39.815,39.51,0.48,0.3325835799799191,0.6374047750594016,0.13818249694801235,0.08808614557630395,0.16379327843164734,0.1784404493733314
39.876,39.57,0.56,0.33349175172910733,0.6353686750955123,0.13824310719579205,0.08739137602204855,0.16384911676768726,0.17730368321618056
39.918,39.62,0.55,0.334410416045539,0.6333361990736524,0.13831707916112942,0.08670737817258457,0.1639208452004788,0.17618245148485304
39.979,39.68,0.44,0.33534013620420217,0.631307642102172,0.13840505740631187,0.08603429650119095,0.16400933895883635,0.1750771038225423
40.041,39.73,0.48,0.33628146782929114,0.6292832926013722,0.13850767870474293,0.08537226689808279,0.1641154659798367,0.1739879791001357
40.103,39.79,0.49,0.33723495825682004,0.6272634322483481,0.13862557127944616,0.08472141650289015,0.16424008585230815,0.1729154049817038
40.166,39.84,0.4,0.33820114590828687,0.6252483359361771,0.13875935404974668,0.08408186354751569,0.16438404876675186,0.1718596975017754
40.205,39.9,0.39,0.3391805596760492,0.623238271747112,0.13890963588745553,0.08345371720929952,0.16454819447326358,0.17082116065469904
40.268,39.95,0.46,0.3401737183210445,0.6212335009394417,0.13907701488382918,0.08283707747444426,0.16473335124899194,0.1698000859964346
40.33,40.01,0.37,0.3411811298834723,0.6192342779476808,0.13926207762851756,0.08223203501167385,0.16494033487663753,0.16879675225915633
40.371,40.06,0.33,0.3422032911070474,0.6172408503957403,0.13946539850165393,0.0816386710561085,0.1651699476354558,0.16781142497907373
40.412,40.12,0.4,0.3432406868774162,0.6152534591227339,0.1396875389801821,0.08105705730333299,0.16542297730619715,0.16684435613786508
40.474,40.17,0.37,0.3442937896753243,0.6132723382210539,0.1399290469594757,0.08048725581359342,0.16570019619138376,0.1658957838180918
40.536,40.23,0.29,0.34536305904509595,0.6112977150863175,0.14019045609127673,0.07992931892599175,0.16600236015228884,0.16496593187295663
40.576,40.28,0.36,0.3464489410789711,0.6093298104787659,0.14047228513893997,0.07938328918252009,0.16633020766394999,0.16405500961078398
40.658,40.34,0.36,0.34755186791782205,0.6073688385956797,0.14077503735093594,0.07884919926179636,0.16668445888952446,0.16316321149462873
40.7,40.39,0.26,0.34867225726876755,0.60541500715437,0.14109919985354946,0.07832707192240282,0.1670658147752678,0.1622907168574499
40.801,40.45,0.25,0.3498105119401915,0.6034685174853249,0.1414452430636872,0.07781691995579922,0.16747495616738725,0.16143768963332034
40.822,40.5,0.33,0.3509670193946535,0.6015295646351462,0.14181362012266663,0.07731874614886808,0.16791254295198865,0.16060427810515657
40.864,40.56,0.25,0.35214215132015264,0.5995983374789732,0.14220476635182053,0.07683254325619479,0.16837921321929245,0.15979061466944927
40.948,40.61,0.21,0.3533362632201768,0.5976750188421405,0.1426190987307184,0.07635829398217676,0.16887558245323814,0.15899681561847012
40.969,40.67,0.31,0.35454969402294706,0.5957597856308486,0.1430570153987727,0.0758959709730177,0.1694022427475502,0.15822298094040094
41.031,40.72,0.31,0.35578276571024825,0.5938528089716031,0.14351889518096883,0.07544553681860369,0.1699597620493047,0.1574691941377767
41.072,40.78,0.21,0.35703578296622945,0.5919542543591166,0.1440050971384112,0.07500694406421034,0.17054868343100538,0.15673552206458363
41.154,40.83,0.28,0.3583090328465345,0.5900642818123112,0.14451596014429752,0.07458013523200545,0.17116952439216368,0.15602201478230893
41.194,40.89,0.29,0.35960278446810523,0.5881830460380227,0.14505180248585584,0.07416504285238164,0.1718227761913732,0.15532870543519284
41.255,40.94,0.2,0.3609172887199797,0.5863106966020236,0.145612921492734,0.07376158950524012,0.17250890320985562,0.15465561014491408
41.317,41.0,0.19,0.3622527779953919,0.5844473781070209,0.1461995931922874,0.07336968787145683,0.1732283423474273,0.1540027279249456
41.378,41.05,0.23,0.3636094659454572,0.5825932303773854,0.14681207199215676,0.07298924079487883,0.17398150245179336,0.15337004061480938
41.439,41.11,0.15,0.364987547254688,0.5807483886504344,0.14745059039046152,0.0726201413552677,0.1747687637820226,0.1527575128344206
41.46,41.16,0.11,0.36638719743853454,0.5789129837741398,0.14811535871384743,0.07226227295261195,0.1755904775069808,0.15216509195865446
41.522,41.22,0.19,0.3678085726630754,0.5770871424111315,0.14880656488352692,0.07191550940316965,0.1764469652394218,0.15159270811218276
41.563,41.27,0.17,0.3692518095869309,0.5752709872487953,0.14952437420938008,0.07157971504745933,0.17733851860635377,0.15104027418453414
41.625,41.33,0.09,0.3707170252254236,0.5734646372151693,0.15026892921215101,0.07125474487021935,0.17826539885621717,0.15050768586527108
41.686,41.38,0.17,0.37220431683698735,0.571668207700264,0.15104034947374684,0.07094044463219171,0.1792278365033451,0.14999482169914674
41.748,41.44,0.19,0.37371376183180305,0.5698818107823866,0.15183873151562483,0.07063665101349546,0.1802260310101249,0.14950154316109948
41.789,41.49,0.11,0.37524541770263686,0.5681055554590242,0.15266414870522793,0.07034319176833312,0.1812601505072333,0.14902769475096472
41.87,41.55,0.1,0.3767993219778512,0.5663395478818448,0.1535166511903907,0.07005988589082546,0.1823303315522716,0.14857310410782096
41.911,41.6,0.16,0.37837549219655536,0.5645838915953961,0.1543962658615924,0.06978654379186329,0.18343667892708973,0.14813758214390627
41.953,41.66,0.07,0.37997392590586854,0.5628386877791083,0.1553029963419124,0.06952296748692109,0.18457926547403639,0.14772092319804023
42.015,41.71,0.03,0.3815946006802539,0.561104035492244,0.15623682300453248,0.06926895079476328,0.18575813197130567,0.14732290520846286
42.076,41.77,0.13,0.3832374741628649,0.5593800319214856,0.15719770301759572,0.06902427954690941,0.18697328704746694,0.14694328990494163
42.137,41.82,0.13,0.3849024841288104,0.557666772630873,0.15818557041618964,0.06878873180761653,0.1882247071351761,0.14658182301990355
42.179,41.88,0.07,0.38658954857021,0.5559643518138044,0.15920033620116603,0.06856207810402408,0.1895123364639784,0.14623823451826437
42.262,41.93,0.14,0.3882985658028666,0.5542728625467698,0.16024188846444679,0.06834408166605428,0.1908360870920451,0.1459122388455589
42.283,41.99,0.18,0.3900294145943488,0.5525923970444342,0.16131009254041706,0.06813449867567312,0.19219583897665002,0.1456035351939256
42.345,42.04,0.1,0.3917819543132644,0.5509230469156116,0.1624047911829976,0.06793307852517708,0.1935914400831662,0.1453118077854845
42.407,42.1,0.09,0.3935560250994941,0.5492649034196497,0.16352580476797846,0.06773956408427945,0.19502270653233672,0.14503672617267618
42.469,42.15,0.18,0.39535144805515704,0.5476180577227766,0.16467293152018075,0.06755369197589746,0.19648942278554413,0.14477794555517073
42.531,42.21,0.1,0.39716802545607904,0.5459826011539866,0.1658459477650088,0.06737519286061854,0.19799134186775988,0.14453510711299244
42.612,42.26,0.08,0.39900554098352675,0.5443586254600739,0.16704460820394354,0.06720379172982445,0.1995281856277936,0.144307838355523
42.634,42.32,0.15,0.40086375997594453,0.5427462230594036,0.16826864621350618,0.06703920820738812,0.20109964503539843,0.14409575348601855
42.716,42.37,0.15,0.4027424297004065,0.5411454872939537,0.16951777416719577,0.06688115685973632,0.2027053805147225,0.1438984537811997
42.736,42.43,0.08,0.4046412796434669,0.5395565126790497,0.1707916837798697,0.06672934751393036,0.2043450223135287,0.143715527985408
42.776,42.48,0.17,0.40656002182107087,0.5379793951500986,0.17209004647397763,0.0665834855833259,0.20601817090753768,0.14354655271879
42.877,42.54,0.21,0.4084983511071677,0.5364142323055311,0.1734125137670033,0.06644327240034421,0.20772439743919524,0.14339109289897273
42.898,42.59,0.15,0.4104559455806622,0.5348611236451037,0.17475871767943751,0.06630840555591334,0.20946324419011633,0.143248702175739
42.979,42.65,0.16,0.41243246689032725,0.5333201708027361,0.17612827116258425,0.06617857924522291,0.21123422508642262,0.1431189233782846
43.0,42.7,0.25,0.4144275606372955,0.5317914777731233,0.17752076854549767,0.06605348461953785,0.21303682623616418,0.14300128897469805
43.062,42.76,0.2,0.4164408567747432,0.5302751511314312,0.17893578600038468,0.06593281014384607,0.2148705064979929,0.14289532154333492
43.102,42.81,0.18,0.4184719700243788,0.528771300245434,0.18037288202586058,0.06581624196005657,0.2167346980802198,0.14280053425577818
43.164,42.87,0.29,0.4205205003093362,0.5272800374794973,0.18183159794747916,0.06570346425535434,0.21862880716935376,0.14271643137105436
43.227,42.92,0.3,0.4225860332030486,0.5258014783898328,0.18331145843498564,0.06559415963517022,0.22055221458718915,0.14264250874072565
43.267,42.98,0.22,0.42466814039364836,0.5243357419104541,0.1848119720357426,0.06548800950007803,0.22250427647547733,0.14257825432441176
43.371,43.03,0.31,0.42676638016338897,0.5228829505292695,0.18633263172374978,0.06538469442584278,0.22448432500719584,0.14252314871521865
43.393,43.09,0.35,0.4288802978825422,0.5214432304537662,0.1878729154636392,0.06528389454581862,0.22649166912341845,0.1424766656744783
43.453,43.14,0.29,0.4310094265171814,0.520016711765759,0.1894322867890042,0.06518528993490845,0.22852559529477084,0.14243827267517223
43.494,43.2,0.3,0.4331532871502357,0.5186035285647468,0.1910101953943946,0.06508856099436554,0.2305853683064367,0.14240743145343454
43.578,43.25,0.41,0.435311389515187,0.5172038190995013,0.19260607774027122,0.06499338883683278,0.23267023206565404,0.14238359856755317
43.618,43.31,0.35,0.4374832325417716,0.5158177258876054,0.19421935767017803,0.06489945567111985,0.2347794104306236,0.1423662259639011
43.719,43.36,0.34,0.43966830491304565,0.5144453958227087,0.19584944703934173,0.06480644518628362,0.23691210805971671,0.14235476154922677
43.74,43.42,0.44,0.441866085633154,0.5130869802692908,0.19749574635385944,0.0647140429345951,0.23906751127984888,0.14234864976869605
43.781,43.47,0.45,0.4440760446051301,0.5117426351446991,0.19915764541961747,0.0646219367129169,0.24124478897286708,0.14234733218901865
43.842,43.53,0.38,0.4462976432180352,0.510412520988186,0.2008345240001018,0.06452981694189555,0.24344309347878323,0.14235024808595212
43.883,43.58,0.46,0.448530334942725,0.5090968030166625,0.2025257524822816,0.06443737704227186,0.24566156151467192,0.14235683503546437
43.945,43.64,0.5,0.45077356593551166,0.5077956511668995,0.20423069254975468,0.06434431380758075,0.24789931510804733,0.1423665295078332
43.986,43.69,0.46,0.4530267756489628,0.506509240123955,0.20594869786234155,0.06425032777255246,0.25015546254351684,0.1423787674639882
44.088,43.75,0.49,0.45528939744905017,0.5052377493356489,0.20767911474128367,0.06415512357664196,0.25242909932149177,0.14239298495343986
44.108,43.8,0.58,0.45756085923783374,0.5039813630129555,0.20942128285915676,0.06405841032226031,0.2547193091277239,0.14240861871316812
44.171,43.86,0.52,0.4598405840808588,0.502740270116219,0.21117453593359697,0.06395990192738031,0.2570251648124313,0.14242510676685108
44.213,43.91,0.51,0.46212799083844874,0.5015146643271109,0.2129382024239419,0.06385931747221357,0.2593457293777736,0.14244188902381294
44.275,43.97,0.63,0.4644224948001043,0.500304744006256,0.21471160622989804,0.06375638153962518,0.26168005697242847,0.1424584078770514
44.335,44.02,0.66,0.46672350832123705,0.49911071213644354,0.2164940673913692,0.06365082454886722,0.26402719389201884,0.1424741087996737
44.398,44.08,0.59,0.4690304414614801,0.4979327762513158,0.21828490278860035,0.06354238308211921,0.266386179584123,0.14248844093906274
44.46,44.13,0.68,0.47134270262380795,0.4967711483494621,0.2200834268417821,0.06343080020329658,0.2687560476566094,0.1425008577081031
44.502,44.19,0.72,0.47365969919367595,0.4956260447938967,0.22188895220924415,0.06331582576863672,0.2711358268880601,0.14251081737280064
44.585,44.24,0.65,0.4759808381773734,0.4944976861969895,0.223700790483365,0.06319721672865239,0.2735245422390722,0.14251778363563766
44.605,44.3,0.68,0.47830552683876026,0.49338629729102185,0.22551825288332347,0.06307473742114622,0.27592121586324025,0.1425212262140174
44.647,44.35,0.81,0.48063317333354455,0.49229210678464463,0.22734065094380873,0.06294815985508098,0.2783248681166255,0.1425206214131408
44.71,44.41,0.76,0.4829631873402495,0.4912153472055663,0.22916729719879755,0.0628172639851395,0.28073451856451376,0.1425154526926251
44.771,44.46,0.74,0.4852949806870137,0.4901562547297866,0.2309975058595003,0.06268183797678163,0.28314918698425884,0.14250521122613055
44.812,44.52,0.88,0.48762796797336916,0.4891150689976496,0.23283059348556512,0.06254167846154104,0.28556789436302316,0.14248939645319192
44.873,44.57,0.91,0.489961567186154,0.48809203291693615,0.2346658796486477,0.062396590782213136,0.2879896638892555,0.1424675166223989
44.935,44.63,0.85,0.4922952003087346,0.48708739245316446,0.2365026875874909,0.06224638922750418,0.29041352193677866,0.14243908932506577
45.017,44.68,0.94,0.49462829392274144,0.48610139640728045,0.2383403448536888,0.06209089725571307,0.2928384990403972,0.14240364201857822
45.037,44.74,0.99,0.4969602798015474,0.48513429618096926,0.24017818394733423,0.061929947707108586,0.2952636308619961,0.14236071253867094
45.098,44.79,0.92,0.49929059549474775,0.4841863455299314,0.24201554294178915,0.06176338300479606,0.2976879591461495,0.14230984959997306
45.181,44.85,0.92,0.5016186849029228,0.4832578003056027,0.24385176609684509,0.061591055344015606,0.3001105326643058,0.1422506132842486
45.202,44.9,0.98,0.5039439988419884,0.48234891818592684,0.24568620445956374,0.061412826869939936,0.30253040814664084,0.14218257551581406
45.264,44.96,0.94,0.5062659955964608,0.4814599583958595,0.24751821645212985,0.06122856984407982,0.30494665120068254,0.14210532052363686
45.326,45.01,0.94,0.5085841414609801,0.4805911814182844,0.2493471684460953,0.061038166799352325,0.3073583372157876,0.14201844528962063
45.389,45.07,1.06,0.5108979112694342,0.4797428486959701,0.251172435322437,0.060841510683762395,0.309764552252516,0.14192155998258607
45.473,45.12,1.08,0.5132067889110311,0.47891522232511347,0.2529934010168956,0.06063850499251739,0.3121643939159234,0.14181428837743865
45.495,45.18,1.03,0.5155102678326817,0.4781085647409246,0.2548094590501056,0.06042906388828037,0.3145569722117877,0.14169626825901904
45.558,45.23,1.13,0.5178078515270655,0.4773231383956657,0.25662001304205917,0.060213112309237114,0.31694141038481466,0.1415671518101519
45.578,45.29,1.2,0.5200990540057903,0.47655920542955754,0.2584244772104725,0.05999058606470867,0.3193168457379186,0.14142660598344675
45.642,45.34,1.15,0.5223834002570903,0.47581702733501174,0.2602222768526692,0.059761431918135335,0.32168243043173395,0.14127431285646627
45.704,45.4,1.16,0.5246604266875661,0.4750968646147019,0.26201284881063697,0.05952560765736489,0.3240373322635642,0.14110996996993888
45.745,45.45,1.27,0.5269296815475277,0.474398976434031,0.263795641918948,0.05928308215226816,0.3263807354250382,0.14093329064872204
45.808,45.51,1.21,0.5291907253395799,0.47372362026855425,0.26557011743528564,0.0590338353997243,0.32871184123779856,0.14074400430521938
45.954,45.56,1.15,0.5314431312101391,0.4730710515468933,0.26733574945337213,0.05877785855596919,0.33102986886658553,0.1405418567249431
45.974,45.62,1.27,0.5336864853236116,0.4724415232896458,0.26909202529812415,0.05851515395622832,0.3333340560091008,0.14032661033388788
45.995,45.67,1.31,0.5359203872189713,0.47183528574474726,0.2708384459028864,0.058245735121481505,0.33562365956205137,0.1400980444473552
46.037,45.73,1.25,0.5381444501484854,0.47125258601967873,0.2725745261686095,0.057969626752156,0.33789795626276853,0.13985595549987428
46.078,45.78,1.36,0.540358301398343,0.47069366771088184,0.27429979530483495,0.05768686470856993,0.3401562433058093,0.13960015725591848
46.162,45.84,1.44,0.5425615825909481,0.47015877053074967,0.2760137971523558,0.057397495978038865,0.3423978389339832,0.13933048100119513
46.183,45.89,1.39,0.5447539499686839,0.469648129932629,0.27771609048745255,0.05710157862867348,0.34462208300330477,0.1390467757143799
46.286,45.95,1.42,0.5469350746589915,0.4691619767343622,0.27940624930764046,0.056799181750023006,0.34682833752144643,0.1387489082192635
46.307,46.0,1.52,0.5491046429206693,0.46870053674099327,0.28108386309888234,0.05649038538084028,0.34901598715934495,0.13843676331732802
46.367,46.06,1.47,0.5512623563713547,0.46826403036729725,0.28274853708423914,0.056175280424308145,0.3511844397357031,0.13811024390076412
46.408,46.11,1.44,0.5534079321962115,0.46785267226077365,0.284399892453941,0.05585396855106898,0.35333312667419436,0.1377692710459087
46.469,46.17,1.51,0.5555411033378976,0.46746667092569405,0.28603756657685353,0.055526562090368214,0.35546150343324284,0.13741378408703508
46.552,46.22,1.54,0.557661618667936,0.4671062283487168,0.28766121319332505,0.05519318390956043,0.3575690499082976,0.13704374067038738
46.574,46.28,1.43,0.5597692431396518,0.4667715396264989,0.2892705025894278,0.05485396728215041,0.35965527080654447,0.13665911678836337
46.657,46.33,1.52,0.5618637579228651,0.46646279259567824,0.2908651217526407,0.05450905574450261,0.3617196959940088,0.13625990679381325
46.677,46.39,1.53,0.5639449605205269,0.46618016746558544,0.2924447745090504,0.054158602941359435,0.36376188081501126,0.13584612339450539
46.738,46.44,1.45,0.5660126648674954,0.4659238364540567,0.2940091816421929,0.05380277246033059,0.36578140638393736,0.1354177976279054
46.799,46.5,1.46,0.5680667014116448,0.4656939634267461,0.2955580809936824,0.05344173765555464,0.3677778798492698,0.13497497881650994
46.861,46.55,1.6,0.5701069171775266,0.4654907035403651,0.29709122754578493,0.05307568146078515,0.36975093462981323,0.13451773450404236
46.903,46.61,1.57,0.5721331758128412,0.4653142028902859,0.2986083934860973,0.05270479619218178,0.37170023062302154,0.134046150372862
46.964,46.66,1.52,0.5741453576180152,0.4651645981629361,0.3001093682544904,0.052329283341094046,0.3736254543853272,0.1335603301429538
47.026,46.72,1.62,0.5761433595592113,0.46504201629338576,0.30159395857245197,0.051949353357143395,0.3755263192843976,0.13306039545284984
47.087,46.77,1.68,0.5781270952651186,0.46494657412848844,0.30306198845497084,0.0515652254219308,0.3774025656232916,0.13254648572279973
47.15,46.83,1.6,0.5800964950078974,0.4648783780958931,0.3045132992051489,0.05117712721372016,0.3792539607365373,0.13201875800051174
47.192,46.88,1.63,0.5820515056686648,0.4648375238792345,0.30594774939177827,0.05078529466350536,0.3810802990581958,0.1314773867898147
47.255,46.94,1.69,0.5839920906879191,0.464824096099833,0.30736521481019036,0.050389971702946894,0.38288140216202504,0.130922563862599
47.296,46.99,1.61,0.5859182300013029,0.4648381680052751,0.3087655884267615,0.049991410004710385,0.38465711877390024,0.1303544980543874
47.399,47.05,1.6,0.5878299199610888,0.4648798011653205,0.3101487803075077,0.04958986871575148,0.38640732475666517,0.1297734150438936
47.42,47.1,1.73,0.5897271732437265,0.4649490451756964,0.3115147175311953,0.04918561418408157,0.3881319230675876,0.1291795571169396
47.482,47.16,1.71,0.591610018743739,0.4650459373704344,0.31286334408736044,0.04877891967949996,0.38983084368858306,0.12857318291508324
47.543,47.21,1.66,0.5934785014542028,0.4651705025434558,0.3141946207595759,0.04837006510870716,0.3915040435293641,0.12795456716926865
47.585,47.27,1.77,0.5953326823340122,0.46532275268011825,0.31550852499424986,0.04795933672516535,0.39315150630369045,0.12732400041875874
47.647,47.32,1.82,0.5971726381621235,0.4655026866994048,0.3168050507552228,0.04754702683404372,0.3947732423789379,0.12668178871556668
47.708,47.38,1.74,0.5989984613789777,0.46571029020738736,0.3180842083644539,0.04713343349257122,0.39636928859924747,0.12602825331460513
47.771,47.43,1.79,0.600810259915319,0.465945535262556,0.3193460243291217,0.04671886020614823,0.3979397080825664,0.12536373034981405
47.793,47.49,1.86,0.602608157008649,0.4662083801535837,0.3205905411554858,0.04630361562063002,0.3994845899919488,0.12468857049656622
47.834,47.54,1.77,0.6043922910075729,0.4664987691900825,0.32181781714989127,0.04588801321123727,0.4010040492815355,0.12400313862067737
47.896,47.6,1.74,0.6061628151643071,0.4668166325069264,0.3230279262073086,0.04547237096857163,0.40249822641766303,0.12330781341437123
47.959,47.65,1.84,0.6079198974156025,0.46716188588273994,0.32422095758776825,0.04505701108222652,0.4039672870755703,0.1226029870195485
48.001,47.71,1.83,0.6096637201523197,0.46753443057315125,0.3253970156809946,0.044642259622457055,0.4054114218121706,0.12188906463868258
48.084,47.76,1.78,0.6113944799778539,0.46793415315936243,0.3265562197594727,0.04422844622031441,0.4068308457153406,0.12116646413364243
48.125,47.82,1.89,0.6131123874555651,0.4683609254125203,0.32769870372011245,0.04381590374659997,0.4082257980301667,0.12043561561270652
48.187,47.87,1.92,0.6148176668453414,0.46881460417428433,0.32882461581464806,0.04340496798995749,0.409596541762605,0.11969696100599332
48.248,47.93,1.84,0.6165105558294317,0.469295031253902,0.3299341183689562,0.04299597733438734,0.41094336326103925,0.11895095362951567
48.289,47.98,1.87,0.6181913052277032,0.46980203334203974,0.331027387491552,0.04258927243647214,0.41226657177626835,0.11819805773808337
48.35,48.04,1.96,0.6198601787025245,0.47033542194160116,0.3321046127715897,0.042185195902652545,0.41356649900049963,0.11743874806731044
48.392,48.09,1.88,0.6215174524535065,0.47089499331575096,0.3331659969667569,0.04178409196694321,0.414843498585961,0.11667350936502838
48.536,48.15,1.83,0.6231634149023644,0.47148052845335775,0.3342117556814793,0.04138630616950845,0.41609794564376235,0.11590283591245319
48.556,48.2,1.92,0.6247983663681714,0.47209179305204735,0.33524211703585344,0.04099218503650776,0.41733023622364823,0.11512723103546911
48.577,48.26,1.88,0.6264226187332642,0.4727285375190117,0.33625732132573455,0.04060207576153961,0.4185407867752839,0.11434720660638
48.618,48.31,1.8,0.6280364951000315,0.47339049698964425,0.3372576206744097,0.04021632588888338,0.4197300335916948,0.11356328253649212
48.678,48.37,1.9,0.6296403294387881,0.4740773913640134,0.33824327867628884,0.03983528299863451,0.42089843223544404,0.11277598625991948
48.72,48.42,1.94,0.631234466226896,0.47478892536113826,0.33921457003304367,0.03945929439377562,0.42204645694810095,0.11198585220903423
48.783,48.48,1.86,0.6328192600792767,0.47552478859097536,0.3401717801826423,0.03908870678921864,0.4231746000435221,0.11119342128201055
48.865,48.53,1.88,0.6343950753704546,0.4762846556440091,0.34111520492172803,0.03872386600290494,0.42428337128545046,0.11039924030294028
48.885,48.59,1.97,0.6359622858482643,0.4770681861983578,0.3420451500217754,0.0383651166491396,0.4253732972499467,0.10960386147500839
48.948,48.64,1.9,0.6375212742393681,0.47787502514433927,0.34296193083945953,0.03801280183439115,0.4264449206731755,0.10880784182723453
49.01,48.7,1.87,0.6390724318467416,0.4787048027264636,0.34386587192167234,0.037667262855785526,0.4274987997850732,0.10801174265532337
49.052,48.75,1.97,0.6406161581393051,0.47955713470279737,0.3447573066056137,0.03732883890247419,0.42853550762942383,0.10721612895718938
49.114,48.81,1.97,0.6421528603338973,0.4804316225215682,0.3456365766143856,0.036997866759963756,0.42955563137087327,0.10642156886373823
49.175,48.86,1.89,0.6436829529698072,0.4813278535147583,0.3465040316485148,0.03667468051739765,0.4305597715894058,0.10562863306551754
49.236,48.92,1.98,0.645206857476093,0.48224540110833775,0.3473600289737954,0.03635961127775765,0.4315485415628101,0.1048378942359002
49.277,48.97,2.01,0.6467250017319214,0.48318382504872764,0.3482049330057991,0.03605298687100479,0.4325225665376746,0.10404992645151635
49.34,49.03,1.93,0.64823781962017,0.4841426716450748,0.34903911489136125,0.03575513157026249,0.4334824829894613,0.10326530461070516
49.38,49.08,1.95,0.6497457505745253,0.48512147402697203,0.3498629520873158,0.03546636581124034,0.4344289378722143,0.10248460385080681
49.442,49.14,2.07,0.6512492391203046,0.48611975241734107,0.3506768279367055,0.03518700591517224,0.4353625878584673,0.10170839896510117
49.503,49.19,2.01,0.6527487344092185,0.48713701442024604,0.35148113124267216,0.03491736381554075,0.43628409856991596,0.1009372638201359
49.606,49.25,1.98,0.6542446897482931,0.4881727553234036,0.3522762558402166,0.03465774678878512,0.4371941437994314,0.10017177077409203
49.626,49.3,2.09,0.6557375621231869,0.4892264584151142,0.3530626001660041,0.03440845718909557,0.43809340472501135,0.09941249009672862
