Time_Host,Time_Arduino,easingdata,CH1_Oxy,CH1_Deoxy,CH2_Oxy,CH2_Deoxy,CH3_Oxy,CH3_Deoxy
1.337,0.04,0.0,0.07001998749384014,0.9293726254096213,0.10248060089750982,0.38861064542252727,0.3844323799389076,0.4800252106541366
1.357,0.1,0.0,0.06844666648587105,0.9309623545688688,0.10497841312325555,0.39030480470890394,0.3878052391021666,0.4725822374659685
1.377,0.15,0.0,0.06688009642251576,0.9325451873098395,0.1075031866655536,0.3919534187781547,0.391190724930261,0.4651406224032667
1.397,0.21,0.0,0.0653209452881223,0.9341204490736492,0.11005427778789033,0.393555545782732,0.3945879439491378,0.45770305272195133
1.419,0.26,0.0,0.06376987489122221,0.9356874716178387,0.11263102701979781,0.39511027637728663,0.3979960008831746,0.45027220844762356
1.438,0.32,0.0,0.062227540214486426,0.9372455936725625,0.11523275969244563,0.3966167343821293,0.4014139992643526,0.4428507601230695
1.459,1.06,0.0,0.06069458877365785,0.9387941615875947,0.11785878648824678,0.39807407739993694,0.40484104202999055,0.4354413665775774
1.479,1.11,0.0,0.05917165998648151,0.9403325299691209,0.12050840400341387,0.39948149738595684,0.40827623210844644,0.4280466727207779
1.539,1.17,0.0,0.05765938455264946,0.9418600623052958,0.12318089532235917,0.4008382211721134,0.4117186729922359,0.42066930736367886
1.602,1.22,0.0,0.056158383845775275,0.9433761315795433,0.12587553060278908,0.4021435109455658,0.41516746929805953,0.41331188106952926
1.643,1.28,-0.01,0.05466926931841203,0.9448801208705784,0.12859156767029692,0.4033966646824103,0.4186217273132641,0.4059769840371283
1.704,1.33,-0.0,0.05319264192112646,0.9463714239381377,0.13132825262121622,0.40459701653734564,0.42208055552829965,0.39866718401917317
1.746,1.39,0.03,0.05172909153663641,0.9478494457934002,0.13408482043247164,0.4057439371902102,0.4255430651547566,0.391385024278231
1.867,1.45,0.02,0.05027919643000488,0.9493136032531045,0.1368604955771639,0.4068368341503319,0.42900837062859715,0.38413302158290585
1.888,1.5,0.02,0.048843522715855424,0.9507633254763901,0.1396544926446607,0.4078751520196372,0.43247559009823355,0.3769136642467178
1.909,1.55,0.05,0.04742262384353096,0.9521980544834364,0.14246601696403322,0.4088583727154565,0.43594384589717544,0.3697294102121091
1.97,1.61,0.05,0.04601704010106559,0.9536172456550236,0.14529426522978497,0.40978601565392475,0.4394122650010449,0.36258268518183995
2.031,1.66,0.04,0.0446272981387836,0.9550203682121984,0.14813842612894498,0.41065763789482707,0.44287997946883595,0.3554758807999029
2.092,1.72,0.05,0.04325391051328061,0.9564069056752845,0.15099768096869876,0.4114728342487282,0.44634612686836383,0.34841135288395964
2.135,1.77,0.05,0.04189737525247882,0.9577763563015432,0.1538712043038089,0.4122312373472781,0.4498098506859095,0.34139141971119624
2.216,1.83,0.03,0.04055817544237876,0.9591282335008614,0.15675816456312108,0.4129325176776811,0.4532703007201179,0.3344183603593874
2.237,1.88,0.01,0.03923677883605754,0.9604620662289136,0.15965772467446818,0.4135763835824237,0.4567266334602313,0.3274944131048686
2.299,1.94,0.04,0.03793363748539369,0.9617773993573195,0.16256904268726957,0.41416258122545796,0.4601780124487458,0.3206217738790042
2.36,2.0,0.03,0.036649187395932835,0.9630737940203827,0.16549127239208813,0.4146908945260762,0.46362360862855667,0.31380259478461475
2.403,2.05,0.04,0.03538384820524674,0.9643508279380594,0.16842356393636185,0.415161145061692,0.4670626006746243,0.3070389826736858
2.485,2.1,0.07,0.03413802288507846,0.9656080957148655,0.17136506443549832,0.415573191940641,0.4704941753101668,0.30033299778750105
2.546,2.16,0.07,0.032912097467510774,0.9668452091144871,0.1743149185785412,0.4159269316459628,0.47391752760740186,0.2936866524601493
2.588,2.21,0.07,0.03170644079534269,0.9680617973099122,0.1772722692276859,0.4162222978509603,0.47733186127289023,0.2871019098861607
2.63,2.27,0.08,0.030521404296806845,0.9692575071089515,0.18023625801101148,0.4164592612072364,0.48073638891759685,0.28058068295286687
2.692,2.33,0.09,0.02935732178470673,0.9704320031550744,0.18320602590790253,0.41663782910583375,0.4841303323118463,0.27412483313793673
2.733,2.38,0.08,0.028214509279997534,0.9715849681035353,0.18618071382676674,0.41675804541195893,0.48751292262540535,0.26773616947242623
2.795,2.43,0.06,0.02709326485977983,0.9727161027728306,0.18915946317477145,0.41681999017358273,0.49088340065296493,0.2614164475695949
2.857,2.49,0.08,0.025993868529623234,0.9738251262715659,0.1921414164193659,0.4168237793040775,0.49424101702531376,0.25516736871964574
2.96,2.54,0.05,0.024916582120088834,0.9749117761008783,0.1951257176413115,0.41676956423904615,0.49758503240649343,0.24899057905045896
2.981,2.6,0.04,0.023861649207274634,0.9759758082325856,0.19811151307884636,0.4166575315675209,0.5009147176771905,0.24288766875430273
3.022,2.65,0.07,0.02282929505716912,0.9770169971632906,0.20109795166251698,0.4164879026376984,0.5042293541045606,0.2368601713804095
3.085,2.71,0.08,0.02181972659356578,0.9780351359446899,0.20408418554013655,0.4162609331372986,0.5075282334986103,0.2309095631932101
3.167,2.77,0.08,0.02083313238926613,0.9790300361903667,0.20706937059128278,0.41597691264853337,0.5108106583551943,0.22503726259592302
3.187,2.82,0.1,0.019869682680274715,0.980001528059374,0.21005266693072125,0.4156361641776452,0.5140759419856511,0.21924462961912042
3.248,2.87,0.12,0.018929529402663466,0.9809494602169361,0.2130332394001535,0.4152390436590235,0.5173234086331072,0.21353296547382064
3.33,2.93,0.11,0.018012806251752705,0.9818736997726272,0.21601025804774687,0.4147859394340018,0.520552393575521,0.20790351216859285
3.351,2.98,0.11,0.017119628763224325,0.9827741321964233,0.21898289859499181,0.4142772717045549,0.5237622432155813,0.20235745219012072
3.412,3.04,0.14,0.016250094415752273,0.9836506612130412,0.22195034289052504,0.41371349196222557,0.5269523151576234,0.19689590824664194
3.474,3.1,0.12,0.015404282754707871,0.9845032086750197,0.22491177935063436,0.4130950823926858,0.5301219782717537,0.19151994307364528
3.516,3.15,0.11,0.014582255536471685,0.9853317144150142,0.22786640338621952,0.41242255525635324,0.533270612745388,0.18623055930115817
3.557,3.2,0.12,0.013784056892857798,0.986136136077805,0.2308134178160105,0.4116964522454669,0.5363976101224175,0.18102869938188898
3.618,3.26,0.11,0.013009713515131941,0.9869164489325468,0.23375203326586716,0.4109173438179664,0.5395023733301848,0.17591524557941246
3.699,3.31,0.11,0.01225923485708253,0.9876726456658013,0.23668146855398078,0.41008582850844705,0.5425843166944101,0.17089102001554105
3.719,3.37,0.18,0.011532613356582457,0.9884047361559276,0.2396009510617673,0.40920253221643454,0.5456428659421405,0.16595678477600675
3.801,3.42,0.2,0.010829824675057763,0.9891127472294131,0.24250971709018548,0.408268107472265,0.54867745819274,0.16111324207355324
3.843,3.48,0.2,0.010150827954258281,0.9897967223997578,0.24540701220117653,0.4072832326809556,0.5516875419369325,0.1563610344674607
3.905,3.54,0.2,0.009495566089705842,0.9904567215895373,0.24829209154392076,0.40624861134459944,0.5546725770039705,0.1517007451383501
3.966,3.59,0.23,0.008863966020180122,0.9910928208362888,0.2511642201656664,0.4051649712639973,0.5576320345171146,0.14713289821687647
4.069,3.64,0.22,0.008255939032588791,0.9917051119828744,0.254022673306984,0.40403306372035386,0.5605653968377164,0.14265795916472299
4.09,3.7,0.22,0.007671381081553417,0.9922937023529971,0.25686673668143173,0.4028536626379022,0.5634721574982777,0.13827633520620114
4.132,3.75,0.24,0.00711017312302649,0.9928587144125554,0.2596957067397382,0.4016275637282789,0.5663518211249051,0.13398837580870243
4.194,3.81,0.23,0.006572181461240156,0.993400285417546,0.2625088909187102,0.40035558361738566,0.5692039033496019,0.1297943732102047
4.215,3.87,0.22,0.0060572581082763335,0.993918567049228,0.26530560787512264,0.39903855895540735,0.5720279307128465,0.12569456299200768
4.276,3.92,0.22,0.005565241155537911,0.9944137250372798,0.26808518770483536,0.39767734551067163,0.5748234405568917,0.12168912469487368
4.339,3.98,0.24,0.005095955156389725,0.9948859387716846,0.2708469721473163,0.3962728172481567,0.5775899809101898,0.1177781824767695
4.463,4.03,0.24,0.004649211519226054,0.9953354009040969,0.2735903147756702,0.3948258653936162,0.5803271103633136,0.1139618058104401
4.483,4.08,0.25,0.004224808910211738,0.9957623169394505,0.27631458117218327,0.3933373974844623,0.5830343979366939,0.11024001021908043
4.503,4.14,0.28,0.0038225336649386076,0.9961669048185773,0.2790191490893302,0.39180833640871465,0.5857114229404684,0.10661275804838591
4.564,4.2,0.28,0.003442160208236749,0.9965493944926016,0.28170340859618054,0.3902396194334043,0.5883577748267469,0.1030799592732518
4.606,4.25,0.29,0.003083451481378539,0.996910027489887,0.2843667622101995,0.38863219722381226,0.5909730530346119,0.09964147233738851
4.667,4.3,0.31,0.002746159375911951,0.9972490564763035,0.28700862501455354,0.3869870328548187,0.5935568668282283,0.0962971050241155
4.727,4.36,0.32,0.0024300251733615995,0.9975667448095913,0.2896284247611613,0.3853051008154785,0.5961088351284765,0.09304661535659321
4.789,4.41,0.31,0.00213477999004125,0.9978633660885842,0.29222560195985064,0.38358738600777725,0.5986285863385691,0.08988971252575888
4.831,4.47,0.32,0.001860145226227648,0.998139203698053,0.29479960995403864,0.38183488274046423,0.6011157581641579,0.08682605784425869
4.894,4.53,0.32,0.001605833018947583,0.998394550349928,0.2973499149833614,0.38004859371892524,0.6035699974284654,0.08385526572470561
4.957,4.58,0.3,0.0013715466976271672,0.9986297076216584,0.29987599623364575,0.3782295290322177,0.6059909598830029,0.08097690468064803
5.018,4.63,0.3,0.0011569812418464917,0.9988449854924746,0.3023773458745455,0.3763787051385754,0.6083783100144211,0.07819049834870449
5.099,4.69,0.34,0.000961823740439395,0.9990407018783175,0.3048534690850852,0.3744971438508418,0.6107317208480173,0.07549552653038744
5.12,4.75,0.34,0.000785753851180879,0.9992171821662018,0.30730388406730924,0.37258587132330906,0.6130508737483692,0.07289142625218102
5.162,4.8,0.34,0.0006284442603131015,0.9993747587487665,0.3097281220482637,0.37064591704132727,0.6153354582175304,0.07037759284244664
5.224,4.86,0.37,0.0004895611411741638,0.9995137705597524,0.3121257272706206,0.36867831281488095,0.6175851716912026,0.06795338102369444
5.286,4.91,0.38,0.00036876461121074493,0.9996345626111337,0.3144962569723609,0.3666840917772183,0.6197997193333256,0.06561810601870978
5.328,4.96,0.37,0.0002657091866770618,0.9997374855326032,0.3168392813560154,0.3646642873896017,0.6219788138295647,0.06337104466900888
5.39,5.02,0.39,0.00018004423434371351,0.9998228951140952,0.31915438354800596,0.36261993245334967,0.6241221751802237,0.061211436564129404
5.474,5.08,0.41,0.0001114144195564886,0.9998911518520108,0.32144115954864155,0.3605520581304969,0.6262295304931497,0.05913848518032842
5.535,5.13,0.4,5.9460149995567206e-05,0.9999426204997988,0.32369921817333597,0.3584616929745556,0.6283006137772293,0.05715135902734911
5.556,5.18,0.39,2.3818014492699736e-05,0.9999776696235395,0.3259281809856183,0.3563498619729665,0.6303351657371016,0.05524919280200737
5.598,5.24,0.41,4.121216272721522e-06,0.9999966711631743,0.3281276822225148,0.35421758560289013,0.6323329335697208,0.05343108854741428
5.66,5.29,0.39,0.0,1.0,0.3302973687128817,0.3520658789019487,0.6342936707634121,0.05169611681667549
5.702,5.35,0.38,1.1082072028254343e-05,0.999988033531043,0.3324368997892475,0.349895750555461,0.6362171369000369,0.05004331783990505
5.763,5.41,0.4,3.699301327245074e-05,0.9999611512508971,0.33454594719365993,0.34770820200166175,0.6381030974608458,0.0484717026933712
5.824,5.46,0.41,7.735668414484033e-05,0.9999197343415921,0.3366241949779468,0.34550422655633395,0.6399513236365377,0.04698025446957268
5.906,5.51,0.41,0.00013179562102364433,0.9998641652710301,0.3386713393987419,0.34328480855815924,0.6417615921419916,0.045567929447068126
5.927,5.57,0.43,0.00019993142375146204,0.9997948274005016,0.3406870888076191,0.3410509225358945,0.6435336850360897,0.04423365825895724
5.992,5.62,0.45,0.0002813851336879167,0.999712104601759,0.3426711635367347,0.3388035323982993,0.6452673895470489,0.04297634705900783
6.034,5.68,0.45,0.0003757776018688058,0.9996163808841044,0.3446232957804664,0.33654359064763667,0.6469624979036882,0.041794878684516736
6.118,5.74,0.45,0.0004827298468532656,0.9995080400319143,0.346543229473629,0.33427203761755736,0.6486188071730956,0.04068811381505962
6.139,5.79,0.47,0.0006018634018721902,0.999387465252992,0.34843072016692084,0.331989800736219,0.6502361191052066,0.03965489212630682
6.202,5.84,0.46,0.0007328006509265528,0.999255038838107,0.3502855349003077,0.32969779381550407,0.6518142399848434,0.038694033438073004
6.263,5.9,0.44,0.0008751651535203387,0.9991111418320414,0.35210745207506927,0.3273969163671725,0.6533529804917942,0.03780433885575223
6.324,5.95,0.44,0.0010285819577482277,0.9989561537164271,0.35389626132521657,0.3250880529467243,0.6548521555695163,0.03698459190426796
6.384,6.01,0.44,0.001192677901493177,0.9987904521046239,0.35565176338895654,0.3227720725256426,0.6563115843030242,0.03623355965365324
6.425,6.07,0.43,0.0013670819015232203,0.9986144124488548,0.3573737699808321,0.320449827892556,0.6577310898064701,0.03554999383539689
6.508,6.12,0.45,0.001551425230308408,0.9984284077597771,0.3590621036650975,0.3181221550837661,0.6591104991208471,0.03493263194876313
6.528,6.17,0.47,0.0017453417804063679,0.9982328083386469,0.36071659773080644,0.31578987284354315,0.6604496431221586,0.0343801983563818
6.65,6.23,0.45,0.001948468316290724,0.9980279815222002,0.3623370960690332,0.3134537821145717,0.6617483564403457,0.03389140536850105
6.671,6.29,0.45,0.0021604447135209477,0.99781429144036,0.36392345305263235,0.3111146655589052,0.6630064773892236,0.03346495431537241
6.711,6.34,0.49,0.002380914185177761,0.9975920987868376,0.3654755334189668,0.30877328710974056,0.6642238479076803,0.03309953660728606
6.753,6.39,0.47,0.0026095234955128203,0.9973617606026848,0.3669932121560791,0.3064303915542414,0.6654003135123872,0.03279383478180002
6.815,6.45,0.46,0.0028459231607841267,0.997123630072822,0.36847637439281095,0.30408670414752215,0.6665357232622593,0.03254652353771412
6.877,6.5,0.47,0.0030897676372702776,0.9968780563355496,0.3699249152933814,0.3017429302577884,0.6676299297348984,0.032356270755325864
6.939,6.56,0.46,0.003340715496477505,0.996625384305024,0.3713387399569087,0.2993997550425316,0.6686827890152273,0.032221738502479995
7.002,6.62,0.44,0.0035984295875755652,0.9963659545066662,0.37271776332230105,0.2970578431556054,0.6696941606964931,0.032141584025926116
7.022,6.67,0.43,0.0038625771871190692,0.9961001029254428,0.37406191007884443,0.29471783848500627,0.6706639078937568,0.03211446072753464
7.082,6.72,0.44,0.00413283013612961,0.9958281608669444,0.37537111458268485,0.2923803639212207,0.6715918972699004,0.032139019124973085
7.144,6.78,0.43,0.0044088649646304165,0.9955504548311734,0.3766453207792503,0.29004602115606576,0.6724779990740936,0.03221390779650055
7.186,6.83,0.43,0.004690363003741104,0.9952673063989331,0.37788448213149034,0.2877153905120068,0.6733220871925433,0.0323377743096041
7.247,6.89,0.47,0.004977010485458599,0.994979032130692,0.37908856155364806,0.2853890308019783,0.6741240392112446,0.032509266133249434
7.308,6.95,0.47,0.005268498630273378,0.9946859434777763,0.38025753135016793,0.28306747921971337,0.6748837364903685,0.03272703153354727
7.391,7.0,0.46,0.005564523722796581,0.9943883467057141,0.38139137315929583,0.28075125126052325,0.675601064249873,0.03298972045264966
7.411,7.05,0.49,0.005864787175602121,0.994086542829527,0.3824900779009286,0.2784408406724024,0.6762759116659048,0.033295985370684816
7.473,7.11,0.5,0.006168995581517326,0.9937808275607333,0.3835536457283075,0.2761367194372762,0.6769081719775711,0.03364448215052221
7.536,7.16,0.48,0.006476860754626531,0.9934714912658004,0.38458208598320087,0.2738393377821511,0.6774977426036736,0.0340338708651589
7.577,7.22,0.49,0.006788099760282523,0.9931588189357475,0.38557541715426097,0.2715491242199138,0.6780445252690136,0.03446281660754569
7.64,7.28,0.49,0.007102434934448983,0.9928430901665813,0.38653366683826784,0.2692664856195582,0.6785484261398786,0.034929990282719495
7.744,7.33,0.47,0.007419593892721018,0.9925245791502088,0.38745687170398985,0.2669918073056447,0.6790093559683074,0.035434069382168434
7.765,7.38,0.45,0.007739309529390397,0.9922035546754704,0.38834507745838615,0.2647254531867972,0.6794272302446879,0.03597373874042039
7.806,7.44,0.49,0.008061320006939841,0.9918802801389025,0.3891983388148299,0.26246776591302456,0.6798019693581847,0.036547691273889356
7.869,7.5,0.49,0.00838536873636962,0.9915550135648271,0.3900167194629396,0.26021906706159764,0.6801334987644035,0.03715462870202646
7.909,7.55,0.5,0.008711204348781159,0.9912280076343432,0.3908002920395063,0.25797965735109224,0.6804217491596202,0.03779326225081268
7.971,7.61,0.53,0.009038580658666164,0.9908995097227656,0.39154913809992437,0.25574981688303744,0.6806666566608375,0.038462313338599896
8.033,7.66,0.54,0.009367256619374547,0.990569761945043,0.39226334808951296,0.2535298054104095,0.6808681629909121,0.039160514244258704
8.094,7.71,0.54,0.009696996271257165,0.9902390012086453,0.39294302131414854,0.2513198626320556,0.6810262156680223,0.0398866087575571
8.135,7.77,0.55,0.010027568682997463,0.9899074592734146,0.39358826590969415,0.24912020851209832,0.6811407681987917,0.04063935281169274
8.176,7.83,0.57,0.010358747886657613,0.9895753628178455,0.39419919880975884,0.24693104362346904,0.6812117802744412,0.04141751509793126
8.236,7.88,0.56,0.010690312806969627,0.9892429335112642,0.39477594571137337,0.24475254951484426,0.6812392179693963,0.04221987766235159
8.299,7.93,0.55,0.011022047185401522,0.9889103880913735,0.39531864103821446,0.24258488910036582,0.6812230539418068,0.04304523648474862
8.359,7.99,0.57,0.011353739499525194,0.9885779384466348,0.3958274279010541,0.24042820707156268,0.6811632676354752,0.04389240203976339
8.4,8.05,0.55,0.011685182878208624,0.9882457917029612,0.3963024580551601,0.23828263033083288,0.6810598454827087,0.04476019984029992
8.463,8.1,0.54,0.01201617501315108,0.9879141503142029,0.3967438918544118,0.2361482684457115,0.6809127811075977,0.04564747096327352
8.526,8.16,0.56,0.012346518067274362,0.987583212155904,0.3971518982018984,0.23402521412300795,0.6807220755292055,0.0465530725577109
8.589,8.21,0.58,0.012676018580475264,0.9872531706218256,0.3975266544967462,0.23191354370177975,0.6804877373641085,0.047475878335203316
8.651,8.27,0.58,0.013004487373235108,0.9869242147227312,0.39786834657688674,0.2298133176640116,0.6802097830276858,0.048414779042706975
8.672,8.32,0.59,0.013331739448573566,0.9865965291869471,0.39817716865746833,0.22772458116181982,0.6798882369335298,0.04936868291771477
8.733,8.38,0.62,0.013657593892826196,0.9862702945622055,0.3984533232646077,0.22564736456000775,0.6795231316903649,0.050336516125859425
8.836,8.43,0.62,0.013981873775715511,0.9859456873183021,0.39869702116422734,0.22358168399284176,0.6791145082959038,0.05131722318104858
8.856,8.49,0.61,0.014304406050172358,0.9856228799500969,0.39890848128576845,0.22152754193395902,0.6786624163271358,0.05230976734826589
8.917,8.54,0.65,0.014625021452348471,0.9853020410804133,0.39908793064062337,0.21948492777833564,0.6781669141266119,0.053313131029179846
8.979,8.6,0.64,0.014943554402245863,0.9849833355624007,0.39923560423519266,0.21745381843519038,0.6776280689843581,0.05432631613068615
8.999,8.65,0.62,0.015259842905373392,0.9846669245809385,0.39935174497852044,0.2154341789306344,0.6770459573151102,0.055348344416476104
9.06,8.71,0.62,0.015573728455822488,0.9843529657526847,0.3994366035844918,0.21342596301888586,0.6764206648306124,0.05637825784168146
9.123,8.76,0.62,0.015885055941131935,0.9840416132243857,0.3994904384685612,0.21142911380094695,0.6757522867067692,0.05741511887060701
9.226,8.82,0.59,0.016193673549286466,0.9837330177690967,0.39951351563897314,0.20944356434973047,0.6750409277454321,0.058458010777569264
9.247,8.87,0.6,0.016499432678168623,0.9834273268799878,0.39950610858240476,0.20746923834069156,0.674286702530587,0.059506037930912706
9.31,8.93,0.63,0.016802187847757992,0.9831246848614302,0.3994684981439278,0.20550605068707367,0.6734897355786558,0.06055832606034152
9.329,8.98,0.62,0.017101796615347536,0.982825232917093,0.3994009724011521,0.20355390817889035,0.6726501614825819,0.061614022507759214
9.39,9.04,0.62,0.01739811949402331,0.9825291092347942,0.3993038265323976,0.20161271012476054,0.6717681250493323,0.06267229646183953
9.453,9.09,0.65,0.017691019874632778,0.9822364490678764,0.399177362678759,0.19968234899570314,0.6708437814304546,0.06373233917655181
9.515,9.15,0.65,0.017980363951450765,0.9819473848128952,0.3990218897999933,0.19776271106994445,0.6698772962453623,0.0647933641738422
9.576,9.2,0.65,0.018266020651739837,0.9816620460834149,0.3988377235242709,0.19585367707768922,0.6688688456970684,0.06585460743064622
9.618,9.26,0.66,0.01854786156939021,0.981380559779725,0.39862518599194346,0.19395512284470945,0.6678186166801686,0.06691532755037699
9.66,9.31,0.66,0.01882576090280965,0.9811030501542999,0.39838460569360157,0.1920669199335209,0.666726806880947,0.06797480591899406
9.721,9.37,0.64,0.019099595397215896,0.9808296388728475,0.39811631730280306,0.1901889362808482,0.6655936248695528,0.06903234684573482
9.783,9.42,0.62,0.019369244291464586,0.9805604450708085,0.3978206615039373,0.1883210368300934,0.6644192901842552,0.07008727768860103
9.845,9.48,0.64,0.019634589269526385,0.980295585405188,0.397497984815717,0.18646308415770554,0.6632040334078017,0.07113894896472973
9.967,9.53,0.61,0.019895514416707765,0.9800351741016229,0.39714863941077,0.18461493909269114,0.6619480962359021,0.07218673444582467
9.988,9.59,0.6,0.02015190618068915,0.9797793229966065,0.396772982931741,0.18277646132888004,0.6606517315378283,0.07323003123885526
10.01,9.64,0.63,0.02040365333743264,0.9795281415748172,0.3963713783042384,0.18094751002979415,0.6593152034090758,0.07426825985221686
10.05,9.7,0.64,0.020650646961992026,0.9792817370015116,0.3959441935468925,0.17912794442597046,0.6579387872160023,0.07530086424749795
10.112,9.75,0.62,0.020892780404241213,0.9790402141499666,0.39549180157875324,0.17731762440445492,0.656522769632337,0.07632731187696713
10.175,9.81,0.64,0.021129949269522635,0.9788036756239632,0.39501458002424417,0.17551641109006536,0.6550674486674604,0.07734709370690265
10.237,9.86,0.65,0.021362051404201502,0.9785722217753242,0.3945129110158902,0.17372416741799174,0.6535731336863886,0.07835972422692934
10.299,9.91,0.63,0.02158898688609501,0.9783459507165321,0.39398718099509766,0.17194075869732028,0.6520401454214547,0.07936474144560225
10.32,9.97,0.62,0.021810658019726713,0.9781249583284731,0.3934377805113245,0.1701660531651411,0.6504688159757265,0.08036170687256691
10.381,10.03,0.64,0.022026969336338513,0.9779093382633727,0.3928651040200576,0.16839992253098798,0.6488594888182516,0.081350205487689
10.442,10.08,0.61,0.02223782759857539,0.9776991819429992,0.3922695496800603,0.16664224251143192,0.6472125187712617,0.08232984569758081
10.504,10.14,0.59,0.022443141809739303,0.9774945785522392,0.39165151915039076,0.16489289335467616,0.6455282719894772,0.08330025927996046
10.545,10.19,0.6,0.02264282322748891,0.9772956150281594,0.3910114173877053,0.16315176035497234,0.6438071259316598,0.08426110131626136
10.606,10.25,0.58,0.022836785381842917,0.9771023760447002,0.39034965244434705,0.1614187343565991,0.6420494693245419,0.08521205011286552
10.668,10.3,0.57,0.023024944097330323,0.9769149439931484,0.3896666352676739,0.15969371224705364,0.6402557021192156,0.08615280711129482
10.729,10.36,0.58,0.023207217519118657,0.97673339895856,0.3889627795009835,0.15797659743905967,0.6384262354400171,0.08708309678765967
10.77,10.41,0.59,0.023383526142939898,0.9765578186923104,0.38823850128628296,0.15626730034098302,0.636561491525884,0.08800266654164393
10.831,10.47,0.58,0.023553792848623238,0.9763882785809598,0.38749421906906595,0.15456573881524546,0.6346619036641343,0.08891128657530761
10.891,10.52,0.61,0.02371794293703464,0.976224851611633,0.3867303534052348,0.15287183862434336,0.6327279161165948,0.08980874976202423
10.933,10.58,0.64,0.023875904170217184,0.9760676083341171,0.38594732677033,0.15118553386410818,0.6307599840380419,0.09069487150588408
10.993,10.63,0.62,0.024027606814520798,0.9759166168198877,0.3851455633713051,0.14950676738383656,0.6287585733869764,0.09156948959183024
11.055,10.69,0.6,0.0241729836865026,0.9757719426182799,0.38432548896116764,0.14783549119285072,0.6267241608288525,0.09243246402661437
11.117,10.74,0.61,0.024311970201368428,0.9756336487100357,0.3834875306568742,0.14617166685292843,0.6246572336319969,0.09328367687039517
11.158,10.8,0.6,0.024444504423715055,0.9755017954584675,0.38263211676092035,0.14451526585588878,0.6225582895565465,0.09412303205856326
11.241,10.85,0.52,0.02457052712032368,0.9753764405584896,0.3817596765870889,0.14286626998547597,0.6204278367367793,0.09495045521324617
11.261,10.91,0.52,0.024689981814749896,0.9752576389837703,0.38087064029080636,0.14122467166261896,0.6182663935572131,0.09576589344394687
11.322,10.96,0.52,0.024802814843451915,0.9751454429322666,0.3799654387045129,0.13959047427318266,0.6160744885227885,0.09656931513690434
11.406,11.02,0.51,0.024908975413195877,0.9750399017703985,0.3790445031783681,0.13796369247744872,0.6138526601233428,0.09736070973304721
11.427,11.07,0.51,0.025008415659474054,0.9749410619761286,0.3781082654265053,0.13634435250073954,0.6116014566924483,0.09814008749475797
11.488,11.13,0.53,0.025101090705670882,0.9748489670812115,0.3771571573789368,0.13473249240475796,0.6093214362605724,0.09890747926193105
11.549,11.18,0.51,0.025186958722713582,0.9747636576128724,0.37619161103914417,0.13312816233929056,0.6070131664024793,0.09966293619792745
11.611,11.24,0.5,0.02526598098894704,0.9746851710351794,0.37521205834737414,0.131531424773911,0.6046772240787808,0.10040652952605132
11.673,11.29,0.52,0.02533812194997577,0.9746135416903623,0.37421893104966425,0.1299423547092756,0.6023141954715737,0.10113835025715735
11.694,11.35,0.51,0.025403349278221337,0.9745488007403315,0.37321266057263963,0.1283610398675434,0.5999246758141193,0.1018585089089701
11.817,11.4,0.49,0.025461633931952655,0.9744909761086383,0.37219367790412566,0.12678758086139594,0.5975092692145471,0.10256713521767277
11.837,11.46,0.48,0.025512950213555836,0.9744400924231149,0.3711624134796201,0.12522209134113227,0.5950685884735746,0.10326437784231801
11.878,11.51,0.48,0.025557275826815613,0.9743961709594164,0.37011929707463875,0.12366469811936716,0.592603254896246,0.10395040406261191
11.939,11.57,0.45,0.025594591932980974,0.9743592295857038,0.36906475770292074,0.12211554127293318,0.5901138980976727,0.10462539947064589
12.002,11.62,0.43,0.02562488320538578,0.9743292827086933,0.3679992235204079,0.12057477422169283,0.587601155802728,0.10528956765717482
12.063,11.68,0.45,0.02564813788239545,0.9743063412213088,0.36692312173479685,0.11904256378412421,0.5850656736396004,0.10594312989302467
12.147,11.73,0.43,0.025664347818454152,0.9742904124521602,0.36583687852030694,0.11751909020970362,0.582508104927054,0.10658632480613894
12.168,11.79,0.43,0.02567350853301365,0.974281500117077,0.3647409189371395,0.11600454718820215,0.579929110455184,0.1072194080546609
12.21,11.84,0.44,0.02567561925713174,0.974279604272905,0.36363566685497273,0.11449914183601614,0.5773293582594126,0.10784265199632093
12.293,11.9,0.44,0.025670682977536635,0.9742847212737783,0.36252154487976346,0.11300309465957653,0.5747095233874396,0.10845634535428929
12.312,11.95,0.44,0.025658706477963613,0.9742968437300572,0.36139897428314094,0.11151663949579078,0.5720702876588715,0.10906079287960144
12.375,12.01,0.45,0.02563970037758036,0.9743159604701223,0.36026837493372316,0.11004002342944097,0.5694123394172635,0.10965631501025838
12.417,12.06,0.45,0.02561367916632513,0.9743420565051971,0.35913016522975827,0.10857350668750607,0.5667363732743602,0.110243247527122
12.54,12.12,0.43,0.025580661236986237,0.9743751129973754,0.35798476203256707,0.10711736251045045,0.5640430898463616,0.11082194120675203
12.561,12.17,0.42,0.025540668913855397,0.9744151072310167,0.3568325806003289,0.10567187700060404,0.5613331954820977,0.11139276147135069
12.582,12.23,0.43,0.02549372847779144,0.974462012587679,0.35567403452179475,0.10423734894783472,0.5586074019830338,0.11195608803598771
12.644,12.28,0.4,0.02543987018753697,0.9745157985247395,0.35450953564953075,0.1028140896327498,0.5558664263150557,0.11251231455325766
12.705,12.34,0.38,0.025379128297137184,0.9745764305578591,0.35333949403228326,0.10140242260764151,0.5531109903119866,0.11306184825548697
12.746,12.39,0.39,0.0253115410693183,0.9746438702474285,0.352164317846008,0.10000268345534163,0.5503418203707671,0.1136051095945488
12.809,12.45,0.39,0.025237150784694386,0.974718075189129,0.3509844133230534,0.09861521952607537,0.54755964713819,0.1141425318792729
12.891,12.5,0.39,0.02515600374668666,0.9747989990087248,0.3498001846789471,0.0972403896523196,0.5447652051890525,0.11467456091037802
12.912,12.56,0.4,0.025068150282056653,0.9748865913611838,0.34861203403621926,0.09587856384162087,0.5419592326955455,0.11520165461282625
12.974,12.61,0.41,0.024973644736971445,0.9749807979342108,0.34742036134472626,0.09453012294734364,0.5391424710877356,0.11572428266550054
13.036,12.66,0.4,0.02487254546853423,0.975081560456262,0.3462255642979895,0.09319545831741127,0.5363156647050183,0.11624292612812541
13.118,12.72,0.4,0.02476491483172637,0.9751888167090943,0.3450280382451273,0.09187497142127211,0.533479560438506,0.11675807706538117
13.16,12.78,0.41,0.02465081916172079,0.9753025005448916,0.343828176098015,0.09056907345551554,0.5306349073643852,0.11727023816816963
13.18,12.83,0.4,0.024530328751542554,0.9754225419079953,0.34262636823338666,0.08927818492868525,0.5277824563683601,0.11777992237197214
13.242,12.89,0.38,0.02440351782506872,0.975548866861246,0.34142300238969764,0.08800273522585743,0.5249229597613597,0.11828765247221143
13.303,12.94,0.38,0.024270464505375972,0.9756813976169327,0.34021846355867147,0.08674316215350193,0.5220571708867444,0.11879396073648256
13.365,13.0,0.36,0.024131250778459575,0.9758200525723296,0.3390131338715274,0.08549991146506782,0.5191858437192839,0.11929938851346931
13.426,13.05,0.34,0.023985962452362994,0.9759647463497794,0.33780739247990227,0.0842734363676885,0.5163097324561976,0.11980448583832708
13.488,13.11,0.35,0.023834689111773652,0.9761153898412749,0.3366016154314248,0.08306419701044263,0.5134295911005414,0.12030981103431668
13.529,13.16,0.36,0.02367752406815516,0.97627189025747,0.3353961755397939,0.08187265995474294,0.510546173037206,0.1208159303105064
13.63,13.22,0.36,0.023514564305498337,0.9764341511810374,0.3341914422491065,0.08069929762761037,0.5076602306017711,0.12132341735541037
13.65,13.27,0.35,0.02334591042178288,0.9766020726242882,0.33298778149210345,0.07954458775878562,0.5047725146424682,0.1218328529264697
13.69,13.33,0.38,0.023171666566251123,0.9767755510909518,0.33178555554198813,0.07840901280281529,0.5018837740755451,0.12234482443528819
13.752,13.38,0.36,0.022991940372606896,0.9769544796420041,0.33058512285752756,0.07729305934736842,0.4989947554344097,0.12285992552850228
13.793,13.44,0.35,0.02280684288826533,0.9771387479654248,0.3293868379212404,0.07619721750909987,0.4961062024130153,0.12337875566411559
13.855,13.49,0.35,0.022616488499792045,0.977328242449741,0.3281910510705831,0.07512198031839733,0.4932188554040498,0.12390191968307004
13.918,13.55,0.34,0.02242099485468277,0.9775228462612119,0.3269981083221607,0.07406784309433474,0.49033345103256387,0.12443002737577782
13.98,13.6,0.31,0.022220482779649508,0.9777224394244822,0.3258083511890958,0.0730353028111254,0.4874507216857343,0.12496369304333596
14.021,13.66,0.28,0.022015076195595718,0.9779268989065265,0.3246221164917722,0.0720248574573811,0.4845713950394897,0.12550353505319278
14.062,13.71,0.27,0.02180490202947745,0.9781360987036836,0.32343973616221877,0.07103700538955215,0.48169619358273946,0.1260501753891188
14.124,13.77,0.24,0.021590090123256262,0.9783499099315719,0.32226153704242105,0.07007224468099493,0.4788258341399234,0.12660423919546548
14.186,13.82,0.24,0.02137077314015362,0.9785682009176783,0.3210878406768407,0.06913107246818774,0.4759610273925422,0.1271663543158697
14.247,13.88,0.27,0.021147086468417953,0.9787908372964033,0.31991896309937423,0.06821398429567106,0.47310247740025085,0.1277371508267325
14.289,13.93,0.26,0.020919168122818254,0.9790176821063508,0.31875521461493667,0.0673214734612878,0.47025088112203245,0.12831726056591589
14.35,13.99,0.25,0.020687158644080307,0.9792485958896441,0.3175968995758491,0.06645403036323332,0.46740692793794775,0.12890731665713778
14.432,14.04,0.26,0.020451200996481737,0.9794834367930529,0.3164443161532509,0.06561214185033643,0.4645712991719753,0.12950795303052573
14.452,14.1,0.26,0.020211440463818984,0.9797220606707205,0.3152977561038484,0.06479629057691391,0.4617446676165238,0.13011980393973877
14.513,14.15,0.24,0.019968024543953605,0.9799643211882798,0.31415750453241376,0.06400695436349615,0.4589276970592694,0.13074350347603803
14.554,14.21,0.23,0.01972110284213613,0.9802100699281643,0.31302383965056496,0.06324460556474364,0.45612104181303903,0.1313796850796878
14.615,14.26,0.22,0.019470826963292255,0.9804591564959271,0.31189703253246714,0.06250971044592843,0.45332534624951415,0.1320289810490975
14.718,14.32,0.19,0.01921735040343613,0.9807114286274033,0.3107773468682234,0.0618027285693787,0.45054124433756526,0.13269202204816619
14.739,14.37,0.17,0.01896082844035026,0.9809667322965777,0.3096650387158192,0.0611241121922436,0.4477693591870321,0.13336943661235176
14.781,14.43,0.17,0.018701418023645274,0.9812249118240418,0.30856035625254613,0.06047430567678454,0.4450103025987515,0.13406185065402537
14.842,14.48,0.15,0.01843927766429001,0.9814858099859562,0.30746353952686223,0.05985374491414559,0.44226467462159974,0.1347698869676745
14.883,14.54,0.14,0.018174567323683645,0.9817492681234433,0.30637482021163914,0.059262856762276765,0.4395330631172694,0.1354941647354795
14.945,14.59,0.16,0.017907448302324006,0.9820151262523577,0.30529442135970136,0.05870205849847566,0.43681604333345714,0.13623529903371293
15.006,14.65,0.16,0.01763808312810754,0.9822832231733993,0.304222557162511,0.05817175728686456,0.4341141774861193,0.13699390034031744
15.11,14.7,0.14,0.01736663544428039,0.9825533965825539,0.3031594327128377,0.05767234966100738,0.431428014351453,0.13777057404394585
15.131,14.76,0.13,0.017093269897046168,0.9828254831818503,0.3021052437722792,0.057204221021815986,0.4287580888682939,0.1385659199547155
15.173,14.81,0.14,0.016818152022824124,0.9830993187904475,0.3010601765445435,0.05676774515092037,0.4261049217516648,0.1393805318169367
15.234,14.87,0.11,0.01654144813513782,0.9833747384560749,0.30002440745545567,0.05636328373975441,0.42346901911824303,0.14021499682412025
15.297,14.92,0.09,0.016263325211099702,0.983651576566856,0.2989981029406846,0.0559911859347105,0.42085087212453776,0.14106989513663576
15.358,14.98,0.1,0.015983950777443495,0.9839296669635753,0.2979814192421933,0.05565178789879568,0.41825095661857253,0.1419457994024503
15.461,15.03,0.07,0.0157034927960463,0.984208843052444,0.2969745022144158,0.05534541239023075,0.4156697328058605,0.14284327428141044
15.481,15.09,0.03,0.015422119548875892,0.9844889379184341,0.2959774871411439,0.05507236835836573,0.4131076449304327,0.14376287597353063
15.501,15.14,0.03,0.015139999522294218,0.9847697844392511,0.2949904985640606,0.05483295055720245,0.4105651209716441,0.14470515175172521
15.563,15.2,0.02,0.01485730129064705,0.9850512154000236,0.2940136501237797,0.05462743917672909,0.4080425723574307,0.14567063949938452
15.603,15.25,0.01,0.014574193399071924,0.9853330636087732,0.2930470444141617,0.054456099492189165,0.40554039369461636,0.14665986725318597
15.666,15.31,0.01,0.014290844245461037,0.9856151620127351,0.29209077285058105,0.054319181531355294,0.4030589625167926,0.1476733527515528
15.708,15.36,0.02,0.014007421961520992,0.9858973438155881,0.29114491555274,0.054216919759881854,0.40059863905023835,0.14871160298919406
15.811,15.41,-0.0,0.013724094292877045,0.9861794425956483,0.2902095412425836,0.05414953278484853,0.398159765998325,0.14977511377817082
15.832,15.47,-0.02,0.013441028478177165,0.9864612924250714,0.289284707157864,0.0541172230766635,0.3957426683448522,0.15086436931594507
15.873,15.53,-0.0,0.013158391127161877,0.9867427279901059,0.28837045898190594,0.05412017670956205,0.3933476531767756,0.1519798417608638
15.933,15.58,-0.02,0.012876348097680033,0.9870235847124142,0.28746683079013663,0.0541585631209618,0.39097500952678843,0.15312199081551806
15.995,15.64,-0.03,0.012595064371646297,0.9873036988714733,0.2865738450139576,0.054232534889919026,0.38862500823622304,0.154291263318394
16.037,15.69,-0.04,0.012314703929950268,0.9875829077280451,0.2856915124225402,0.05434222753486831,0.386297901838722,0.1554880928441894
16.098,15.75,-0.06,0.012035429626338268,0.987861049648703,0.2848198321231334,0.054487759330729996,0.3839939244651308,0.15671289931310603
16.223,15.8,-0.1,0.011757403060297265,0.9881379642313814,0.28395879158046355,0.0546692311453423,0.38171329177005353,0.15796608860936803
16.243,15.86,-0.11,0.011480784448977549,0.988413492431921,0.2831083666557601,0.05488672629507453,0.37945620088048826,0.15924805220918714
16.285,15.91,-0.09,0.011205732498197162,0.9886874766915645,0.2822685216658339,0.05514031041945591,0.37722283036689747,0.1605591668184086
16.367,15.97,-0.12,0.010932404272577476,0.9889597610653598,0.281439209462493,0.05543003137469128,0.3750133402369789,0.16189979402012392
16.388,16.02,-0.14,0.010660955064864553,0.9892301913514168,0.28062037153242514,0.05575591914602483,0.37282787195230205,0.1632702799325905
16.429,16.07,-0.12,0.010391538264496215,0.9894986152209618,0.27981193811755867,0.05611798577901086,0.3706665484679069,0.1646709548778267
16.49,16.13,-0.14,0.010124305225482398,0.9897648823491249,0.27901382835585053,0.056516225329800475,0.3685294742949217,0.166102133061251
16.552,16.18,-0.16,0.009859405133676634,0.9900288445463823,0.27822595044242737,0.05695061383452798,0.36641673558622173,0.16756411226273094
16.612,16.24,-0.16,0.009596984873527715,0.9902903558905679,0.27744820181099866,0.05742110929783275,0.3643284002451211,0.1690571735394036
16.654,16.3,-0.17,0.00933718889441153,0.9905492728593547,0.2766804693354477,0.05792765170049477,0.3622645180570537,0.1705815809406108
16.715,16.35,-0.21,0.009080159076652824,0.9908054544630958,0.27592262955149505,0.05847016302610678,0.36022512084416014,0.17213758123527656
16.777,16.41,-0.23,0.008826034597353668,0.9910587623779143,0.2751745488982918,0.0590485473066873,0.3582102226426426,0.17372540365205322
16.819,16.46,-0.25,0.008574951796149692,0.9913090610789188,0.2744360839797328,0.059662690687153956,0.35621981990267704,0.17534525963258468
16.923,16.51,-0.28,0.00832704404101606,0.991556217973427,0.2737070818451723,0.06031246150859749,0.3542538917105667,0.17699734259828612
16.944,16.57,-0.3,0.008082441594244507,0.9918001035340804,0.2729873802890731,0.06099771041033716,0.3523124000326758,0.17868182773112362
17.007,16.62,-0.26,0.007841271478713507,0.9920405914317281,0.27227680816893174,0.06171827045078995,0.35039528998052666,0.18039887176895628
17.027,16.68,-0.27,0.007603657344580255,0.9922775586679544,0.27157518574063266,0.062473957247193346,0.3485024900962876,0.18214861281605627
17.088,16.73,-0.28,0.007369719336538005,0.9925108857071069,0.2708823250102363,0.06326456913416666,0.3466339126577625,0.18393117016943913
17.151,16.79,-0.26,0.007139573961802462,0.9927404566076637,0.27019803010110377,0.06408988734101904,0.34478945400192856,0.1857466441616145
17.193,16.84,-0.26,0.006913333959012067,0.9929661591527545,0.26952209763521007,0.06494967618765168,0.3429689948660552,0.1875951160203192
17.296,16.9,-0.28,0.006691108168246318,0.9931878849796337,0.26885431712750363,0.06584368329885106,0.3411724007454508,0.18947664774575765
17.317,16.95,-0.29,0.006473001402382078,0.9934055297078823,0.26819447139219244,0.06677163983675632,0.3393995222668982,0.19139128200585745
17.358,17.01,-0.28,0.006259114320020523,0.9936189930661097,0.267542336959878,0.06773326075130287,0.3376501955768542,0.19333904205004596
17.421,17.07,-0.3,0.006049543300227099,0.9938281790169082,0.26689768450449425,0.06872824504846713,0.3359242427434786,0.19531993164206132
17.483,17.12,-0.33,0.0058443803193341855,0.9940329958798113,0.2662602792790256,0.06975627607614444,0.33422147217152776,0.1973339350123317
17.543,17.17,-0.32,0.0056437128300623005,0.9942333564519946,0.2656298815589622,0.0708170218274721,0.33254167902909426,0.19938101683046047
17.586,17.23,-0.33,0.005447623643224581,0.9944291781264537,0.2650062470924038,0.07191013526133916,0.33088464568510256,0.20146112219833512
17.688,17.28,-0.33,0.005256190812290575,0.9946203830073788,0.26438912755564264,0.07303525463971716,0.3292501421563854,0.20357417666434005
17.709,17.34,-0.31,0.005069487521096772,0.9948068980224366,0.2637782710129538,0.07419200388134507,0.3276379265630821,0.2057200862590973
17.75,17.39,-0.3,0.004887581975001914,0.9949886550316588,0.263173422379215,0.07537999293124809,0.32604774559104316,0.20789873755309135
17.813,17.45,-0.3,0.004710537295793475,0.9951655909326289,0.26257432388391694,0.07659881814556133,0.32447933495990555,0.2101099977364826
17.874,17.5,-0.27,0.004538411420660291,0.9953376477616542,0.2619807155351065,0.07784806269119582,0.32293241989552207,0.2123537147213831
17.915,17.56,-0.25,0.0043712570055536885,0.9955047727905943,0.26139233558183766,0.0791272969600134,0.3214067156054803,0.21462971726683194
18.039,17.61,-0.27,0.004209121333263896,0.9956669186190252,0.26080892097376973,0.08043607899730568,0.31990192775652476,0.2169378151266096
18.06,17.67,-0.29,0.004052046226540506,0.9958240432614065,0.2602302078166232,0.08177395494445643,0.31841775295279084,0.21927779921985005
18.08,17.73,-0.27,0.0039000679665852733,0.9959761102289242,0.2596559318222701,0.08314045949569597,0.3169538792138548,0.22164944182417126
18.144,17.78,-0.26,0.0037532172172461994,0.9961230886056823,0.2590858287522863,0.08453511636880974,0.31550998645168016,0.2240524967908446
18.185,17.83,-0.29,0.0036115189552435433,0.9962649531189104,0.2585196348538272,0.0859574387895636,0.3140857469455631,0.22648669978142777
18.288,17.89,-0.29,0.0034749924067568262,0.9964016842028605,0.25795708728668276,0.0874069299895324,0.3126808258141924,0.22895176852525892
18.309,17.94,-0.27,0.003343650990696169,0.9965332680560647,0.25739792454032634,0.08888308371697673,0.3112948814839478,0.23144740309719503
18.39,18.0,-0.28,0.003217502268971095,0.9966596966916454,0.2568418868396988,0.09038538476040583,0.3099275661525789,0.2339732862149621
18.41,18.05,-0.28,0.003096547904058859,0.996780967980367,0.25628871653839624,0.091913309484481,0.3085785262474107,0.23652908355547986
18.472,18.11,-0.25,0.0029807836241623345,0.9968970856861435,0.2557381584978871,0.09346632637794736,0.30724740287724184,0.23911444408952215
18.534,18.16,-0.26,0.0028701991962357667,0.9970080594937174,0.2551899604514151,0.09504389661328523,0.30593383227712495,0.24172900043407552
18.575,18.22,-0.27,0.0027647784071435063,0.9971139050282471,0.2546438733513275,0.09664547461774593,0.30463744624527384,0.24437236922176328
18.638,18.27,-0.24,0.002664499053202472,0.99721464386655,0.25409965169868576,0.09827050865540196,0.30335787257140195,0.24704415148668607
18.7,18.33,-0.25,0.002569332938345778,0.997310303539762,0.25355705385413807,0.09991844141977328,0.30209473545587157,0.24974393306599188
18.783,18.39,-0.27,0.002479245881132876,0.9974009175271917,0.25301584232915497,0.10158871063648585,0.3008476559190955,0.2524712850164529
18.804,18.44,-0.27,0.0023941977308170525,0.9974865252411552,0.25247578405683274,0.10328074967531466,0.2996162522006966,0.25522576404530745
18.845,18.5,-0.27,0.002314142392663358,0.9975671720025958,0.25193665064157816,0.10499398817086529,0.29840014014797694,0.25800691295462486
18.927,18.55,-0.3,0.0022390278626879083,0.9976429090073232,0.2513982185871084,0.10672785265104723,0.2971989335932824,0.26081426109847805
18.968,18.6,-0.31,0.002168796271966464,0.9977137932827167,0.25086026950235885,0.10848176717239201,0.29601224471985427,0.2636473248522567
19.031,18.66,-0.28,0.002103383940636861,0.9977798876347681,0.2503225902850444,0.11025515396116688,0.29483968441574837,0.2665056080934771
19.136,18.71,-0.29,0.0020427214416977504,0.9978412605853614,0.24978497328274168,0.11204743405911155,0.29368086261538195,0.2693886026934513
19.156,18.77,-0.29,0.0019867336746847725,0.9978979862997047,0.24924721643142728,0.1138580279725055,0.29253538862824086,0.27229578901916446
19.198,18.82,-0.25,0.0019353399492862567,0.9979501445038518,0.24870912337144704,0.1156863563231703,0.29140287145428984,0.27522663644466755
19.239,18.88,-0.26,0.001888454078944767,0.9979978203922648,0.24817050354096057,0.11753184049992792,0.2902829200856763,0.27818060387121823
19.301,18.93,-0.27,0.0018459844844782001,0.9980411045253862,0.24763117224700285,0.11939390330898182,0.2891751437944044,0.2811571402553283
19.364,18.99,-0.26,0.00180783430773974,0.9980800927171958,0.24709095071441503,0.1212719696217095,0.2880791524057576,0.2841556851438245
19.406,19.05,-0.25,0.0017739015353159069,0.9981148859127558,0.24654966611300003,0.12316546701843888,0.28699455655735256,0.2871756692150069
19.489,19.1,-0.26,0.0017440791322330374,0.9981455900557712,0.24600715156335812,0.12507382642689588,0.2859209679437992,0.29021651482499794
19.51,19.16,-0.29,0.001718255185609065,0.9981723159462298,0.2454632461219401,0.12699648275414435,0.2848579995470118,0.29327763655841466
19.573,19.21,-0.28,0.0016963130581545752,0.9981951790882149,0.24491779474591618,0.12893287551098798,0.28380526585228005,0.2963584417825165
19.634,19.26,-0.3,0.0016781315513983333,0.9982142995280177,0.24437064823849666,0.1308824494279112,0.28276238305024776,0.29945833120399373
19.696,19.32,-0.32,0.0016635850784866605,0.9982298016826994,0.24382166317536302,0.13284465506166787,0.28172896922496105,0.30257669942757404
19.757,19.37,-0.29,0.0016525438463836665,0.9982418141592732,0.2432707018128664,0.134818949391587,0.28070464452813665,0.3057129355156273
19.798,19.43,-0.29,0.0016448740472812106,0.9982504695647022,0.24271763197863971,0.13680479640458146,0.2796890313397836,0.30886642354793503
19.861,19.48,-0.29,0.0016404380590136348,0.9982559043069116,0.24216232694526343,0.1388016676677569,0.2786817544153055,0.3120365431807783
19.923,19.54,-0.29,0.0016390946542600602,0.9982582583870406,0.2416046652876368,0.1408090428874973,0.27768244101923056,0.31522267020449624
19.944,19.59,-0.28,0.0016406992183019102,0.998257675183161,0.24104453072475435,0.14282641045396866,0.276690721045779,0.3184241770986895
20.006,19.65,-0.29,0.0016451039750864946,0.9982543012257177,0.24048181194666862,0.1448532679701153,0.2757062271265515,0.32164043358429484
20.067,19.7,-0.3,0.0016521582213298,0.9982482859649546,0.23991640242752074,0.14688912276438548,0.27472859472569927,0.3248708071718459
20.108,19.76,-0.28,0.001661708568376656,0.9982397815306124,0.23934820022562325,0.14893349238655895,0.2737574622230144,0.32811466370531883
20.233,19.82,-0.3,0.001673599191525559,0.9982289424841873,0.23877710777168365,0.15098590508608098,0.27279247098543985,0.3313713679010186
20.254,19.87,-0.33,0.0016876720865182722,0.9982159255640533,0.23820303164634146,0.15304590027225443,0.2718332654275581,0.3346402838809847
20.296,19.92,-0.32,0.0017037673328884563,0.9982008894237548,0.23762588234823503,0.155113028955556,0.2708794930616537,0.3379207757003844
20.357,19.98,-0.34,0.001721723363857006,0.9981839943637808,0.23704557405381513,0.1571868541692697,0.26993080453796764,0.3412122078683447
20.398,20.03,-0.35,0.0017413772424540834,0.9981654020571372,0.23646202437009042,0.1592669513705802,0.26898685367575,0.34451394586166684
20.439,20.09,-0.34,0.0017625649435374074,0.9981452752690556,0.23587515408141493,0.16135290882030576,0.26804729748568823,0.3478253566308922
20.501,20.14,-0.32,0.0017851216413632305,0.9981237775711707,0.23528488689132795,0.1634443279405757,0.2671117961842622,0.3511458090982153
20.604,20.2,-0.33,0.0018088820023518261,0.9981010730505252,0.2346911491603612,0.16554082364995992,0.2661800132005742,0.35447467464677945
20.625,20.25,-0.34,0.0018336804826754392,0.9980773260137713,0.23409386964066684,0.16764202467580322,0.265251615176228,0.35781132760093826
20.668,20.31,-0.32,0.0018593516302878002,0.9980527006869405,0.23349297920831652,0.1697475738437562,0.26432627195888453,0.36115514569710727
20.728,20.36,-0.34,0.0018857303910088958,0.9980273609111615,0.23288841059416837,0.1718571283446519,0.2634036565901869,0.36450551054486485
20.789,20.42,-0.36,0.00191265241827378,0.9980014698347114,0.23228009811427416,0.17397035997894406,0.2624834452887953,0.3678618080779802
20.829,20.48,-0.35,0.0019399543861478154,0.9979751896017867,0.23166797740086276,0.17608695537892657,0.2615653174293212,0.37122342899504834
20.891,20.53,-0.37,0.001967474305204962,0.9979486810383921,0.23105198513500194,0.17820661620888997,0.26064895551797906,0.37458976918939235
20.973,20.58,-0.4,0.0019950518408599674,0.9979221033357425,0.23043205878208667,0.18032905934327428,0.259734045165792,0.3779602301678982
20.994,20.64,-0.41,0.0020225286337401454,0.9978956137315892,0.22980813633131875,0.18245401702282985,0.25882027506017524,0.38133421945847806
21.054,20.69,-0.4,0.0020497486216730964,0.9978693671898824,0.2291801560403125,0.18458123698883158,0.257907336935693,0.3847111510059214
21.115,20.75,-0.42,0.002076558362854049,0.9978435160791992,0.22854805618590476,0.18671048259546646,0.25699492554473263,0.38809044555596595
21.156,20.8,-0.42,0.0021028073597417897,0.9978182098503822,0.22791177482216332,0.18884153290059322,0.2560827386287774,0.39147153102748666
21.217,20.86,-0.4,0.0021283483832197133,0.9977935947138461,0.22727124954651484,0.19097418273511862,0.25517047689091427,0.39485384287273123
21.279,20.91,-0.41,0.0021530377965515105,0.9977698133170159,0.22662641727487265,0.19310824275119548,0.254257843970196,0.3982368244255133
21.361,20.97,-0.43,0.0021767358786594026,0.9977470044223656,0.2259772140266621,0.19524353944932027,0.2533445464184872,0.40161992723723844
21.382,21.02,-0.42,0.002199307146253125,0.9977253025865285,0.22532357472069187,0.1973799151842511,0.25243029368045145,0.4050026114005826
21.443,21.08,-0.43,0.0022206206743391375,0.9977048378409413,0.22466543298288547,0.199517228149513,0.25151479807736515,0.40838434586059286
21.484,21.14,-0.46,0.0022405504146418794,0.9976857353744933,0.2240027209669361,0.2016553523401457,0.25059777479545553,0.41176460871296156
21.546,21.19,-0.47,0.002258975511469796,0.9976681152186408,0.22333536918894803,0.2037941774933298,0.24967894187945716,0.41514288748925204
21.609,21.25,-0.47,0.0022757806145570405,0.9976520919354606,0.22266330637707898,0.20593360900660293,0.248758020232061,0.41851867942890486
21.691,21.3,-0.5,0.002290856188406774,0.9976377743091099,0.2219864593371074,0.2080735678335087,0.24783473361988684,0.42189149173792806
21.711,21.35,-0.52,0.0023040988176553394,0.9976252650411805,0.22130475283473766,0.21021399035665492,0.24690880868654547,0.4252608418342419
21.774,21.41,-0.5,0.002315411507972429,0.9976146604504278,0.2206181094953292,0.2123548282382791,0.24597997497327817,0.4286262575796903
21.814,21.46,-0.51,0.002324703982011478,0.9976060501773657,0.21992644972159162,0.2144960482484919,0.2450479649475751,0.43198727749874416
21.876,21.52,-0.52,0.0023318929699267786,0.9975995168942164,0.21922969162963896,0.21663763207140113,0.2441125140400898,0.4353434509839159
21.937,21.57,-0.51,0.0023369024939779498,0.9975951360206922,0.2185277510036585,0.21877957608931492,0.2431733606901059,0.43869433848788125
22.0,21.63,-0.52,0.0023396641467477055,0.997592975446092,0.21782054126936054,0.2209218911451892,0.24223024639978397,0.4420395117022722
22.083,21.68,-0.54,0.0023401173625072587,0.9975930952581838,0.21710797348634422,0.22306460228342875,0.24128291579740296,0.44537855372309215
22.124,21.74,-0.54,0.0023382096812741156,0.9975955474793282,0.21638995635950092,0.22520774846912378,0.2403311167097992,0.44871105920272764
22.145,21.8,-0.54,0.00233389700511773,0.9976003758102977,0.2156663962695598,0.2273513822858349,0.23937460024418966,0.45203663448857984
22.209,21.85,-0.57,0.0023271438462778692,0.9976076153822327,0.21493719732285196,0.22949556961210898,0.2384131208795369,0.4553548977483999
22.25,21.91,-0.59,0.0023179235666682093,0.997617292517167,0.21420226142030485,0.23164038927701971,0.23744643656756761,0.458665479082478
22.312,21.96,-0.58,0.002306218608345496,0.9976294244975501,0.21346148834558334,0.23378593269516984,0.23647430884349754,0.46196802062288306
22.374,22.01,-0.61,0.00229202071453481,0.9976440193451843,0.21271477587216386,0.23593230348171326,0.23549650294643415,0.4652621766199675
22.434,22.07,-0.63,0.0022753311408136947,0.9976610756099782,0.21196201988898095,0.23807961704802563,0.23451278794932878,0.4685476135163598
22.495,22.12,-0.62,0.0022561608560723156,0.9976805821689051,0.2112031145441169,0.24022800017866464,0.23352293689823636,0.4718240100086484
22.536,22.18,-0.61,0.002234530732883142,0.9977025180355402,0.21043795240584892,0.24237759059021144,0.23252672696052776,0.47509105709694066
22.599,22.23,-0.62,0.0022104717269328493,0.9977268521805257,0.20966642464024912,0.24452853647249942,0.23152393958159617,0.4783484581224788
22.661,22.29,-0.61,0.0021840250451908437,0.997753543363295,0.2088884212044505,0.2466809960127045,0.23051436064951697,0.48159592879352153
22.701,22.34,-0.59,0.0021552423025095477,0.9977825399753614,0.20810383105465355,0.24883513690284118,0.22949778066707868,0.4848331971997383
22.805,22.4,-0.61,0.00212418566637056,0.9978137798954633,0.20731254236793298,0.2509911358313568,0.22847399493059056,0.48806000381539943
22.825,22.45,-0.62,0.002090927989506762,0.997847190356832,0.20651444277690634,0.25314917795970243,0.22744280371488054,0.49127610149168566
22.867,22.51,-0.59,0.00205555293014765,0.9978826878268394,0.2057094196163167,0.2553094563849574,0.22640401246391137,0.4944812554384481
22.93,22.57,-0.61,0.0020181550596548234,0.9979201778992541,0.20489736018056198,0.2574721715897655,0.22535743198645608,0.49767524319573475
22.972,22.62,-0.64,0.0019788399573372507,0.9979595551993206,0.20407815199116427,0.2596375308809817,0.2243028786562716,0.5008578545953615
23.033,22.67,-0.64,0.001937724292256982,0.9980007033018425,0.20325168307310942,0.2618057478185243,0.22324017461619078,0.5040288917127731
23.093,22.73,-0.64,0.00189493589185676,0.9980434946624439,0.20241784223891418,0.2639770416359613,0.22216914798552126,0.5071881688094086
23.176,22.78,-0.65,0.0018506137972623025,0.9980877905621472,0.20157651937919197,0.26615163665436564,0.22108963307007679,0.5103355122657898
23.198,22.84,-0.63,0.0018049083051339837,0.9981334410653931,0.20072760575840057,0.26832976169097866,0.22000147057409414,0.5134707605055954
23.26,22.89,-0.6,0.0017579809959652486,0.9981802849916007,0.1998709943144069,0.27051164946423084,0.21890450781321938,0.5165937639110341
23.301,22.95,-0.61,0.0017100047487446687,0.9982281499003476,0.19900657996054752,0.27269753599664615,0.21779859892770928,0.5197043847298819
23.363,23.0,-0.61,0.0016611637419152447,0.9982768520902359,0.198134259888981,0.27488766001711423,0.21668360509499468,0.5228024969745829
23.425,23.06,-0.57,0.0016116534405805501,0.9983261966114922,0.19725393387426507,0.2770822623639969,0.21555939474079144,0.5258879863138155
23.529,23.11,-0.58,0.0015616805699248933,0.9983759772923309,0.1963655045762124,0.27928158539048475,0.21442584374800472,0.5289607499569056
23.55,23.17,-0.59,0.0015114630748339025,0.9984259767790911,0.1954688778411791,0.28148587237353323,0.21328283566273312,0.5320206965314341
23.592,23.23,-0.59,0.0014612300657215478,0.9984759665901416,0.19456396300101658,0.2836953669275974,0.21213026189674242,0.5350677459543518
23.654,23.28,-0.59,0.001411221750587523,0.9985257071835174,0.19365067316897513,0.2859103124242898,0.21096802192583353,0.538101829296872
23.715,23.33,-0.61,0.0013616893533449723,0.9985749480382506,0.1927289255318712,0.28813095141904727,0.209796023483565,0.5411228886434082
23.756,23.39,-0.62,0.0013128950184720244,0.9986234277493327,0.1917986416377945,0.2903575250859779,0.20861418274979926,0.5441308769448416
23.818,23.44,-0.6,0.0012651117020511496,0.9986708741362406,0.1908597476785381,0.29259027266224985,0.2074224245335356,0.5471257578664424
23.921,23.5,-0.61,0.001218623049267762,0.9987170043649534,0.18991217476581904,0.2948294309035779,0.20622068244946587,0.5501075056307808
23.942,23.55,-0.6,0.0011737232584448387,0.9987615250833769,0.18895585920024427,0.2970752335525039,0.20500889908765677,0.5530761048559809
23.963,23.61,-0.57,0.0011307169316972536,0.9988041325700916,0.18799074273190428,0.2993279108212099,0.20378702617574557,0.5560315503896298
24.048,23.66,-0.57,0.0010899189123008194,0.9988445128963237,0.18701677281147405,0.30158768889054294,0.20255502473305537,0.5589738471386033
24.089,23.72,-0.57,0.0010516541088850554,0.9988823421010308,0.18603390283077142,0.30385478942680144,0.20131286521608766,0.5619030098949951
24.15,23.77,-0.56,0.001016257306573273,0.998917286378974,0.1850420923518318,0.30612942911771274,0.2000605276549306,0.564819063158279
24.211,23.83,-0.55,0.0009840729652057904,0.9989490022816423,0.18404130732369503,0.30841181922891936,0.19879800178020982,0.5677220409537944
24.271,23.89,-0.56,0.0009554550047921002,0.9989771369308807,0.18303152028627187,0.3107021651820771,0.19752528714029247,0.5706119866476373
24.292,23.94,-0.58,0.0009307665783451073,0.9990013282450741,0.18201271056086293,0.31300066615530103,0.1962423932085235,0.5734889527580715
24.355,24.0,-0.56,0.0009103798322574742,0.9990212051777242,0.1809848644271099,0.31530751470627083,0.19494933948032783,0.5763530007636001
24.416,24.05,-0.59,0.0008946756543845882,0.9990363879682588,0.1799479752863131,0.3176228964179724,0.19364615556004677,0.5792042009078517
24.457,24.1,-0.61,0.000884043410002832,0.9990464884049088,0.17890204381112207,0.31994698956689527,0.192332881237383,0.582042632001451
24.539,24.16,-0.58,0.0008788806658139219,0.9990511100994824,0.17784707808161146,0.3222799648134431,0.19100956655331516,0.5848683812210308
24.643,24.21,-0.58,0.0008795929021707665,0.9990498487738655,0.17678309370773376,0.3246219849142162,0.18967627185532082,0.5876815439055034
24.664,24.27,-0.58,0.0008865932137077544,0.9990422925580711,0.17571011393811345,0.32697320445566824,0.1883330678417292,0.5904822233496657
24.685,24.32,-0.57,0.000900301998567921,0.9990280222996478,0.17462816975512127,0.32933376960851946,0.18698003559503326,0.593270530595158
24.725,24.38,-0.55,0.0009211466364288117,0.9990066118842508,0.17353729995616912,0.33170381790226755,0.1856172666040431,0.5960465842187636
24.787,24.43,-0.57,0.0009495611555374537,0.9989776285671714,0.17243755122121845,0.3340834780191804,0.18424486277483773,0.5988105101180191
24.85,24.49,-0.57,0.0009859858889722931,0.9989406333156087,0.1713289781665782,0.3364728696072584,0.18286293643055504,0.6015624412941287
24.892,24.55,-0.55,0.0010308671203556185,0.9988951811614646,0.17021164338515452,0.3388721031118018,0.18147161030014022,0.6043025176321912
24.953,24.6,-0.57,0.0010846567192430764,0.9988408215644409,0.16908561747338902,0.3412812796253588,0.18007101749624405,0.6070308856787549
25.014,24.66,-0.59,0.001147811766418563,0.9987770987852068,0.16795097904517414,0.34370049075592846,0.17866130148251858,0.6097476984167006
25.056,24.71,-0.58,0.0012207941693229297,0.9987035522684166,0.16680781473306844,0.3461298185133069,0.17724261603060462,0.6124531150374055
25.118,24.76,-0.6,0.001304070267848195,0.9986197170353419,0.1656562191771712,0.34856933521338623,0.17581512516712966,0.6151473007100731
25.181,24.82,-0.62,0.0013981104307369296,0.9985251240858823,0.16449629500204735,0.3510191034000486,0.1743790031110394,0.6178304263480666
25.241,24.87,-0.6,0.0015033886428361912,0.9984193008097052,0.1633281527820993,0.35347917578414756,0.17293443420157328,0.6205026683720577
25.304,24.93,-0.59,0.0016203820834640157,0.9983017714062552,0.1621519109957531,0.35594959519899017,0.17148161281718102,0.6231642084697695
25.366,24.98,-0.6,0.0017495706961517994,0.9981720573133738,0.1609676959687865,0.35843039457171544,0.1700207432856736,0.6258152333520925
25.386,25.04,-0.61,0.0018914367500308194,0.9980296776442606,0.15977564180710757,0.36092159691001724,0.16855203978591773,0.6284559345053541
25.448,25.09,-0.58,0.0020464643931378374,0.9978741496325053,0.15857589031931105,0.36342321530373295,0.16707572624141875,0.6310865079395483
25.509,25.15,-0.59,0.002215139197924532,0.9977049890849058,0.15736859092940567,0.3659352529408634,0.16559203620618906,0.6337071539323615
25.572,25.2,-0.63,0.0023979476992673373,0.9975217108417801,0.1561539005801868,0.3684577031375808,0.1641012127433567,0.6363180767688512
25.633,25.26,-0.62,0.002595376925286729,0.9973238292444647,0.1549319836278115,0.37099054938172243,0.16260350829702633,0.6389194844766346
25.675,25.32,-0.63,0.002807913921299183,0.9971108586096781,0.1537030117282089,0.37353376538916105,0.16109918455795452,0.6415115885564346
25.737,25.37,-0.66,0.0030360452672405012,0.9968823137104125,0.15246716371602875,0.376087315172303,0.1595885123236118,0.6440946037079055
25.799,25.42,-0.66,0.003280256588914252,0.9966377102630063,0.15122462547687596,0.37865115311983827,0.15807177135317835,0.6466687475508045
25.84,25.48,-0.67,0.003541032063430741,0.9963765654200332,0.1499755898135855,0.38122522408682186,0.15654925021798044,0.649234240341713
25.882,25.53,-0.69,0.0038188539192092275,0.9960983982686409,0.1487202563072573,0.3838094634942042,0.1550212461478277,0.6517913046866142
25.963,25.59,-0.7,0.004114201930920876,0.995802730333965,0.14745883117369954,0.38640379743702596,0.1534880648736613,0.6543401652496975
26.004,25.64,-0.67,0.004427552909755919,0.9954890860872405,0.14619152711584998,0.3890081428005791,0.1519500204668733,0.6568810484587984
26.105,25.7,-0.68,0.004759380189408501,0.9951569934582206,0.14491856317270338,0.39162240738382104,0.15040743517562202,0.659414182207897
26.147,25.75,-0.69,0.00511015310818518,0.9948059843515039,0.1436401645652723,0.3942464900292634,0.14886063925845372,0.6619397955571082
26.168,25.81,-0.68,0.005480336487656367,0.9944355951663553,0.14235656254013443,0.39688028075851767,0.1473099708155604,0.6644581184305632
26.229,25.86,-0.69,0.005870390108283098,0.994045367319593,0.14106799421113883,0.39952366091273683,0.145755775618037,0.6669693813125711
26.27,25.92,-0.71,0.006280768182464463,0.9936348477711067,0.13977470239985545,0.4021765032973099,0.14419840693553154,0.6694738149424415
26.332,25.98,-0.71,0.0067119188254615774,0.9932035895515472,0.13847693547535297,0.4048386723303045,0.14263822536270318,0.6719716500084083
26.395,26.03,-0.71,0.007164283524660217,0.9927511522917355,0.13717494719389817,0.4075100241942552,0.14107559864490796,0.6744631168411568
26.479,26.08,-0.74,0.007638296607637074,0.9922771027533257,0.13586899653918383,0.4101904069909547,0.13951090150353607,0.6769484451075273
26.5,26.14,-0.76,0.008134384709495712,0.9917810153602565,0.1345593475636863,0.41287966089895434,0.13794451546141015,0.6794278635050073
26.563,26.19,-0.75,0.00865296623994094,0.9912624727305257,0.13324626923170396,0.415577618333541,0.13637682866862913,0.6819015994576233
26.605,26.25,-0.77,0.009194450850565167,0.9907210662078119,0.1319300352645392,0.4182841041090149,0.1348082357292031,0.684369878813805
26.667,26.3,-0.78,0.009759238902827715,0.9901563963924657,0.13061092398816676,0.42099893560311036,0.13323913752876854,0.6868329255467379
26.729,26.36,-0.77,0.010347720937216344,0.989568073671377,0.12928921818361366,0.423721922923387,0.13166994106361954,0.6892909614576428
26.772,26.41,-0.77,0.010960277144090409,0.988955718746224,0.12796520494019278,0.4264528690753572,0.1301010592712467,0.6917442058823567
26.835,26.47,-0.79,0.01159727683671725,0.9883189631595868,0.12663917551170117,0.42919157013204545,0.12853291086254542,0.6941928754015586
26.898,26.52,-0.78,0.012259077927026622,0.9876574498184013,0.12531142517568056,0.4319378154046852,0.12696592015583733,0.6966371835549875
26.961,26.58,-0.78,0.012946026404620491,0.9869708335142185,0.12398225309582242,0.4346913876143511,0.12540051691284218,0.6990773405600365
26.982,26.64,-0.8,0.013658455819586765,0.9862587814397134,0.12265196218757969,0.4374520630644642,0.1238371361767363,0.7015135530351223
27.044,26.69,-0.82,0.01439668676967656,0.9855209737008863,0.1213208589870174,0.4402196118142337,0.12227621811242978,0.7039460237282545
27.105,26.75,-0.82,0.015161026392416574,0.9847571038243818,0.11998925352289622,0.4429937978531883,0.12071820784919031,0.7063749512512121
27.208,26.8,-0.85,0.01595176786274068,0.9839668792593409,0.11865745919194207,0.44577437927695085,0.11916355532571775,0.708800529819702
27.25,26.85,-0.87,0.016769189896736692,0.9831500218731877,0.11732579263721354,0.44856110846431674,0.11761271513772464,0.7112229489998341
27.27,26.91,-0.85,0.01761355626211402,0.9823062684407444,0.11599457362942688,0.45135373225554926,0.1160661463880076,0.7136423934612138
27.331,26.96,-0.85,0.018485115296005616,0.9814353711260596,0.11466412495103993,0.45415199213164137,0.11452431253891023,0.716059042736904
27.372,27.02,-0.86,0.01938409943072486,0.9805370979563276,0.11333477228283709,0.4569556243941609,0.1129876812669941,0.718473070990476
27.454,27.07,-0.86,0.020310724728104634,0.9796112332872692,0.11200684409269832,0.45976436034524876,0.11145672431967238,0.7208846467903507
27.515,27.13,-0.84,0.021265190423052346,0.9786575782593403,0.11068067152620163,0.46257792646738477,0.10993191737353736,0.7232939328916146
27.578,27.18,-0.86,0.022247678476959083,0.9776759512441271,0.10935658829870726,0.46539604460262,0.10841373989411379,0.7257010860254842
27.599,27.24,-0.88,0.023258353141604234,0.9766661882802862,0.10803493058858354,0.46821843213108055,0.1069026749967825,0.7281062566965995
27.661,27.3,-0.86,0.02429736053420001,0.9756281434983852,0.10671603693124151,0.4710448021486346,0.10539920930863604,0.7305095889882877
27.703,27.35,-0.89,0.025364828224226886,0.9745616895339904,0.1054002481136538,0.47387486364363346,0.10390383283102858,0.732911220375915
27.765,27.41,-0.91,0.02646086483271996,0.9734667179283462,0.10408790706904991,0.4767083216725624,0.10241703880256833,0.7353112815483882
27.827,27.46,-0.92,0.027585559644673668,0.9723431395159751,0.10277935877148382,0.47954487753434694,0.10093932356226314,0.7377098962378283
27.952,27.51,-0.94,0.02873898223523644,0.9711908847985319,0.1014749501299509,0.4823842289429804,0.09947118641248125,0.7401071810573834
27.973,27.57,-0.96,0.029921182110369617,0.9700099043042352,0.10017502988168117,0.48522607019809505,0.09801312948131247,0.7425032453471007
27.993,27.62,-0.96,0.031132188362646553,0.9688001689322024,0.09887994848413761,0.48807009235313886,0.09656565758381215,0.744898191027774
28.034,27.68,-0.93,0.03237200934286975,0.9675616702810087,0.09759005800512231,0.4909159833809103,0.09512927808149647,0.7472921124626968
28.095,27.73,-0.93,0.03364063234818446,0.9662944209607887,0.09630571201028215,0.493763428336305,0.09370450073935362,0.7496850963272907
28.137,27.79,-0.94,0.034938023327367076,0.9649984548882049,0.09502726544724853,0.49661210951616824,0.09229183757956815,0.752077221486595
28.199,27.84,-0.91,0.03626412660396615,0.9636738275635953,0.09375507452565267,0.499461706616146,0.09089180273114444,0.7544685588806025
28.261,27.9,-0.91,0.03761886461797515,0.9623206163296263,0.09248949659232351,0.5023118968843469,0.08950491227464902,0.7568591714173795
28.322,27.95,-0.92,0.039002137686717675,0.960938920610759,0.09123089000106238,0.5051623552715215,0.08813168408134038,0.7592491138738641
28.363,28.01,-0.91,0.04041382378562496,0.9595288621328532,0.0899796139764562,0.5080127545773983,0.08677263764601086,0.7616384328042062
28.427,28.07,-0.91,0.04185377834958187,0.9580905851222219,0.08873602847122666,0.5108627655928281,0.08542829391292035,0.7640271664554864
28.53,28.12,-0.93,0.04332183409551081,0.9566242564834682,0.08750049401660542,0.5137120572374885,0.0840991750942435,0.7664153446906494
28.551,28.17,-0.94,0.04481780086685446,0.9551300659554349,0.0862733715651692,0.5165602966930788,0.08278580448047669,0.7688029889185256
28.591,28.23,-0.93,0.046341465500608206,0.9536082262446173,0.08505502232547622,0.5194071495321423,0.08148870624225711,0.7711901120308413
28.674,28.28,-0.94,0.047892591717541934,0.952058973135391,0.08384580758775204,0.5222522798427918,0.08020840522303208,0.7735767183461566
28.695,28.34,-0.93,0.049470920036239,0.9504825655764303,0.08264608853979918,0.525095350349633,0.07894542672198887,0.7759628035606642
28.757,28.39,-0.9,0.05107616771156812,0.9488792857426955,0.08145622607226598,0.5279360225310963,0.07770029626663075,0.7783483547057772
28.818,28.45,-0.89,0.05270802869819449,0.9472494390723846,0.08027658057243503,0.5307739567331795,0.07647353937438148,0.7807333501123879
28.859,28.5,-0.9,0.05436617363972882,0.9455933542782468,0.0791075117057867,0.5336088122793627,0.07526568130263155,0.7831177593816722
28.921,28.56,-0.89,0.05605024988410369,0.9439113833326693,0.07794937818471913,0.5364402475762907,0.07407724678670173,0.7855015433623154
28.982,28.61,-0.88,0.05775988152575243,0.9422039014259638,0.07680253752394103,0.5392679202147923,0.07290875976529211,0.7878846541340517
29.043,28.67,-0.89,0.05949466947514528,0.9404713068972914,0.07566734578217757,0.5420914870658895,0.07176074309307824,0.7902670349974642
29.084,28.73,-0.89,0.06125419155621316,0.9387140211377046,0.07454415728993294,0.5449106043715976,0.07063371824019933,0.7926486204700542
29.189,28.78,-0.87,0.06303800263216246,0.9369324884647962,0.073433324363138,0.5477249278304935,0.06952820497845354,0.7950293362886514
29.21,28.83,-0.89,0.06484563476015753,0.9351271759684854,0.07233519700258902,0.5505341126781474,0.06844472105407608,0.7974090994182477
29.252,28.89,-0.91,0.06667659737531849,0.933298573327493,0.07125012257915278,0.5533378137625334,0.06738378184702382,0.7997878180673277
29.314,28.94,-0.9,0.06853037750445193,0.9314471925960912,0.07017844550476122,0.556135685614473,0.06634590001672842,0.8021653917097078
29.355,29.0,-0.88,0.07040644000990257,0.9295735679607446,0.0691205068892476,0.5589273825130305,0.06533158513430563,0.8045417111128434
29.438,29.05,-0.89,0.07230422786388448,0.927678255466288,0.06807664418309094,0.5617125585456403,0.06434134330121827,0.8069166583725323
29.48,29.11,-0.87,0.07422316245362243,0.9257618327113131,0.06704719080615583,0.5644908676626625,0.06337567675440685,0.8092901069539694
29.541,29.16,-0.85,0.0761626439176033,0.9238248985124725,0.06603247576257704,0.5672619637260422,0.06243508345794479,0.8116619217391563
29.583,29.22,-0.86,0.07812205151320407,0.9218680725374357,0.06503282324206501,0.5700255005517679,0.061520056681355594,0.8140319590807306
29.624,29.27,-0.86,0.08010074401592888,0.9198919949062679,0.06404855220807006,0.5727811319458748,0.060631084564829595,0.8164000668623412
29.687,29.33,-0.83,0.08209806015045205,0.9178973257610393,0.06307997597339456,0.575528511733821,0.059768649671695644,0.8187660845657211
29.811,29.39,-0.85,0.08411331905363036,0.9158847448035001,0.062127401763971205,0.5782672937831527,0.058933228528619874,0.8211298433445832
29.853,29.44,-0.86,0.08614582076960987,0.9138549508007039,0.06119113027162454,0.5809971320194263,0.05812529115411056,0.8234911661054141
29.873,29.5,-0.86,0.08819484677711409,0.9118086610584888,0.0602714551967017,0.583717680435459,0.057345300576004184,0.8258498675951571
29.915,29.55,-0.86,0.09025966054895705,0.9097466108627796,0.05936866278149417,0.5864285930941032,0.056593712338685064,0.8282057544957011
29.977,29.6,-0.88,0.09233950814378333,0.9076695528887077,0.05848303133538247,0.5891295241249228,0.055870974000845,0.8305586255250342
30.038,29.66,-0.88,0.09443361882999692,0.9055782565775896,0.05761483075262866,0.5918201277152724,0.05517752462462044,0.8329082715448946
30.1,29.71,-0.85,0.09654120574179977,0.9034735074818468,0.056764322023733424,0.5945000580963471,0.05451379425696408,0.8352544756747305
30.162,29.77,-0.86,0.09866146656722016,0.9013561065779818,0.055931756741275644,0.5971689695248008,0.05388020340413112,0.8375970134117593
30.183,29.82,-0.87,0.10079358426796667,0.899226869547784,0.05511737660116741,0.5998265162605663,0.05327716250019733,0.8399356527568984
30.244,29.88,-0.84,0.10293672783089908,0.8970866260279658,0.054321412900299286,0.6024723525415827,0.052705071370589066,0.8422701543463342
30.285,29.93,-0.85,0.10509005305086219,0.8949362188284917,0.05354408603162185,0.6051061325561949,0.05216431869168462,0.8446002715884893
30.348,29.99,-0.87,0.10725270334458618,0.8927765031198894,0.052785604977775125,0.6077275104140928,0.05165528144762633,0.846925750806159
30.41,30.05,-0.86,0.10942381059531202,0.890608345589888,0.05204616680440076,0.6103361401168902,0.05117832438556746,0.849246331383591
30.452,30.1,-0.87,0.11160249602775485,0.8884326235697683,0.051325956154272934,0.6129316755297284,0.05073379947065894,0.8515617459182667
30.554,30.16,-0.9,0.11378787111296863,0.886250224130858,0.05062514474340357,0.6155137703554773,0.050322045342150505,0.8538717203771277
30.575,30.21,-0.92,0.11597903850262388,0.884062043151658,0.049943890860315705,0.6180820781131764,0.04994338677202665,0.8561759742570255
30.614,30.26,-0.92,0.11817509299215702,0.8818689843561387,0.0492823388697088,0.6206362521223512,0.049598134127615615,0.8584742207492124
30.677,30.32,-0.94,0.12037512251219473,0.8796719583237961,0.048640618721749136,0.6231759454947895,0.04928658283959654,0.8607661669077494
30.74,30.37,-0.96,0.12257820914760159,0.8774718814721195,0.048018845468204376,0.6257008111352723,0.049009012876785864,0.8630515138217755
30.802,30.43,-0.92,0.12478343018344432,0.8752696750121705,0.04741711878661692,0.6282105017526118,0.04876568822902436,0.8653299567916165
30.884,30.48,-0.93,0.12698985917711644,0.8730662638780233,0.046835522513707116,0.6307046698821549,0.04855685639943801,0.8676011855087261
30.904,30.54,-0.94,0.12919656705582053,0.8708625756308668,0.046274124189231,0.6331829679206892,0.048382747907324955,0.8698648842394632
30.966,30.59,-0.93,0.1314026232385623,0.8686595393386037,0.04573297461157491,0.6356450481745259,0.048243575802937616,0.8721207320126761
31.008,30.65,-0.93,0.1336070967817676,0.8664580844318323,0.045212107406418796,0.6380905629214503,0.048139535195480955,0.8743684028110448
31.071,30.7,-0.95,0.1358090575475898,0.8642591395371346,0.04471153860981261,0.640519164487229,0.04807080279570713,0.8766075657660887
31.154,30.76,-0.97,0.1380075773939303,0.8620636312886444,0.04423126626698048,0.6429305053374113,0.04803753647453185,0.8788378853567499
31.175,30.82,-0.96,0.1402017313851528,0.8598724831189052,0.04377127004812744,0.6453242381852293,0.04803987483912683,0.8810590216114553
31.258,30.87,-0.99,0.14239059902242499,0.8576866140300823,0.04333151088250586,0.6477000161164178,0.048077936827944215,0.8832706303135913
31.278,30.92,-1.02,0.1445732654925786,0.855506937346633,0.04291193061199349,0.6500574927316801,0.048151821326103586,0.8854723632103231
31.341,30.98,-1.02,0.1467488229343318,0.8533343594505846,0.04251245166543585,0.6523963223073194,0.048261606802522276,0.8876638682247111
31.381,31.03,-1.02,0.14891637172067276,0.8511697785006203,0.0421329767550217,0.6547161599741499,0.04840735097009641,0.889844789671065
31.442,31.09,-1.01,0.15107502175616236,0.849014083136209,0.041773388595973265,0.6570166619143306,0.04858909047015234,0.892014768473465
31.505,31.14,-1.01,0.15322389378787396,0.8468681511680602,0.0414335496507956,0.6592974855754079,0.048806840582307345,0.894173442387368
31.546,31.2,-1.0,0.15536212072864633,0.8447328482562216,0.04111330189923668,0.6615582899007301,0.04906059496083648,0.8963204462241924
31.629,31.25,-1.01,0.15748884899128568,0.8426090265771844,0.040812466635009974,0.663798735575445,0.04935032539864785,0.8984554120787384
31.691,31.31,-1.03,0.15960323983231192,0.8404975234813973,0.04053084429026901,0.6660184852873894,0.04967598161999941,0.9005779695592893
31.712,31.36,-1.02,0.16170447070381058,0.8383991601426299,0.04026821428881135,0.6682172040022396,0.05003749110312783,0.9026877460201759
31.775,31.42,-1.05,0.1637917366119206,0.8363147402006518,0.040024334929014194,0.6703945592522554,0.05043475893397646,0.904784366796537
31.836,31.48,-1.07,0.16586425148046222,0.8342450483987248,0.03979894329753235,0.6725502214378315,0.05086766769219242,0.9068674554409221
31.898,31.53,-1.08,0.16792124951818424,0.8321908492174342,0.039591755214795916,0.6746838641409284,0.05133607737052556,0.9089366339613462
31.981,31.58,-1.11,0.16996198658808298,0.8301528855064021,0.039402465213325216,0.6767951644493277,0.05183982532869449,0.9109915230603643
32.002,31.64,-1.14,0.17198574157722338,0.8281318771154583,0.03923074654982645,0.678883803290577,0.05237872628268419,0.9130317423747771
32.064,31.69,-1.14,0.17399181776546802,0.8261285195268638,0.039076251251927104,0.6809494657745149,0.0529525723303088,0.9150569107156195
32.105,31.75,-1.13,0.1759795441914961,0.8241434824902015,0.038938610200269654,0.6829918415433793,0.05356113301372196,0.9170666463081705
32.167,31.8,-1.14,0.17794827701446814,0.8221774086615828,0.03881743324654524,0.6850106251285637,0.0542041554194022,0.9190605670317751
32.229,31.86,-1.14,0.17989740086966186,0.8202309122488408,0.038712309367938194,0.6870055163130975,0.05488136431600418,0.9210382906593286
32.271,31.91,-1.12,0.18182633021637484,0.8183045776644144,0.03862280685837887,0.6889762204988803,0.05559246233037168,0.922999435096291
32.374,31.97,-1.13,0.18373451067635843,0.8163989581876587,0.03854847355696608,0.6909224490776159,0.056337130161951875,0.9249436186190955
32.394,32.03,-1.15,0.1856214203610181,0.8145145746383429,0.03848883711389351,0.692843919804323,0.05711502683581533,0.9268704601127973
32.477,32.08,-1.14,0.18748657118558695,0.8126519140631284,0.038443405294163076,0.6947403571723061,0.057925789994459444,0.9287795793077654
32.498,32.14,-1.14,0.18932951016844488,0.8108114284368526,0.0384116663192903,0.6966114927885639,0.05876903622853689,0.9306705970151999
32.539,32.19,-1.18,0.19114982071371628,0.8089935333804827,0.03839308924711693,0.6984570657487318,0.05964436144659349,0.9325431353612672
32.601,32.25,-1.2,0.19294712387522775,0.8071986068976559,0.03838712438974282,0.7002768230107719,0.060551341283825964,0.9343968180196847
32.662,32.3,-1.2,0.19472107959984267,0.8054269881317888,0.03839320376946873,0.7020705197667639,0.06148953154978122,0.9362312704426241
32.723,32.35,-1.22,0.196471387948113,0.8036789761458145,0.03841074161250282,0.7038379198122606,0.06245846871480645,0.9380461200898492
32.784,32.41,-1.23,0.1981977902901009,0.8019548287266927,0.03843913488002799,0.7055787959127393,0.06345767043491464,0.9398409966560434
32.845,32.47,-1.2,0.19990007047412348,0.8002547612169434,0.03847776383606997,0.7072929301666819,0.06448663611456901,0.9416155322963152
32.866,32.52,-1.2,0.20157805596606684,0.7985789453755578,0.038525992651484806,0.7089801143646937,0.06554484750674112,0.9433693618498431
32.928,32.58,-1.21,0.20323161895680214,0.7969275082707568,0.03858317004332014,0.710640150343893,0.0666317693494762,0.9451021230615811
32.991,32.63,-1.18,0.20486067743512182,0.7953005312071803,0.03864862994879566,0.7122728503366296,0.06774685003812297,0.9468134568019094
33.134,32.69,-1.17,0.2064651962235104,0.7936980486901972,0.03872169223318561,0.7138780373124629,0.06888952233234137,0.9485030072841072
33.155,32.74,-1.17,0.20804518797396962,0.7921200474301174,0.038801663430951906,0.7154555453122526,0.07005920409697311,0.9501704222795448
33.177,32.8,-1.18,0.20960071412104245,0.7905664653891643,0.03888783751954669,0.7170052197731742,0.07125529907584015,0.9518153533305458
33.198,32.85,-1.16,0.2111318857891164,0.7890371908741266,0.03897949672536995,0.7185269178434739,0.07247719769752323,0.9534374559608861
33.262,32.91,-1.18,0.21263886465104587,0.7875320616776543,0.039075912361432215,0.7200205086857211,0.07372427791215772,0.9550363898839082
33.323,32.96,-1.2,0.21412186373509945,0.7860508642711901,0.03917634569632443,0.7214858737672212,0.07499590605824968,0.9566118192082009
33.386,33.02,-1.18,0.2155811481772246,0.7845933330525464,0.039280048854124665,0.7229229071361019,0.07629143775846275,0.9581634126407808
33.467,33.07,-1.18,0.21701703591561833,0.7831591496511379,0.0393862657448704,0.7243315156814367,0.07761021884324658,0.9596908436876315
33.488,33.13,-1.19,0.21842989832460682,0.7817479422938666,0.03949423302518665,0.7257116193756278,0.0789515863010835,0.9611937908514266
33.53,33.18,-1.17,0.21982016078486227,0.7803592852346325,0.039603181088578784,0.7270631514972233,0.08031486925403014,0.9626719378262132
33.591,33.24,-1.15,0.22118830318701757,0.7789926982504068,0.039712335084794624,0.7283860588324,0.08169938995715398,0.9641249736888376
33.653,33.29,-1.15,0.22253486036578637,0.7776476462067633,0.039820915967564825,0.7296803018534711,0.08310446482041091,0.9655525930869155
33.714,33.35,-1.15,0.22386042246175678,0.7763235386956995,0.03992814156995834,0.7309458548729783,0.0845294054514776,0.9669544964232031
33.775,33.4,-1.12,0.2251656352081203,0.7750197297484885,0.04003322770655388,0.7321827061721196,0.08597351971804312,0.9683303900362857
33.836,33.46,-1.13,0.2264512001397219,0.7737355176261747,0.04013538930163186,0.7333908581023673,0.08743611282806274,0.9696799863775221
33.877,33.51,-1.14,0.22771787472196892,0.7724701446901779,0.04023384154260767,0.7345703271591507,0.08891648842646747,0.9710030041841922
33.959,33.57,-1.13,0.2289664723972932,0.7712227973553131,0.040327801057926126,0.7357211440264293,0.09041394970680361,0.97229916864881
33.98,33.62,-1.13,0.2301978625470216,0.7699926061273685,0.04041648711859654,0.736843353590956,0.09192780053623659,0.9735682115845575
34.042,33.67,-1.15,0.23141297036667635,0.7687786457272248,0.04049912286244127,0.7379370149251974,0.09345734659229972,0.9748098715868196
34.084,33.73,-1.14,0.23261277665289548,0.7675799353033219,0.040574936539921475,0.739002201238369,0.09500189650969973,0.9760238941908269
34.147,33.78,-1.11,0.23379831750034089,0.7663954387341106,0.040643162780130866,0.7400389997957669,0.09656076303542123,0.9772100320254405
34.189,33.84,-1.11,0.23497068390712997,0.7652240650219503,0.04070304387529575,0.7410475118072,0.09813326419029685,0.9783680449631434
34.272,33.9,-1.1,0.23613102128750563,0.7640646687797421,0.04075383108194364,0.7420278522856961,0.09971872443515013,0.9794977002663134
34.312,33.95,-1.06,0.23728052889063522,0.7629160508114096,0.04079478593680534,0.7429801498777908,0.10131647583958235,0.9805987727298507
34.394,34.01,-1.06,0.23842045912462267,0.7617769587871392,0.04082518158548328,0.743904546666719,0.10292585925147463,0.9816710448201839
34.414,34.06,-1.07,0.23955211678501032,0.7606460880141125,0.04084430412192616,0.744801197949758,0.10454622546529736,0.9827143068106103
34.476,34.12,-1.04,0.24067685818723736,0.7595220823032569,0.04085145393677021,0.745670271990869,0.10617693638735248,0.9837283569128408
34.557,34.17,-1.04,0.2417960902027103,0.7584035349323676,0.04084594707263365,0.7465119497496531,0.10781736619610736,0.9847130014045395
34.578,34.23,-1.06,0.2429112691983252,0.7572889897057568,0.040827116584474646,0.747326424587501,0.10946690249579834,0.9856680547525938
34.64,34.28,-1.05,0.2440238998794696,0.7561769421104071,0.04079431390311927,0.7481139019517287,0.11112494746148482,0.9865933397318503
34.701,34.34,-1.05,0.245135534036722,0.7550658405684105,0.04074691020001583,0.7488745990385105,0.11279091897372111,0.9874886875390808
34.742,34.39,-1.05,0.24624776919666277,0.7539540877852821,0.040684297751168705,0.7496087444355233,0.11446425174097725,0.9883539379019635
34.804,34.45,-1.04,0.24736224717740796,0.7528400421935392,0.04060589129804476,0.7503165777453733,0.11614439840788084,0.9891889391829147
34.865,34.5,-1.0,0.2484806525496903,0.7517220194907249,0.04051112940305668,0.7509983491910037,0.11783083064728989,0.9899935484775954
34.948,34.56,-0.98,0.24960471100453363,0.7505982942708325,0.040399475797061324,0.7516543192042966,0.11952304023416267,0.990767631707878
34.968,34.61,-0.98,0.2507361876288069,0.7494671017478478,0.04027042071618942,0.7522847579990131,0.1212205400991781,0.991511063709015
35.03,34.67,-0.95,0.2518768850901887,0.7483266395698815,0.04012348222524078,0.7528899451291414,0.12292286536010154,0.992223728310686
35.072,34.72,-0.94,0.2530286417333218,0.747175069722116,0.0399582075248372,0.7534701690336899,0.12462957432896647,0.9929055184115446
35.133,34.78,-0.94,0.254193329589181,0.7460105205165422,0.03977417423951526,0.7540257265689723,0.12634024949322997,0.9935563360468772
35.196,34.83,-0.93,0.2553728522999179,0.7448310886662308,0.03957099168393928,0.7545569225295209,0.12805449846913566,0.9941760924490174
35.299,34.89,-0.91,0.2565691429616711,0.7436348414416476,0.039348302104416796,0.7550640691588959,0.12977195492557983,0.9947647081002279
35.321,34.94,-0.92,0.2577841618880496,0.7424198189063094,0.039105781892917295,0.755547485651765,0.13149227947682549,0.9953221127778387
35.362,35.0,-0.93,0.2590198942971942,0.7411840362288753,0.038843142770829654,0.7560074976486851,0.1332151605424416,0.9958482455914741
35.425,35.05,-0.9,0.26027834792551524,0.7399254860685767,0.03856013293973797,0.7564444367249812,0.13494031517286575,0.996343055012223
35.487,35.1,-0.9,0.26156155057138386,0.7386421410307069,0.038256538196551754,0.7568586398749738,0.13666748983900148,0.9968064988935784
35.55,35.16,-0.9,0.2628715475722307,0.7373319561887188,0.03793218301038139,0.7572504489925698,0.13839646118425228,0.9972385444839357
35.571,35.22,-0.86,0.26421039921867134,0.7359928716693105,0.037586931558591205,0.75762021034901,0.14012703673739155,0.9976391684304148
35.697,35.27,-0.84,0.2655801781094271,0.734622815296733,0.03722068871951339,0.7579682740684233,0.14185905558468007,0.9980083567737724
35.719,35.33,-0.83,0.26698296645095465,0.7332197052924067,0.03683340101939191,0.7582949936017888,0.14359238899968824,0.9983461049342016
35.76,35.38,-0.81,0.2684208533058322,0.7317814530258013,0.0364250575312382,0.7586007251999619,0.14532694102935786,0.9986524176878812
35.802,35.44,-0.77,0.2698959317940872,0.730305965812395,0.035995690723404083,0.7588858273865667,0.14706264903494398,0.9989273091341991
35.864,35.49,-0.78,0.2714102962517741,0.7287911497544043,0.03554537725580935,0.7591506604316869,0.1487994841865977,0.9991708026535907
35.927,35.55,-0.78,0.2729660393512402,0.7272349126198492,0.035074238721891846,0.7593955858273618,0.1505374519104755,0.99938293085593
35.97,35.6,-0.76,0.27456524918763847,0.7256351667553936,0.03458244233446486,0.7596209657658965,0.15227659228737953,0.9995637355193657
36.032,35.66,-0.76,0.2762100063363713,0.7239898320282813,0.03407020155376443,0.7598271626219228,0.15401698040203085,0.9997132675194514
36.074,35.71,-0.79,0.27790238088627006,0.7222968387925635,0.03353777665603578,0.7600145384390332,0.15575872664215376,0.9998315867483821
36.116,35.77,-0.78,0.2796444294534232,0.7205541308747067,0.0329854752410397,0.7601834544217194,0.15750197694659296,0.9999187620241455
36.2,35.82,-0.76,0.28143819218066546,0.7187596685735731,0.03241365267687223,0.7603342704332935,0.15924691300170965,0.9999748709894096
36.22,35.88,-0.75,0.283285689727807,0.7169114316696918,0.03182271248049659,0.7604673445004442,0.16099375238530125,1.0
36.283,35.93,-0.74,0.28518892025774273,0.7150074224386844,0.031213106632386557,0.7605830323251026,0.16274274865727997,0.9999942440028956
36.389,35.99,-0.7,0.2871498564236057,0.7130456686636826,0.030585335823696398,0.7606816868043472,0.1644941913963636,0.9999577064037241
36.41,36.04,-0.7,0.28917044236214173,0.7110242266415621,0.02993994963443247,0.7607636575591223,0.16624840618209313,0.9998904989237707
36.451,36.1,-0.7,0.2912525906984705,0.708941184177832,0.02927754664121234,0.7608292904725363,0.16800575452159522,0.9997927414465065
36.514,36.15,-0.67,0.2933981795673726,0.7067946635650428,0.028598774453348144,0.7608789272384376,0.16976663372062775,0.9996645618536101
36.577,36.21,-0.67,0.29560904965620555,0.7045828245396121,0.027904329676175635,0.7609129049208555,0.17153147669856958,0.9995060958504233
36.62,36.26,-0.69,0.29788700127449114,0.7023038672120299,0.0271949578007447,0.7609315555247547,0.17330075174711643,0.9993174867807862
36.682,36.32,-0.68,0.3002337914551313,0.699956034965488,0.02647145301915576,0.7609352055784866,0.17507496223253377,0.9990988854312061
36.765,36.37,-0.67,0.3026511310920999,0.6975376173180868,0.025734657964958028,0.7609241757283285,0.17685464624139094,0.9988504498243646
36.787,36.42,-0.67,0.30514068211933953,0.6950469527438949,0.024985463378122928,0.7608987803455489,0.17864037616974707,0.998572345002023
36.828,36.48,-0.66,0.30770405473548357,0.6924824314482395,0.02422480769416401,0.760859327146521,0.1804327582557862,0.9982647427974813
36.891,36.53,-0.61,0.3103428046789296,0.6898424980927017,0.02345367655700267,0.7608061168264779,0.18223243205592035,0.9979278215978066
36.953,36.59,-0.61,0.3130584305577013,0.6871256544653801,0.022673102255218746,0.7607394427075319,0.18404006986442242,0.9975617660960644
36.995,36.65,-0.61,0.3158523712384445,0.6843304620920739,0.021884163081414925,0.7606595904015301,0.185856376076731,0.9971667670337635
37.057,36.7,-0.58,0.3187260032988164,0.6814555447841234,0.021087982614569675,0.7605668374882304,0.18768208649669121,0.9967430209336567
37.139,36.76,-0.58,0.32168063854742523,0.6784995911187515,0.020285728925430475,0.7604614532092,0.18951796758813816,0.9962907298229854
37.16,36.81,-0.59,0.32471752161537887,0.6754613568478403,0.01947861370516671,0.7603436981777993,0.19136481567135918,0.9958101009472506
37.222,36.87,-0.58,0.32783782762339153,0.6723396672311975,0.018667891317628575,0.7602138241056922,0.19322345606507849,0.9953013464746591
37.282,36.92,-0.57,0.33104265992827875,0.6691334192904747,0.017854857775647447,0.7600720735464954,0.1950947421746988,0.9947646831914712
37.344,36.98,-0.58,0.33433304795254226,0.6658415839800377,0.017040849641877305,0.7599186796574007,0.19697955452761004,0.9942003321885868
37.386,37.03,-0.59,0.33770994510060864,0.6624632082712204,0.01622724285471752,0.7597538659798062,0.19887879975643474,0.9936085185397925
37.49,37.09,-0.57,0.34117422676514336,0.6589974171465397,0.015415451479873134,0.7595778462401863,0.20079340953112643,0.9929894709721613
37.532,37.14,-0.57,0.3447266884267169,0.6554434155005939,0.014606926388118334,0.7593908241724865,0.20272433944087417,0.9923434215290923
37.554,37.2,-0.58,0.34836804384994924,0.6518004899445126,0.013803153859847601,0.7591929933632859,0.2046725678267938,0.9916706052264613
37.615,37.25,-0.55,0.352098923379105,0.648068010510985,0.013005654117040275,0.7589845371208033,0.20663909456641627,0.9909712597022844
37.678,37.31,-0.54,0.35591987233594374,0.6442454322570571,0.012215979783339808,0.7587656283686492,0.20862493981103314,0.990245624860278
37.739,37.36,-0.54,0.3598313495224691,0.6403322967620525,0.01143571427305084,0.7585364295651129,0.2106311426770174,0.9894939425077279
37.802,37.42,-0.53,0.363833725831038,0.6363282335181488,0.010666470109967604,0.7582970926488036,0.21265875989231484,0.988716455988169
37.883,37.47,-0.51,0.3679272829641199,0.6322329612113199,0.00990988717706749,0.7580477590115993,0.21470886439938763,0.9879134098094845
37.904,37.53,-0.52,0.3721122122658035,0.6280462888905431,0.009167630898254984,0.7577885594999647,0.21678254391598398,0.9870850492681221
37.945,37.58,-0.53,0.37638861366696497,0.623768117023356,0.008441390353529303,0.7575196144457496,0.21888089945519745,0.986231620070219
37.985,37.64,-0.5,0.38075649474582585,0.6193984384360313,0.007732876329166096,0.7572410337275073,0.2210050438063682,0.9853533679504625
38.047,37.69,-0.53,0.3852157699054564,0.6149373391368159,0.007043819304732666,0.7569529168632023,0.22315609997845479,0.9844505382895264
38.129,37.75,-0.54,0.3897662596696059,0.6103849990208473,0.006375967378972517,0.7566553531348975,0.22533519960756235,0.9835233757309068
38.17,37.8,-0.52,0.39440769009807314,0.6057416924555368,0.005731084136784379,0.7563484217456334,0.22754348133034513,0.9825721237979435
38.231,37.85,-0.5,0.3991396923226636,0.6010077887453666,0.0051109464596946095,0.7560321920082393,0.22978208912501946,0.9815970245117879
38.272,37.91,-0.51,0.40396180220461125,0.5961837524752228,0.004517342282388636,0.755706723565334,0.23205217062173011,0.9805983180110676
38.313,37.97,-0.49,0.40887346011418724,0.5912701437315376,0.00395206829802968,0.75537206663942,0.23435487538403796,0.9795762421740674
38.375,38.02,-0.45,0.4138740108330594,0.5862676182006737,0.003416927615269901,0.7550282623117948,0.23669135316334847,0.9785310322442999
38.436,38.08,-0.46,0.4189627035798145,0.5811769271441369,0.0029137273700585976,0.7546753428289351,0.23906275212818553,0.9774629204604466
38.499,38.13,-0.47,0.4241386921588994,0.5759989172503556,0.002444276295547192,0.7543133319350263,0.2414702170703155,0.9763721356917004
38.54,38.19,-0.43,0.42940103523308504,0.5707345303629223,0.0020103822535606397,0.7539422452293741,0.24391488758983962,0.9752589030795705
38.601,38.24,-0.44,0.4347486967194069,0.5653848030853427,0.0016138497312632922,0.7535620905475028,0.24639789626148723,0.9741234436871657
38.664,38.3,-0.45,0.44018054630838355,0.5599508662624862,0.0012564773067993726,0.7531728683647406,0.2489203667844393,0.9729659741569601
38.706,38.35,-0.45,0.4456953601061675,0.5544339443390874,0.0009400550878158207,0.752774572221068,0.2514834121180935,0.9717867063780082
38.768,38.41,-0.46,0.45129182139913065,0.5488353545957922,0.0006663621268693322,0.7523671891659625,0.25408813260624646,0.9705858471635499
38.808,38.46,-0.47,0.4569685215402319,0.543156506263401,0.0004371638177722728,0.7519507002219689,0.25673561409220785,0.9693635979399265
38.871,38.52,-0.46,0.4627239609563606,0.5373988995161141,0.00025420927693860397,0.7515250808657785,0.25942692602737044,0.9681201544477281
38.975,38.57,-0.43,0.4685565502756933,0.5315641243447425,0.00011922871375991396,0.7510903015257203,0.26216311957575555,0.9668557064560968
38.996,38.63,-0.43,0.474464611573943,0.5256538593110036,3.393079398491487e-05,0.7506463280947179,0.264945225717047,0.9655704374911308
39.037,38.68,-0.43,0.48044637973822824,0.5196698701841739,0.0,0.7501931224579272,0.2677742533506451,0.9642645245793268
39.099,38.74,-0.39,0.48650000394714715,0.5136140084615168,1.9093991851268145e-05,0.7497306430343784,0.270651187403327,0.9629381380069394
39.14,38.79,-0.4,0.49262354926550694,0.5074882097740323,9.284097286541317e-05,0.7492588453319053,0.2735769869431825,0.9615914410960346
39.203,38.85,-0.41,0.49881499835203535,0.5012944921792036,0.00022283706381033503,0.7487776825144745,0.2765525833025825,0.960224589997876
39.286,38.9,-0.41,0.5050722532782674,0.49503495434254924,0.00041064368961948086,0.7482871059808496,0.2795788782130271,0.958837733504163
39.349,38.96,-0.41,0.5113931374566558,0.4887117736099312,0.0006577849827386956,0.7477870659534448,0.2826567419547874,0.9574310128765227
39.389,39.01,-0.44,0.5177753976757907,0.4823272039727361,0.0009657452071389204,0.7472775120762026,0.2857870115243006,0.9560045616945931
39.429,39.07,-0.46,0.5242167062404332,0.4758835739282234,0.0013359662069891895,0.746758394020373,0.28897048882228293,0.9545585057230155
39.47,39.12,-0.44,0.530714663213878,0.4693832842375233,0.0017698448839220335,0.7462296620970774,0.2922079388655036,0.953092962797644
39.531,39.17,-0.46,0.5372667987599551,0.46282880558397527,0.002268730706756085,0.7456912678755123,0.2955000880251022,0.9516080427312937
39.614,39.23,-0.47,0.5438705755817665,0.4562226761347087,0.002833923257461209,0.7451431648055508,0.298847622294251,0.9501038472393208
39.717,39.28,-0.45,0.5505233914540275,0.44956749900859283,0.0034666698170727228,0.7445853088434047,0.3022511855878739,0.9485804698852746
39.738,39.34,-0.45,0.5572225818456481,0.4428659396539184,0.004168162995213279,0.7440176590788764,0.30571137807705945,0.9470379960467513
39.779,39.4,-0.47,0.5639654226289562,0.4361207231394091,0.004939538406871965,0.7434401783626053,0.30922875456074966,0.9454765029014524
39.8,39.45,-0.45,0.5707491328717147,0.4293346313624075,0.005781872400111417,0.7428528339316077,0.3128038228772443,0.943896059433332
39.862,39.51,-0.45,0.5775708777078491,0.42251050017831854,0.006696179838432971,0.7422555980313259,0.31643704235804043,0.9422967264585739
39.924,39.56,-0.48,0.5844277712825602,0.4156512164556322,0.007683411941626056,0.7416484485323056,0.3201288223265027,0.9406785566710021
39.965,39.62,-0.5,0.5913168797672702,0.408759715061076,0.008744454189025135,0.7410313695395747,0.3238795206438229,0.9390415947064336
40.088,39.67,-0.5,0.5982352244396173,0.4018389757796785,0.00988012428915186,0.7404043519928231,0.32768944230466907,0.9373858772254139
40.108,39.73,-0.52,0.6051797848234901,0.3948920201747496,0.011091170219722765,0.7397673942555452,0.3315588380848308,0.9357114330137606
40.15,39.78,-0.53,0.612147501883868,0.3879219083930088,0.012378268341962947,0.7391205026913449,0.3354879032430374,0.9340182831003544
40.19,39.84,-0.49,0.6191352812710177,0.38093173592030943,0.013742021593099727,0.7384636922256043,0.3394767762789773,0.9323064408916415
40.252,39.89,-0.47,0.6261399966084003,0.3739246302935963,0.015182957760826893,0.7377969868907069,0.3435255377494057,0.9305759123223338
40.314,39.95,-0.47,0.6331584928185017,0.366903747774885,0.01670152784343198,0.7371204203530219,0.3476342091441238,0.9288266960218339
40.375,40.0,-0.46,0.6401875894806845,0.3598722699931548,0.01829810449916766,0.7364340364199807,0.35180275182356063,0.9270587834959526
40.436,40.06,-0.43,0.6472240842151008,0.35283340056011747,0.019972980588344347,0.7357378895258022,0.35603106601969037,0.9252721593235214
40.476,40.11,-0.43,0.6542647560866556,0.34579036166586186,0.021726367811542666,0.735032045194682,0.3603189899020377,0.9234668013675296
40.538,40.17,-0.42,0.6613063690230084,0.3387463906603883,0.02355839544728858,0.7343165804805234,0.36466629871053813,0.9216426810004863
40.579,40.22,-0.39,0.6683456752406203,0.3317047366270208,0.025469109192498576,0.7335915843825082,0.3690727039570322,0.9197997633437359
40.641,40.28,-0.41,0.6753794186729171,0.3246686569536193,0.02745847010898436,0.7328571582359645,0.3735378526971853,0.9179380075204974
40.682,40.33,-0.42,0.6824043383947404,0.3176414139074187,0.029526353679289453,0.7321134160780195,0.37806132687463895,0.9160573669223977
40.744,40.39,-0.38,0.6894171720373891,0.31062627121918696,0.03167254897509113,0.7313604849875012,0.3826426427391931,0.9141577894893099
40.805,40.44,-0.39,0.696414659188719,0.3036264906822317,0.03389675794131837,0.7305985053984794,0.3872812503407939,0.9122392180023091
40.888,40.5,-0.4,0.70339354477294,0.29664532877160876,0.03619859479898202,0.7298276313867785,0.3919765331010517,0.9103015903895542
40.908,40.55,-0.38,0.7103505824049395,0.28968603328870474,0.0385775855694717,0.729048030928822,0.39672780746395936,0.9083448400447917
40.968,40.6,-0.37,0.7172825377141251,0.28275184003619536,0.041033167722776216,0.7282598861323141,0.4015343226274416,0.9063688961580263
41.009,40.66,-0.38,0.7241861916329501,0.27584596952821483,0.04356468995177929,0.7274633934384435,0.4063952603573135,0.9043736840577767
41.07,40.72,-0.38,0.7310583436454495,0.2689716237404085,0.0461714120745035,0.7266587637955086,0.41130973488517214,0.902359125564282
41.172,40.77,-0.36,0.7378958149912767,0.26213198290437484,0.04885250506593327,0.7258462228040566,0.4162767928916796,0.9003251393530308
41.193,40.83,-0.38,0.744695451820891,0.25533020235084825,0.051607051220837405,0.725026010833758,0.4212954135766273,0.8982716413279898
41.235,40.88,-0.39,0.7514541282976829,0.24856940940584113,0.05443404444880803,0.7241983831123293,0.42636450881708193,0.896198545003911
41.316,40.94,-0.38,0.7581687496429289,0.2418527003438443,0.05733239070250779,0.7233636097868825,0.43148292341481326,0.8941057618970565
41.337,40.99,-0.4,0.7648362551195664,0.23518313740210195,0.06030090853987434,0.7225219759581156,0.43664943543409124,0.8919932019236294
41.399,41.05,-0.42,0.771453620950851,0.22856374585990252,0.06333832982078692,0.7216737816877499,0.44186275663080465,0.8898607738051599
41.46,41.1,-0.41,0.77801786317002,0.22199751118675948,0.06644330053844597,0.7208193419796085,0.4471215329736981,0.8877083854800883
41.543,41.16,-0.4,0.7845260403971501,0.2154873762633044,0.06961438178544042,0.7199589867347632,0.45242434525834724,0.8855359445208048
41.564,41.21,-0.43,0.7909752565394519,0.20903623867864748,0.0728500508541773,0.7190930606812754,0.45776970981430193,0.8833433585554634
41.626,41.27,-0.43,0.7973626634113276,0.20264694810789022,0.07614870247103385,0.7182219232791739,0.46315607930563657,0.8811305356939513
41.688,41.32,-0.39,0.8036854632706247,0.19632230377336493,0.07950865016329482,0.7173459486014663,0.468581843624968,0.8788973849574895
41.728,41.38,-0.4,0.8099409112676559,0.1900650519930418,0.08292812775769248,0.7164655251920657,0.474045330880827,0.8766438167114675
41.789,41.43,-0.41,0.8161263178037214,0.18387788381937156,0.08640529100918164,0.7155810559015319,0.47954480847810455,0.8743697431012462
41.911,41.49,-0.39,0.8222390507960791,0.17776343277163348,0.08993821935843525,0.714692957701477,0.48507848429114725,0.8720750784907277
41.932,41.54,-0.39,0.8282765378465152,0.1717242726646422,0.0935249178164189,0.7138016614783763,0.49064450792894876,0.8697597399035055
41.952,41.6,-0.41,0.8342362683109071,0.16576291553643702,0.09716331897428375,0.7129076118073989,0.4962409720917444,0.8674236474663902
42.013,41.65,-0.42,0.8401157952673968,0.15988180967734314,0.10085128513669654,0.7120112667067555,0.5018659140181616,0.8650667248551306
42.074,41.71,-0.41,0.845912737381036,0.1540833377625586,0.10458661057658701,0.7111130973730011,0.5075173170219031,0.8626888997421777
42.116,41.76,-0.42,0.8516247806629903,0.14836981509019193,0.10836702390911618,0.7102135878976912,0.513193112116733,0.8602901042463804
42.176,41.82,-0.41,0.8572496801226043,0.14274348792645986,0.1121901905824148,0.7093132349658288,0.5188911797283215,0.8578702753845133
42.278,41.87,-0.36,0.862785261310831,0.13720653195955615,0.11605371548230871,0.7084125475366052,0.5246093514912651,0.8554293555245075
42.299,41.92,-0.36,0.8682294217537089,0.13176105086351897,0.11995514564788226,0.7075120465069948,0.5303454121293915,0.852967292840178
42.339,41.98,-0.36,0.8735801322747384,0.12640907497325796,0.12389197309437411,0.706612264358784,0.5360971014172742,0.8504840417671377
42.4,42.03,-0.34,0.8788354382051574,0.12115256007174834,0.12786163773957884,0.705713744789573,0.5418621162207411,0.8479795634594456
42.461,42.09,-0.32,0.883993460481258,0.11599338629026257,0.13186153042966914,0.7048170423282086,0.5476381126140505,0.8454538262464039
42.503,42.15,-0.33,0.8890523966280313,0.11093335712235919,0.13588899606014013,0.7039227219349545,0.5534227080712966,0.8429068060888214
42.585,42.2,-0.32,0.8940105216285898,0.10597419855218738,0.1399413367873714,0.7030313585866316,0.5592134837294785,0.8403384870340298
42.648,42.26,-0.3,0.8988661886790055,0.1011175582974808,0.14401581532607896,0.7021435368469617,0.565007986720524,0.83774886166892
42.668,42.31,-0.3,0.9036178298283886,0.09636500516741933,0.14810965832769074,0.7012598504224289,0.5708037325694042,0.8351379315702686
42.73,42.37,-0.29,0.9082639565042391,0.09171802853533975,0.15222005983443054,0.7003809017040507,0.5765982076553102,0.8325057077515907
42.771,42.42,-0.24,0.9128031599232925,0.08717803792607677,0.15634418480364878,0.6995073012954874,0.5823888717326928,0.8298522111056943
42.832,42.48,-0.22,0.9172341113883012,0.08274636271750305,0.16047917269672615,0.6986396675278406,0.5881731605088165,0.8271774728420092
42.914,42.53,-0.21,0.9215555624714197,0.07842425195560597,0.16462214112671628,0.697778625961331,0.5939484882743412,0.824481534917657
42.935,42.59,-0.16,0.9257663450851029,0.07421287428219228,0.16877018955878934,0.6969248088738857,0.5997122505833585,0.8217644504611356
43.017,42.64,-0.14,0.9298653714416754,0.07011331797407407,0.17292040305750192,0.6960788547365467,0.6054618269792446,0.8190262841874159
43.059,42.7,-0.13,0.9338516339029553,0.0661265910923512,0.17706985607493497,0.6952414076755508,0.6111945837626697,0.816267112803237
43.1,42.75,-0.11,0.9377242047215447,0.06225362174018296,0.18121561627377988,0.6944131169209606,0.6169078767980594,0.8134870254014374
43.163,42.81,-0.07,0.9414822356756252,0.058495258427208874,0.18535474837949534,0.6935946362418179,0.6225990543547805,0.810686123843241
43.246,42.86,-0.07,0.9451249575993229,0.05485227053855374,0.18948431805569715,0.6927866233678901,0.6282654599792685,0.807864523127522
43.267,42.92,-0.08,0.9486516798109335,0.051325348906129685,0.19360139579695826,0.6919897393981602,0.6339044353942566,0.805022351746144
43.329,42.97,-0.03,0.9520617894414949,0.04791510647974006,0.19770306083316172,0.6912046481962525,0.6395133234211947,0.8021597520245142
43.39,43.03,-0.0,0.9553547506663889,0.04462207909530285,0.20178640503947126,0.6904320157729812,0.6450894709218674,0.7992768804464906
43.432,43.08,0.02,0.9585301038428394,0.041446726337321785,0.20584853684586307,0.6896725096561687,0.650630231755121,0.7963739079628067
43.493,43.14,0.07,0.9615874645563581,0.03838943249255557,0.20988658514002978,0.688926798247871,0.6561329697445357,0.7934510202821947
43.554,43.19,0.11,0.9645265225793507,0.03545050759166514,0.21389770315737014,0.6881955501691788,0.6615950616528337,0.7905084181444038
43.596,43.25,0.13,0.9673470407452385,0.032630188535484245,0.21787907235175638,0.6874794335928373,0.6670139001588286,0.787546317574318
43.658,43.3,0.15,0.9700488537415832,0.029928640302421594,0.22182790624081752,0.6867791155640344,0.6723868968327653,0.7845649501164117
43.741,43.35,0.2,0.9726318668258226,0.0273459572333818,0.22574145421957006,0.6860952613098423,0.6777114851059619,0.781564563048832
43.762,43.41,0.22,0.9750960544673465,0.024882164390472295,0.22961700533635052,0.6854285335379156,0.6829851232307165,0.7785454195764864
43.823,43.47,0.23,0.9774414589197499,0.02253721898565563,0.23345189202512812,0.6847795917251198,0.6882052972264886,0.7755077990025888
43.886,43.52,0.26,0.9796681887271801,0.020311011875417704,0.23724349378839174,0.6841490913968168,0.6933695238083943,0.7724519968781756
43.926,43.58,0.28,0.9817764171687823,0.01820336911745234,0.2409892408249365,0.6835376833975096,0.6984753532940904,0.7693783251291083
43.987,43.63,0.28,0.9837663806452991,0.016214053585291544,0.24468661759702826,0.6829460131534825,0.7035203724851362,0.766287112160077
44.049,43.69,0.33,0.9856383770119553,0.01434276663674928,0.2483331663315762,0.6823747199280047,0.7085022075189294,0.7631787029351109
44.131,43.74,0.37,0.9873927638618106,0.012589149831985723,0.25192649045006665,0.6818244360696553,0.713418526687303,0.7600534590341212
44.152,43.8,0.39,0.9890299567638096,0.0109527866969607,0.25546425792210087,0.6812957862543377,0.7182670432178796,0.7569117586850294
44.234,43.85,0.42,0.9905504274597925,0.009433204528006079,0.2589442045374822,0.6807893867216127,0.7230455180143108,0.7537539967710778
44.277,43.91,0.48,0.991954702024748,0.008029876233227026,0.2623641370919214,0.6803058445060495,0.7277517623515948,0.7505805848129599
44.318,43.96,0.51,0.9932433589946137,0.006742222206421341,0.2657219364816018,0.679845756664349,0.7323836405227638,0.7473919509254507
44.381,44.02,0.52,0.9944170274659268,0.005569612229203358,0.2690155607020521,0.6794097094990155,0.7369390724333438,0.74418853974826
44.53,44.07,0.57,0.9954763851716107,0.004511367397039193,0.27224304774699165,0.6789982777793392,0.7414160361401155,0.7409708123508596
44.55,44.13,0.59,0.9964221565371625,0.0035667620649234314,0.27540251840303576,0.6786120239604544,0.7458125703308404,0.7377392461110307
44.571,44.18,0.58,0.9972551107214576,0.002735025808471831,0.2784921789363578,0.6782514974012336,0.7501267767417428,0.7344943345668808
44.591,44.24,0.6,0.9979760596463437,0.0020153453962458816,0.2815103236675948,0.6779172335818237,0.7543568225096546,0.7312365872420973
44.652,44.29,0.63,0.9985858560191373,0.0014068667692006488,0.28445533743145607,0.677609753321692,0.7585009424558088,0.7279665294442323
44.714,44.35,0.65,0.9990853913520487,0.0009086970232143446,0.2873256979176528,0.6773295619990967,0.762557441298336,0.7246847020358655
44.795,44.4,0.66,0.9994755939824858,0.0005199063907462503,0.29011997788989374,0.6770771487729639,0.7665246957905405,0.7213916611785357
44.857,44.46,0.73,0.9997574270980939,0.00023953021776234297,0.29283684727979165,0.6768529858082314,0.7704011567820743,0.7180879780493725
44.878,44.51,0.75,0.9999318867702963,6.657093215709426e-05,0.2954750751526463,0.6766575275057957,0.7741853512001861,0.7147742385303851
44.919,44.57,0.77,1.0,0.0,0.2980335315422295,0.676491209738251,0.7778758839483162,0.7114510428704109
44.981,44.62,0.82,0.9999628227790351,3.875986603943871e-05,0.3005111891519051,0.6763544490926414,0.7814714397194389,0.7081190053197745
45.043,44.67,0.85,0.9998214381707706,0.00018176587501221437,0.30290712491967403,0.6762476421214214,0.7849707847217078,0.7047787537377381
45.084,44.73,0.85,0.999576954413227,0.00042790817043724164,0.3052205214450313,0.6761711646027636,0.7883727683141396,0.7014309291728551
45.166,44.78,0.88,0.999230503047867,0.000776053567713456,0.30745066827581574,0.676125370811297,0.7916763245502331,0.6980761854163757
45.228,44.84,0.91,0.9987832370770797,0.0012250473984997047,0.30959696305349843,0.6761105928004029,0.7948804736275965,0.6947151885289022
45.249,44.9,0.91,0.9982363291532047,0.0017737153235339543,0.3116589125155903,0.6761271396972913,0.7979843232418032,0.691348616340552
45.31,44.95,0.91,0.9975909698017539,0.00242086511123307,0.3136361333540293,0.6761752970122196,0.8009870698428455,0.6879771579249225
45.35,45.01,0.96,0.9968483656813114,0.003165288379592112,0.31552835292855674,0.6762553259633125,0.8038879997926688,0.6846015130471619
45.412,45.06,0.98,0.9960097378824182,0.004005762299073184,0.31733540983421743,0.6763674628184501,0.806686490422397,0.6812223915863851
45.474,45.12,1.0,0.9950763202675923,0.004941051254336053,0.3190572543222404,0.6765119182555857,0.8093820109879434,0.6778405129326025
45.536,45.17,0.96,0.9940493578544894,0.005969908462801962,0.32069394857367695,0.6766888767427545,0.8119741235228138,0.6744566053582405
45.579,45.23,0.99,0.9929301052440797,0.007091077548173818,0.3222456668253002,0.6768984959389442,0.8144624835870341,0.6710714053642921
45.642,45.28,1.0,0.9917198250955955,0.008303294067158924,0.3237126953474458,0.6771409061169955,0.8168468409112457,0.6676856570012702
45.703,45.34,1.02,0.9904197866499048,0.009605286987745147,0.32509543227367654,0.677416209609763,0.8191270399350817,0.6643001111655391
45.806,45.39,1.06,0.9890312643028448,0.010995780117490847,0.326394387282397,0.6777244802808927,0.8213030202389876,0.660915524872164
45.827,45.45,1.07,0.9875555362299632,0.012473493480389612,0.3276101811308113,0.6780657630216655,0.823374816868703,0.6575326605059321
45.867,45.5,1.07,0.985993883064,0.01403714464097841,0.3287435450418892,0.678440073275409,0.8253425605517375,0.6541522850525181
45.949,45.56,1.11,0.9843475866263481,0.01568544997445303,0.3297953199453009,0.6788473965909342,0.8272064778053214,0.6507751693119014
45.97,45.61,1.1,0.9826179287136323,0.01741712588165215,0.33076645557360906,0.6792876882062897,0.8289668909354704,0.6474020870961759
46.031,45.67,1.09,0.9808061899404609,0.019230889947858498,0.3316580094153363,0.679760872663876,0.8306242179269462,0.644033814413883
46.094,45.72,1.12,0.9789136486393026,0.021125462044465484,0.33247114552679047,0.680266843457749,0.8321789722240108,0.6406711286429747
46.134,45.78,1.15,0.9769415798183402,0.023099565372659475,0.3332071332046902,0.6808054627138233,0.8336317624019711,0.637314807694472
46.196,45.83,1.16,0.9748912541780411,0.025151927448375154,0.33386734552173875,0.6813765609036223,0.8349832917295948,0.6339656291688428
46.258,45.89,1.17,0.9727639371870679,0.02728128102790387,0.33445325772735934,0.6819799365922397,0.8362343576225677,0.6306243695071079
46.321,45.94,1.22,0.9705608882180206,0.02948636497365347,0.3349664455158962,0.6826153562212268,0.8373858509882921,0.6272918031386538
46.342,46.0,1.23,0.9682833597433883,0.031765925059691696,0.3354085831647138,0.6832825539272012,0.8384387554624838,0.623968701627703
46.424,46.05,1.24,0.9659325965919457,0.03411871471683229,0.3357814415447953,0.6839812313970357,0.8393941465382122,0.6206558328203554
46.466,46.1,1.27,0.9635098352657008,0.036543495717155726,0.3360868860066333,0.684711057760521,0.8402531905882308,0.6173539599940236
46.527,46.16,1.28,0.9610163033173756,0.03903903879798272,0.33632687414442425,0.6854716695212963,0.8410171437816524,0.6140638410109488
46.568,46.22,1.27,0.9584532187882863,0.041604124225435364,0.33650345344182053,0.6862626705266545,0.8416873508962288,0.6107862274773538
46.629,46.27,1.28,0.9558217897063659,0.04423754229783564,0.336618758802721,0.6870836319766256,0.8422652440276751,0.6075218639096832
46.69,46.33,1.28,0.9531232136439639,0.04693809378930893,0.33667500997076916,0.6879340924726282,0.8427523411976521,0.604271486909313
46.752,46.38,1.26,0.9503586773349274,0.04970459033408417,0.3366745088413577,0.6888135581059426,0.8431502448621532,0.6010358243470786
46.814,46.44,1.25,0.9475293563503568,0.052535854752098064,0.3366196366700204,0.6897215025863264,0.8434606403221483,0.5978155945589643
46.856,46.49,1.28,0.9446364148323166,0.05543072131662003,0.33651285118112306,0.690657367411184,0.8436852940384062,0.5946115055542882
46.897,46.55,1.27,0.9416810052846738,0.058388035964724305,0.33635668358078785,0.6916205620757383,0.843826051852478,0.5914242542376763
46.958,46.6,1.26,0.9386642684201392,0.061406656451535716,0.3361537354779971,0.6926104643245954,0.843884837115858,0.588254525646043
47.084,46.66,1.29,0.9355873330624644,0.06448545244929023,0.33590667571786703,0.6936264204449433,0.843863648729406,0.5851029922016758
47.103,46.71,1.29,0.9324513161026393,0.06762330559236736,0.33561823713116906,0.6946677456014035,0.8437645590951955,0.5819703129823883
47.123,46.77,1.28,0.9292573225078095,0.07081910946957098,0.33529121320431243,0.6957337242123142,0.8435897119830468,0.5788571330096066
47.205,46.82,1.29,0.9260064453815154,0.07407176956505594,0.33492845467413357,0.6968236103670636,0.8433413203141046,0.5757640825552228
47.226,46.88,1.31,0.92269976607373,0.07738020314941957,0.33453286605197097,0.6979366282840385,0.843021663863939,0.5726917764680357
47.288,46.93,1.29,0.9193383543390536,0.08074333912259668,0.3341074020816307,0.6990719728087477,0.8426330868877596,0.5696408135206229
47.35,46.99,1.28,0.9159232685413093,0.08416011781031207,0.3336550641359628,0.7002288099517178,0.842177995670447,0.5666117757775216
47.454,47.04,1.3,0.9124555559026815,0.08762949071594764,0.3331788965568535,0.7014062774657962,0.8416588560042163,0.5636052279856005
47.475,47.1,1.27,0.9089362527954393,0.09115042022977839,0.3326819829434805,0.7026034854625144,0.8410781905968145,0.5606217169874638
47.515,47.15,1.25,0.905366385074203,0.09472187929761786,0.3321674423936778,0.7038195170671301,0.8404385764132305,0.5576617711586592
47.556,47.21,1.26,0.9017469684466201,0.09834285105100092,0.33163842570321855,0.7050534291118693,0.8397426419539419,0.5547258998693718
47.618,47.26,1.27,0.8980790088802412,0.10201232840111683,0.33109811152777285,0.7063042528666883,0.8389930644727531,0.5518145929711994
47.68,47.32,1.26,0.8943635030432989,0.10572931359878518,0.33054970251225724,0.7075709948066411,0.838192567137297,0.548928320309534
47.721,47.37,1.27,0.8906014387770229,0.10949281776284078,0.32999642139225943,0.7088526374147326,0.8373439161352924,0.5460675312620245
47.783,47.42,1.29,0.8867937955970601,0.11330186037935587,0.32944150707220765,0.7101481400190413,0.8364499177297073,0.5432326543035462
47.844,47.48,1.26,0.8829415452215144,0.11715546877418204,0.328888210684975,0.7114564396628793,0.8355134152660463,0.5404240965980603
47.907,47.53,1.25,0.8790456521230757,0.12105267756133833,0.32833979163764987,0.7127764520067942,0.8345372861350794,0.5376422436177245
47.949,47.59,1.27,0.875107074102679,0.12499252806980259,0.32779951364824167,0.714107072261245,0.8335244386944267,0.5348874587895673
48.01,47.65,1.25,0.8711267628821128,0.12897406775128245,0.3272706407781367,0.7154471761487503,0.8324778091524934,0.5321600831699927
48.071,47.7,1.23,0.8671056647130015,0.1329963495715422,0.32675643346514904,0.7167956208941969,0.8314003584183228,0.529460435147301
48.175,47.76,1.22,0.8630447209995955,0.13705843138784798,0.326260144562014,0.7181512462418943,0.8302950689209837,0.5267888101723466
48.196,47.81,1.2,0.8589448689328462,0.14115937531505837,0.3257850153851464,0.719512875497881,0.829164941402136,0.5241454805173524
48.237,47.87,1.16,0.8548070421332947,0.14529824708282982,0.3253342717784248,0.720879316595943,0.8280129916854372,0.5215306950628287
48.3,47.92,1.14,0.8506321713003857,0.14947411538633218,0.3249111201966809,0.7222493631858277,0.8268422474264076,0.5189446791125124
48.361,47.98,1.15,0.8464211848659089,0.15368605123276943,0.3245187438134531,0.7236217957421908,0.8256557448463355,0.516387634236235
48.382,48.03,1.13,0.8421750096493837,0.15793312728589584,0.3241602986574136,0.7249953826928747,0.8244565254536993,0.513859738140638
48.444,48.09,1.11,0.8378945715133078,0.16221441721060492,0.3238389097817327,0.7263688815651416,0.8232476327564997,0.5113611445676709
48.527,48.14,1.13,0.8335807960162886,0.16652899501957427,0.3235576674705254,0.7277410401484649,0.8220321089688142,0.5088919832207762
48.547,48.2,1.13,0.8292346090621419,0.17087593442388485,0.3233196234865017,0.7291105976723653,0.8208129917148452,0.5064523597186017
48.609,48.25,1.11,0.8248569375430738,0.17525430818949572,0.32312778736398523,0.7304762859975956,0.8195933107337148,0.5040423555759704
48.67,48.31,1.12,0.8204487099750875,0.1796631875014403,0.32298512275153124,0.7318368308187668,0.8183760845882747,0.5016620282117317
48.711,48.36,1.12,0.8160108571237656,0.18410164133758966,0.32289454380842486,0.7331909528763578,0.8171643173812189,0.49931141098298587
48.773,48.42,1.09,0.8115443126186185,0.18856873585380093,0.32285891165934333,0.7345373691759777,0.8159609954818157,0.4969905132450862
48.834,48.47,1.07,0.8070500135542258,0.19306353378222033,0.3228810309114194,0.7358747942127695,0.8147690842665946,0.49469932043675446
48.897,48.53,1.08,0.8025289010764638,0.19758509384445636,0.3229636462378382,0.7372019411989413,0.8135915248773227,0.4924377941896241
48.96,48.58,1.06,0.7979819209521675,0.20213247018127603,0.3231094390319692,0.7385175232924739,0.81243123099959,0.4902058724615184
49.001,48.64,1.04,0.7934100241206412,0.20670471180041305,0.32332102413588737,0.7398202548250773,0.8112910856652847,0.4880034696927857
49.063,48.69,1.06,0.788814167225494,0.2113008620440174,0.3236009466469779,0.741108852527419,0.8101739380821944,0.48583047698498216
49.105,48.75,1.05,0.7841953131253447,0.2159199580772055,0.3239516788061632,0.7423820367495692,0.8090826004939278,0.4836867623011242
49.167,48.8,1.03,0.779554431382028,0.22056103039908556,0.3243756169711351,0.7436385326745312,0.8080198450733089,0.48157217068664465
49.27,48.85,1.03,0.7748924987250208,0.2252231023775411,0.3248750786778371,0.7448770715226987,0.8069884008523802,0.4794865245101525
49.291,48.91,1.05,0.7702104994909067,0.2299051898089566,0.3254522997933275,0.7460963917451446,0.805990950692136,0.4774296237231303
49.332,48.97,1.03,0.7655094260367848,0.23460630050398437,0.32610943176307705,0.7472952402037814,0.8050301282951136,0.4754012461378075
49.375,49.02,1.02,0.7607902791266232,0.23932543390035302,0.32684853895568655,0.7484723733365828,0.8041085152639551,0.47340114772258374
49.456,49.08,1.04,0.7560540682896407,0.24406158070363848,0.32767159610793994,0.749626558306231,0.8032286382090682,0.4714290629144829
49.518,49.13,1.01,0.7513018121498901,0.24881372255682657,0.3285804858730373,0.7507565741306427,0.8023929659085088,0.46948470494817673
49.538,49.19,0.99,0.7465345387262966,0.2535808317394155,0.32957699647475147,0.7518612127938913,0.801603906523213,0.46756776620114127
49.661,49.24,0.98,0.7417532857024913,0.25836187089672114,0.33066281947013154,0.7529392803360446,0.8008638048706959,0.46567791855451157
49.682,49.3,0.96,0.7369591006658642,0.26315579279996587,0.33183954762325146,0.7539895979203932,0.8001749397603034,0.46381481376920564
49.742,49.35,0.93,0.7321530413153506,0.26796154013763884,0.3331086728923713,0.7550110028764815,0.7995395213930443,0.46197808387691797
49.762,49.41,0.93,0.7273361756375575,0.27277804533852074,0.3344715845327129,0.7560023497173574,0.7989596888289413,0.46016734158563377
49.824,49.46,0.95,0.7225095820509323,0.27760423042667653,0.33592956731683765,0.7569625111295655,0.7984375075247359,0.45838218069937786
49.885,49.52,0.93,0.7176743495177622,0.2824390069086252,0.3374837998743776,0.7578903789345689,0.7979749669446795,0.45662217655197995
