Time_Host,Time_Arduino,easingdata,CH1_Oxy,CH1_Deoxy,CH2_Oxy,CH2_Deoxy,CH3_Oxy,CH3_Deoxy
0.035,31.5,16.04,1.0,1.0,1.0,1.0,1.0,1.0
1.381,0.04,0.0,0.9828808507005086,0.9822307086844917,0.982285489923248,0.9826224315854211,0.9848975272926809,0.9821004587751473
1.402,0.1,0.0,0.9657702007828202,0.9644636869500987,0.9645801466264735,0.9652402530231132,0.9697984170304552,0.9642025790111401
1.423,0.15,0.0,0.9486746776800389,0.946706161485904,0.9468910247647533,0.9478604967499954,0.954708622844959,0.9463136792066756
1.444,0.21,0.0,0.9316008852248859,0.9289653485623083,0.9292251593799957,0.9304901903174404,0.9396340833512482,0.9284410693658349
1.465,0.26,0.0,0.9145553972350832,0.9112484469469881,0.9115895590571401,0.9131363494908946,0.9245807163198593,0.9105920438495672
1.486,1.06,0.0,0.8975447511657038,0.8935626308630551,0.893991199137778,0.8958059713845344,0.9095544128950948,0.892773874267316
1.507,1.12,0.0,0.880575441841281,0.8759150430038392,0.8764370150047381,0.878506027645248,0.894561031871176,0.8749938024233919
1.57,1.17,0.0,0.863653915279752,0.8583127876179805,0.8589338954504311,0.8612434576994882,0.8796063940373063,0.8572590333319166
1.652,1.23,0.0,0.8467865626195741,0.8407629236777602,0.8414886761410294,0.8440251620758218,0.8646962766020971,0.8395767283133934
1.673,1.28,0.0,0.8299797141606593,0.8232724581428925,0.8241081331878385,0.8268579958152849,0.8498364077072366,0.821953998185209
1.715,1.34,-0.21,0.813239633529079,0.8058483393312864,0.8067989768365268,0.8097487619809638,0.8350324610397186,0.8043978965576358
1.778,1.39,-0.19,0.7965725119748209,0.7884974504075999,0.7895678452842035,0.7927042052775433,0.8202900505513948,0.7869154132461911
1.841,1.45,-0.09,0.7799844628112347,0.7712266029997347,0.7724212986336765,0.7757310057908954,0.8056147252940684,0.7695134678105222
1.945,1.5,-0.25,0.7634815160041706,0.7540425309527663,0.7553658129935921,0.7588357728571379,0.7910119643777842,0.7521989032293335
1.966,1.56,-0.35,0.7470696129181962,0.7369518842291689,0.7384077747325314,0.7420250390699712,0.7764871720594353,0.7349784797202429
2.008,1.61,-0.23,0.7307546012266897,0.7199612229635816,0.721553474894542,0.7253052544345053,0.7620456729682711,0.7178588687128503
2.069,1.67,-0.32,0.7145422299920091,0.7030770116797577,0.7048091037830023,0.7086827806752076,0.7476927074743832,0.7008466469826994
2.111,1.72,-0.48,0.6984381449213618,0.6863056136767599,0.6881807457191483,0.6921638857050354,0.7334334272057441,0.6839482909532331
2.172,1.78,-0.35,0.682447883803399,0.6696532855908887,0.6716743739810297,0.6757547382622597,0.7192728907188873,0.6671701711722672
2.234,1.83,-0.3,0.6665768721299772,0.653126172139277,0.6552958459281044,0.6594614027209351,0.7052160593278376,0.6505185469689468
2.337,1.89,-0.48,0.6508304189069632,0.6367303010505375,0.6390508983161536,0.6432898340804273,0.6912677930954408,0.6339995612965972
2.358,1.94,-0.44,0.6352137126574188,0.620471578187315,0.6229451428066732,0.6272458731388906,0.677432846990801,0.6176192357663483
2.399,2.0,-0.35,0.6197318176199982,0.6043557828650847,0.6069840616744172,0.6113352418550676,0.6637158672161089,0.6013834658758967
2.44,2.05,-0.51,0.6043896701449339,0.5883885633710358,0.5911730037162918,0.5955635389023023,0.6501213877057437,0.585298016437276
2.502,2.11,-0.54,0.5891920752895619,0.5725754326864029,0.5755171803643596,0.579936235418183,0.6366538268001345,0.569368517207035
2.564,2.16,-0.4,0.5741437036149418,0.5569217644151424,0.5600216620052746,0.5644586709527912,0.6233174840964758,0.5536004587217771
2.607,2.22,-0.47,0.5592490881847497,0.5414327889214019,0.544691374508047,0.5491360496181017,0.6101165374780277,0.5379991883415741
2.69,2.27,-0.6,0.5445126217672341,0.5261135896778021,0.5295310959616341,0.5339734364406465,0.5970550403233617,0.5225699065033462
2.731,2.33,-0.47,0.5299385542406473,0.5109690998261349,0.5145454536234442,0.5189757539191335,0.5841369188965704,0.5073176631858792
2.772,2.38,-0.48,0.515530990202168,0.49600409895168707,0.4997389210794537,0.5041477787882832,0.5713659699191312,0.49224735458774055
2.834,2.44,-0.67,0.5012938867799601,0.48122321007200464,0.48511581561625466,0.48949413898972693,0.5587458583237931,0.47736372001895583
2.896,2.49,-0.67,0.48723105164765096,0.4666308968405339,0.47068029580498477,0.47501931085041504,0.546280115190542,0.4626713390069191
2.937,2.55,-0.56,0.4733461412401739,0.4522314609652045,0.45643635929674925,0.4607276164686002,0.5339721358644012,0.448174628616648
3.058,2.6,-0.73,0.45964265916960567,0.43802903984166264,0.4423878408288259,0.4466232213070964,0.5218251782545189,0.43387784098514465
3.078,2.66,-0.75,0.44612395483932804,0.4240276044005261,0.42853841044063556,0.4327101319931802,0.5098423613137044,0.4197850610693072
3.099,2.71,-0.6,0.4327932222545424,0.4102309571677189,0.41489157189816395,0.4189921943241967,0.4980266636972864,0.4059002046065306
3.16,2.77,-0.64,0.41965349902690274,0.39664273053664056,0.4014506613252344,0.4054730914776421,0.48638092259990856,0.39222701628684875
3.202,2.82,-0.78,0.4067076655707711,0.3832663852506507,0.38821884603976353,0.39215634242422226,0.4749078327686246,0.3787690681351851
3.264,2.88,-0.6,0.39395844448837,0.3701052090940774,0.37519912359287455,0.3790453005421225,0.4636099456904264,0.3655297581020104
3.325,2.93,-0.63,0.3814084001408824,0.35716231578969765,0.36239432100848695,0.36614315243047135,0.45248966895213383,0.35251230886043056
3.398,2.99,-0.78,0.3690599384023542,0.34444064410038644,0.34980709422076045,0.35345291691975284,0.4415492657703676,0.3397197668074759
3.418,3.04,-0.75,0.3569153065930652,0.331942957132385,0.33743992770652215,0.3409774442767056,0.43079085468914685,0.32715500126710917
3.48,3.1,-0.66,0.344976593588857,0.319671841837404,0.32529513430957974,0.3287194156010437,0.4202164094424605,0.31482070389224254
3.541,3.15,-0.86,0.3332457301027411,0.30762970871055617,0.3133748552536083,0.3166813424111351,0.4098277589789935,0.30271938826283457
3.583,3.21,-0.89,0.32172448913494667,0.2958187916809033,0.30168106034009623,0.3048655664155971,0.39962658764600184,0.290853389676948
3.643,3.26,-0.76,0.31041448658740434,0.2842411481912168,0.2902155483276474,0.2932742594676091,0.38961443552916764,0.279224865131469
3.724,3.32,-0.81,0.29931718203850016,0.2728986594633682,0.2789799474887646,0.2819094236985994,0.37979269894509543,0.26783579348902675
3.785,3.37,-0.91,0.2884338796737764,0.26179303094560774,0.26797571634008405,0.2707728918278134,0.37016263108295544,0.2566879758274966
3.805,3.43,-0.76,0.27776572936810734,0.25092579293783035,0.2572041445418865,0.25986632764412626,0.36072534279163654,0.2457830359683214
3.866,3.48,-0.7,0.26731372791475927,0.24029830139078992,0.24666635396257897,0.24919122665631535,0.3514818035086516,0.23512242117973353
3.926,3.54,-0.88,0.2570787203966546,0.2299117388750766,0.2363632999037222,0.23874891690785566,0.3424328423269334,0.2247074030508112
3.989,3.59,-0.82,0.24706140169509458,0.21976711571554566,0.22629577248106836,0.22854055995215328,0.33357914919556825,0.21453907853215867
4.051,3.65,-0.72,0.23726231813114199,0.209865271286758,0.21646439815696952,0.21856715198399612,0.3249212762504417,0.20461837113886133
4.091,3.7,-0.89,0.22768186923482367,0.2002068754648819,0.2068696414194248,0.20882952512287917,0.31645963927069487,0.19494603231124757
4.152,3.76,-0.87,0.21832030963727142,0.19079243023140954,0.1975118066029463,0.1993283488437675,0.3081945192568193,0.18552264292889334
4.213,3.81,-0.75,0.20917775108087838,0.18162227142395881,0.18839103984635117,0.1900641315507895,0.3001260641261512,0.17634861497322943
4.273,3.87,-0.83,0.2002541645425262,0.17269657062936158,0.17950733118253107,0.18103722228929728,0.2922542905214658,0.1674241933340494
4.334,3.92,-0.9,0.19154938246492548,0.16401533721417985,0.17086051675520864,0.1722478125916773,0.2845790857283211,0.1587494577551598
4.375,3.98,-0.8,0.18306310109110868,0.1555784204877328,0.16245028115765894,0.16369593845224603,0.27710020969676125,0.15032432491436074
4.416,4.03,-0.85,0.17479488289711032,0.14738551199267175,0.15427615988834742,0.15538148242650876,0.26981729716295744,0.14214855063288914
4.522,4.09,-0.99,0.16674415911786186,0.1394361479180872,0.14633754191841936,0.14730417584999336,0.2627298598663366,0.13422173220939954
4.543,4.14,-0.91,0.15891023236131716,0.13172971163008723,0.13863367236595736,0.13946360117180204,0.2558372888577238,0.12654331087350376
4.585,4.2,-0.86,0.15129227930581254,0.12426543631474564,0.13116365527190477,0.13185919439796,0.2491388568939991,0.11911257435384615
4.648,4.25,-1.01,0.1438893534756662,0.11704240772828652,0.12392645647253585,0.12449024763959597,0.24263372091475038,0.11192865955566167
4.69,4.31,-0.96,0.13670038809003232,0.11005956704935492,0.11692090656333738,0.11735591176096989,0.23632092459638604,0.1049905553427538
4.753,4.36,-0.85,0.12972419898005594,0.10331571382822026,0.11014570394915758,0.11045519912237235,0.23019940097917116,0.09829710541883166
4.815,4.42,-0.97,0.12295948756942612,0.0968095090277654,0.10359941797548558,0.10378698641293904,0.2242679751626565,0.09184701130315612
4.899,4.47,-1.03,0.11640484391349154,0.09053947815113002,0.0972804921357466,0.0973500175684474,0.21852536706498452,0.08563883539546209
4.92,4.53,-0.9,0.11005874979217947,0.08450401445089537,0.09118724734953253,0.0911429067691868,0.21297019424158262,0.0796710041251438
4.983,4.58,-0.95,0.10391958185204436,0.07870138221472002,0.08531788530673143,0.08516414151301085,0.20760097475878234,0.0739418111797112
5.024,4.64,-1.04,0.09798561479286133,0.07312972012235791,0.07967049187257023,0.0794120857586973,0.20241613011793183,0.06844942080755205
5.086,4.69,-0.95,0.09225502459426141,0.06778704466901594,0.07424304054863014,0.07388498313475439,0.19741398822560494,0.06319187119006059
5.126,4.75,-0.93,0.08672589177798,0.06267125365003735,0.06903339598494147,0.0685809602088336,0.19259278640554933,0.0581670778782211
5.187,4.8,-1.08,0.08139620470134944,0.05778012970193217,0.06403931753830996,0.0634980298129322,0.18795067444806599,0.05337283728876532
5.247,4.86,-1.03,0.07626386287771215,0.05311134389481902,0.05925846287207321,0.05863409441960853,0.18348571769256372,0.04880683025506069
5.31,4.91,-0.97,0.07132668031946823,0.04866245937139464,0.054688391592529,0.053986949564490044,0.17919590013908782,0.04446662562793089
5.372,4.97,-1.1,0.06658238889951243,0.044430935027604576,0.050326568917317765,0.049554287310425375,0.1750791275846783,0.040349683921664145
5.433,5.02,-1.14,0.06202864172686537,0.04041412923025223,0.04617036937108214,0.04533369974871414,0.1711332307804679,0.03645336100052766
5.495,5.08,-1.03,0.057663016532367474,0.03660930356685056,0.04221708050377839,0.041322682532931275,0.1673559686054893,0.03277491180117436
5.516,5.13,-1.11,0.05348301906038939,0.033013626623094185,0.0384639066270867,0.037518638440938196,0.1637450312532238,0.029311494086398795
5.64,5.19,-1.18,0.049486086462612634,0.029624177783406678,0.03490797256445062,0.033918880960744954,0.16029804342698498,0.026060172225773122
5.66,5.24,-1.03,0.04566959069004178,0.026437951050099648,0.031546327410357206,0.030520637895964434,0.15701256754030063,0.023017920998767098
5.703,5.3,-0.99,0.042030841879520754,0.023451858876761756,0.02837594829454548,0.027321054986686976,0.15388610691853177,0.020181629416028312
5.765,5.35,-1.1,0.038567091731139966,0.020662736011577358,0.025393744146907107,0.024317199541694607,0.15091610899805327,0.017548104554572688
5.806,5.41,-1.05,0.035275536873035564,0.018067343346358435,0.022596559458928717,0.02150606407802427,0.14809996851941754,0.015114075402709365
5.869,5.46,-1.01,0.03215332221020544,0.015662371767159972,0.019981178037624395,0.01888456996397551,0.14543503071103256,0.012876196710599782
5.911,5.52,-1.18,0.029197544254097017,0.013444446002436886,0.0175443267480204,0.016449571061740713,0.14291859445999658,0.010831052842432397
5.995,5.57,-1.2,0.026405254429853156,0.01141012846479108,0.015282679240364395,0.014197857365927796,0.14054791546683515,0.00897516162628478
6.014,5.63,-1.12,0.02377346235822305,0.009555923082452799,0.013192859658333563,0.012126158634348119,0.138320209380981,0.007304978197842031
6.056,5.68,-1.19,0.021299139109246194,0.007878279116739322,0.011271446324616088,0.010231148007550699,0.13623265491392272,0.0058168988342426975
6.137,5.74,-1.28,0.018979220424889802,0.006373594961838952,0.009514975400335834,0.008509445613693541,0.13428239692702923,0.004507264774425317
6.2,5.79,-1.14,0.016810609907864968,0.0050382219233777534,0.007919944514882786,0.00695762215545119,0.13246654949114262,0.0033723660224463338
6.241,5.85,-1.15,0.014790182173884529,0.0038684679723357132,0.00648281636280515,0.005572202475756633,0.13078219891512421,0.00240844513032878
6.342,5.9,-1.27,0.012914785964680311,0.002860601470984062,0.005200022264516622,0.004349669099267295,0.1292264067406395,0.0016117009570873052
6.362,5.96,-1.21,0.01118124721918315,0.0020108548676165752,0.004067965687676316,0.0032864657465316327,0.12779621270057348,0.0009782924006616256
6.405,6.01,-1.15,0.00958637210039168,0.0013154283569479105,0.0030830257262123768,0.0023790008179179457,0.12648863763858276,0.0005043420995803787
6.447,6.07,-1.3,0.008126949975608899,0.0007704935031519811,0.0022415605340890244,0.0016236508444531642,0.12530068638740524,0.0001859401012752507
6.509,6.12,-1.29,0.006799756347891321,0.0003721968226149683,0.0015399107110505162,0.0010167639028123272,0.1242293506036572,1.9147494072383522e-05
6.57,6.18,-1.21,0.005601555736716403,0.00011666332358377305,0.0009744026377114279,0.0005546629918029471,0.12327161155695997,0.0
6.673,6.23,-1.29,0.004529104506025706,0.0,0.0005413517574947785,0.00023364936779795504,0.1224244428713438,0.00012451152566543103
6.714,6.29,-1.37,0.003579153637935344,1.82992769230994e-05,0.0002370658030445206,5.0005836683620925e-05,0.12168481321698227,0.0003886776685697958
6.735,6.34,-1.26,0.0027484514505227314,0.00016764240506041343,5.7847964857932636e-05,0.0,0.12104968895041787,0.0007884791763388606
6.777,6.4,-1.34,0.0020337462582112873,0.0004441028020347077,0.0,7.988745305420104e-05,0.12051603670154791,0.0013198853564519563
6.837,6.45,-1.47,0.0014317889733765643,0.0008437493381275338,5.9825278879196385e-05,0.000285914932881229,0.12008082590574791,0.0019788574341509184
6.898,6.51,-1.45,0.0009393356478893817,0.001362649564342565,0.0002336317681787582,0.0006143234140169614,0.11974103127961314,0.002761351856309371
6.96,6.56,-1.44,0.0005531499533976738,0.001996872880736178,0.0005177349481514471,0.0010613511501375856,0.11949363523889965,0.003663323539143159
7.023,6.62,-1.6,0.0002700055992290997,0.002742493643066585,0.0009084606626032462,0.0016232366597101061,0.11933563025733636,0.004680729057748145
7.064,6.67,-1.57,8.668868686518076e-05,0.0035955942059198876,0.001402147900009975,0.0022962216538951483,0.11926402116506267,0.005809529775563905
7.106,6.73,-1.52,0.0,0.004552267900579698,0.001995151504332491,0.003076553905048229,0.11927582738552861,0.007045694911975632
7.168,6.78,-1.57,6.757229262788073e-06,0.005608621946016395,0.002683844814222558,0.003960490054269684,0.11936808510977717,0.008385204546380257
7.229,6.84,-1.63,0.00010379713076364482,0.006760780291482533,0.0034646222294297565,0.004944298356562232,0.11953784940711486,0.009824052557154243
7.27,6.89,-1.53,0.00028797761771578794,0.00800488638930983,0.004333901703323651,0.0060242613622667135,0.11978219627127074,0.01135824949406376
7.331,6.95,-1.57,0.0005561797844945323,0.009337105896610126,0.005288127160545392,0.007196678533555029,0.12009822460124717,0.012983825382751843
7.435,7.0,-1.7,0.0009053098626041937,0.010753629304685201,0.006323770838901325,0.008457868794856889,0.12048305811616908,0.014696832460025766
7.456,7.06,-1.64,0.0013323011081328687,0.012250674495048144,0.00743733555471139,0.009804173016186345,0.12093384720354387,0.016493347838753482
7.497,7.11,-1.61,0.001834115620384503,0.01382448922105391,0.008625356890929534,0.01123195642841776,0.12144777070044462,0.01836947610126478
7.56,7.17,-1.75,0.0024077460914797215,0.015471353514231824,0.009884405307458502,0.012737610969643601,0.12202203760722241,0.020321351820245966
7.602,7.22,-1.75,0.003050217486808458,0.017187582014510795,0.011211088173182568,0.014317557561838855,0.12265388873344373,0.022345142006216408
7.683,7.28,-1.7,0.0037585886563027485,0.01896952622362991,0.012602051719338751,0.015968248317155362,0.12334059827583826,0.0244370484807776
7.765,7.33,-1.79,0.004529953876580224,0.02081357668112696,0.014053982913945547,0.01768616867327056,0.1240794753281291,0.026593310174927675
7.786,7.39,-1.89,0.005361444324083763,0.022716165062396074,0.015563611257105687,0.019467839457312123,0.1248678653226993,0.028810205351833613
7.828,7.44,-1.81,0.006250229479407136,0.0246737661984002,0.017127710497093905,0.02130981887797327,0.12570315140412888,0.031084053753546663
7.889,7.5,-1.9,0.00719351846305188,0.026682900016712967,0.018743100267235614,0.023208704445513133,0.12658275573471242,0.0334112186712294
7.949,7.55,-2.0,0.008188561302905677,0.028740133403648352,0.020406647643675446,0.02516113481940323,0.12750414073213995,0.03578810893854018
8.011,7.61,-1.95,0.009232650133762723,0.030842081987317204,0.02211526862422348,0.027163791583438356,0.1284648102395887,0.03821118084789393
8.051,7.66,-1.93,0.010323120329235496,0.03298541184152903,0.023865929528550992,0.029213400948183057,0.12946231062853839,0.04067693998938978
8.131,7.72,-2.07,0.011457351566443032,0.03516684111053607,0.02565564832008893,0.03130673538067727,0.1304942318346832,0.04318194301227027
8.151,7.77,-2.06,0.012632768823908902,0.037383141554695944,0.027481495850058116,0.033440615161387535,0.13155820832737505,0.04572279930885488
8.212,7.83,-2.0,0.013846843313161708,0.0396311400172123,0.029340597024136196,0.03561190986846414,0.13265192001309997,0.048296172620970225
8.272,7.88,-2.1,0.015097093344601116,0.04190771981219572,0.03123013189234543,0.03781753978944231,0.13377309307355237,0.05089878256897973
8.334,7.94,-2.17,0.01638108512826699,0.04420982203437062,0.033147336662824954,0.04005447726060219,0.13491950073893527,0.05352740610359558
8.375,7.99,-2.07,0.01769643351023097,0.04653444679083166,0.03508950464022905,0.04231974793427424,0.13608896399717532,0.056178878880732835
8.437,8.05,-2.16,0.01904080264541663,0.04887865435532412,0.03705398708957056,0.044610431974438744,0.13727935223980398,0.058850096559736054
8.497,8.1,-2.28,0.020411906607737767,0.051239566245586704,0.03903819402640372,0.04692366518102094,0.1384885838453119,0.0615380160253756
8.559,8.16,-2.22,0.021807509938512645,0.05361436622435398,0.04103959493430817,0.04925664004332935,0.13971462670083792,0.06423965653407102
8.62,8.21,-2.2,0.023225428134162514,0.056000301224672824,0.04305571941069389,0.05160660672313019,0.1409554986631031,0.06695210078485637
8.702,8.27,-2.36,0.024663528074232815,0.05839468220024253,0.04508415774199549,0.053970873967898056,0.1422092679595429,0.06967249591566031
8.722,8.32,-2.35,0.026119728390785284,0.06079488490154613,0.04712256140936162,0.05634680995484224,0.14347405353063059,0.07239805442553342
8.764,8.38,-2.3,0.027591999780205812,0.06319835057860017,0.0491686435259753,0.058731843066375786,0.14474802531442665,0.07512605502351481
8.866,8.43,-2.44,0.029078365258466687,0.06560258661120857,0.05122017920717262,0.0611234625977666,0.14602940447442533,0.0778538434048861
8.887,8.49,-2.47,0.030576900360881027,0.0680051670676636,0.05327500587455695,0.0635192193977801,0.14731646357180575,0.0805788329556182
8.948,8.54,-2.36,0.03208573328739841,0.07040373319288941,0.05533102349533539,0.06591672644318834,0.14860752668322483,0.08329850538586912
9.009,8.6,-2.48,0.03360304499452368,0.07279599382707336,0.05738619475813562,0.06831365934807371,0.14990096946532025,0.08601041129344046
9.05,8.65,-2.56,0.03512706923498768,0.07517972575587471,0.05943854518659653,0.07070775680889566,0.15119521916712064,0.08871217065814463
9.113,8.71,-2.46,0.03665609254634853,0.07755277399334143,0.061486163192060954,0.07309682098631996,0.15248875459158998,0.09140147326807271
9.176,8.76,-2.44,0.03818845418975147,0.07991305199870409,0.0635272000667346,0.07547871782483306,0.1537801060075636,0.0940760790787855
9.242,8.82,-2.57,0.039722546040122146,0.08225854182825093,0.06555986991871125,0.07785137731118451,0.1550678550133593,0.09673381850648087
9.265,8.87,-2.53,0.041256812429108156,0.08458729422352339,0.0675824495502959,0.08021279367272727,0.1563506343533773,0.09937259265622292
9.349,8.93,-2.46,0.04278974994211844,0.0868974286371094,0.06959327828108725,0.08256102551676216,0.15762712768903725,0.101990373486349
9.37,8.98,-2.61,0.04431990717084251,0.08918713319734876,0.0715907577173132,0.08489419591203226,0.15889606932543482,0.10458520391020462
9.412,9.04,-2.68,0.04584588442265546,0.09145466461330044,0.073573351468942,0.08721049241355214,0.16015624389512984,0.10715519783639002
9.496,9.09,-2.6,0.047366333388330725,0.09369834802135679,0.07553958481612243,0.08950816703199019,0.16140648600050295,0.10969854014873617
9.538,9.15,-2.69,0.0488799567694895,0.09591657677491862,0.07748804432653614,0.09178553614884528,0.16264567981613434,0.11221348662725764
9.601,9.2,-2.76,0.05038550786721049,0.09810781217857187,0.07941737742527105,0.09404098037867445,0.16387275865266343,0.114698363811358
9.661,9.26,-2.63,0.05188179013320003,0.10027058316822719,0.08132629191883732,0.0962729443796419,0.1650867044835903,0.11715156880658453
9.724,9.31,-2.67,0.05336765668489586,0.10240348593870088,0.08321355547495331,0.09847993661366647,0.16628654743648288,0.11957156903624068
9.765,9.37,-2.85,0.054842009785859985,0.10450518352022548,0.08507799505972882,0.10066052905744807,0.16747136525006132,0.12195690193917144
9.827,9.42,-2.83,0.056303800292818354,0.10657440530538806,0.08691849633387516,0.102813356865655,0.1686402826986438,0.12430617461504045
9.889,9.48,-2.74,0.0577520270707273,0.10860994652800353,0.0887340030095765,0.10493711798756067,0.16979247098544467,0.12661806341842727
9.994,9.53,-2.88,0.05918573637728309,0.11061066769544128,0.0905235161696704,0.10703057273842681,0.17092714710621443,0.1288913135030921
10.014,9.59,-2.96,0.06060402121832864,0.11257549397593826,0.09228609355079535,0.10909254332695094,0.17204357318469704,0.13112473831778595
10.034,9.64,-2.81,0.06200602067564502,0.11450341454244735,0.09402084879216986,0.11112191334012374,0.1731410557813692,0.1333172190550154
10.076,9.7,-2.88,0.06339091920864366,0.11639348187458592,0.09572695065167107,0.11311762718687172,0.1742189451769175,0.1354677040541956
10.135,9.75,-3.05,0.06475794593148863,0.11824481102026174,0.09740362219087614,0.11507868950188409,0.17527663463189844,0.13757520816064603
10.197,9.81,-2.92,0.06610637386717243,0.1200565788185625,0.09905013993071625,0.11700416451104784,0.17631355962401754,0.1396388120418939
10.258,9.86,-2.87,0.06743551918005163,0.12182802308550031,0.10066583297937237,0.1188931753599312,0.17732919706445396,0.14165766146275488
10.342,9.92,-3.07,0.06874474038832765,0.12355844176419838,0.10225008213402617,0.12074490340675903,0.17832306449464264,0.14363096652066487
10.362,9.97,-3.05,0.07003343755792955,0.12524719204110263,0.1038023189580654,0.12255858748131906,0.17929471926491264,0.1455580008427358
10.403,10.03,-2.95,0.0713010514792259,0.1268936894297918,0.10532202483533401,0.12433352311123079,0.18024375769636805,0.1474381007460114
10.465,10.08,-3.13,0.07254706282796702,0.12849740682395142,0.10680873000301212,0.1260690617170023,0.1811698142273843,0.1492706643624002
10.527,10.14,-3.16,0.07377099131183659,0.13005787352106957,0.10826201256470476,0.1277646097772997,0.1820725605460718,0.1510551507297719
10.568,10.19,-2.99,0.07497239480397808,0.13157467421840835,0.1096814974853025,0.12941962796586162,0.18295170471003117,0.15279107885071566
10.63,10.25,-3.04,0.07615086846485969,0.13304744798280319,0.11106685556915877,0.13103363026149917,0.18380699025469932,0.15447802672046412
10.713,10.3,-3.16,0.07730604385384023,0.13447588719583922,0.11241780242310222,0.13260618303262903,0.18463819529155945,0.1561156303254944
10.733,10.36,-2.98,0.0784375880317886,0.1358597364759501,0.11373409740576944,0.1341369040977895,0.18544513159747145,0.1577035826143069
10.795,10.41,-2.94,0.07954520265609598,0.1371987915789769,0.11501554256471051,0.1356254617635821,0.18622764369637151,0.15924163244187162
10.857,10.47,-3.11,0.08062862306940607,0.13849289827871186,0.11626198156269295,0.1370715738414614,0.18698560793458646,0.1607295834892057
10.917,10.52,-3.09,0.08168761738337595,0.13974195122893268,0.11747329859460776,0.13847500664476797,0.18771893155100233,0.16216729315952838
10.959,10.58,-3.01,0.08272198555877283,0.14094589280841394,0.11864941729636187,0.1398355739673759,0.18842755174332965,0.16355467145241506
11.061,10.63,-3.16,0.08373155848320936,0.14210471195037858,0.1197902996471258,0.14115313604530372,0.1891114347316925,0.16489167981735867
11.082,10.69,-3.2,0.08471619704780523,0.14321844295783331,0.12089594486628598,0.1424275985026252,0.18977057482074713,0.1661783299881382
11.123,10.74,-3.09,0.08567579122402814,0.14428716430621796,0.12196638830642162,0.14365891128301542,0.19040499346150064,0.16741468279939062
11.184,10.8,-3.17,0.08661025914191353,0.1453109974347856,0.12300170034359353,0.1448470675682695,0.191014738313967,0.16860084698677474
11.265,10.85,-3.27,0.08751954617079434,0.14629010552811564,0.1240019852661901,0.14599210268512924,0.19159988231175695,0.16973697797210424
11.308,10.91,-3.1,0.0884036240035981,0.1472246922891486,0.12496738016352495,0.14709409300174792,0.19216052272966336,0.1708232766348087
11.349,10.96,-3.06,0.08926248974570544,0.1481150007051081,0.12589805381533004,0.14815315481510968,0.19269678025526993,0.17185998807105532
11.431,11.02,-3.23,0.0900961650093235,0.148961311807651,0.12679420558324306,0.1491694432306891,0.19320879806558258,0.17284740034183296
11.452,11.07,-3.19,0.0909046950143072,0.14976394342855512,0.12765606430535298,0.15014315103560122,0.19369674090966088,0.17378584321126694
11.514,11.13,-3.09,0.09168814769636097,0.15052324895222008,0.12848388719484075,0.15107450756644916,0.19416079419821283,0.17467568687640106
11.576,11.18,-3.25,0.09244661282356607,0.1512396160662199,0.12927795874373732,0.15196377757303475,0.19460116310109557,0.17551734068965694
11.639,11.24,-3.28,0.09318020112218728,0.151913465511113,0.13003858963280412,0.15281126007906443,0.19501807165363455,0.1763112518751663
11.7,11.29,-3.14,0.0938890434127074,0.1525452498306865,0.13076611564851695,0.15361728724096202,0.19541176187263787,0.17705790424015763
11.742,11.35,-3.2,0.09457328975701462,0.1531354521237873,0.1314608966081053,0.15438222320588468,0.19578249288294491,0.17775781688256478
11.804,11.4,-3.33,0.09523310861762659,0.1536845847988693,0.13212331529356414,0.15510646297002573,0.19613054005531108,0.17841154289600625
11.846,11.46,-3.18,0.09586868602977498,0.1541931883323639,0.13275377639551217,0.15579043123826902,0.1964561941563913,0.17901966807325945
11.887,11.51,-3.35,0.09648022478710643,0.1546618300319509,0.1333527054677282,0.15643458128623358,0.19675976051155286,0.17958280960932227
11.949,11.57,-3.51,0.09706794364168372,0.15509110280577543,0.1339205478931518,0.15703939382570653,0.19704155818120994,0.18010161480511716
12.012,11.62,-3.46,0.09763207651890214,0.15548162393861562,0.13445776786209176,0.1576053758744157,0.19730191915131925,0.18057675977286758
12.094,11.68,-3.31,0.09817287174788063,0.15583403387596517,0.1349648473633474,0.15813305963104382,0.19754118753861444,0.18100894814416243
12.114,11.73,-3.47,0.0986905913078573,0.15614899501695276,0.1354422851889207,0.1586230013563356,0.1977597188110775,0.18139890978172793
12.175,11.79,-3.45,0.09918551009109877,0.15642719051698264,0.13589059595297293,0.1590757802611072,0.19795787902407178,0.18174739949592977
12.217,11.84,-3.29,0.09965791518281406,0.1566693231009522,0.13631030912565117,0.15949199740194042,0.19813604407250965,0.18205519576702392
12.278,11.9,-3.36,0.10010810515854107,0.15687611388787606,0.13670196808237783,0.1598722745853233,0.19829459895938803,0.1823230994741567
12.341,11.95,-3.46,0.10053638939944044,0.15704830122772576,0.13706612916915914,0.16021725328098071,0.19843393708099444,0.18255193263209255
12.401,12.01,-3.27,0.10094308742588996,0.15718663955126952,0.13740336078442525,0.16052759354512303,0.19855445952905712,0.18274253713662067
12.442,12.06,-3.28,0.1013285282497284,0.15729189823366993,0.13771424247787348,0.16080397295431414,0.1986565744100861,0.18289577351955952
12.564,12.12,-3.44,0.10169304974545045,0.1573648604725656,0.1379993640667433,0.1610470855506256,0.19874069618212295,0.1830125197142453
12.584,12.17,-3.38,0.10203699804060161,0.15740632218132491,0.1382593247699077,0.16125764079870195,0.19880724500908836,0.18309366983235478
12.605,12.23,-3.27,0.10236072692556852,0.15741709089812408,0.13849473236012172,0.16143636255532234,0.19885664613288684,0.18314013295288
12.666,12.28,-3.42,0.10266459728290211,0.1573979847114622,0.13870620233472908,0.16158398805200244,0.19888932926339056,0.1831528319240432
12.727,12.34,-3.4,0.10294897653624811,0.15734983120269272,0.13889435710509254,0.16170126689115139,0.19890572798638048,0.18313270217892325
12.768,12.39,-3.22,0.10321423811888474,0.15727346640612222,0.13905982520497023,0.16178896005628401,0.1989062791894796,0.18308069056554627
12.83,12.45,-3.22,0.10346076096179815,0.15716973378720026,0.1392032405180244,0.16184783893677818,0.1988914225060778,0.1829977541921722
12.932,12.5,-3.3,0.10368892900116836,0.15703948323929756,0.13932524152460585,0.1618786843676618,0.19886159977721668,0.18288485928848452
12.953,12.56,-3.11,0.10389913070509338,0.15688357009954246,0.13942647056791607,0.16188228568490395,0.19881725453138563,0.18274298008335424
13.014,12.61,-3.1,0.10409175861935387,0.15670285418415367,0.13950757313960846,0.1618594397966668,0.1987588314821753,0.1825730976998047
13.075,12.67,-3.23,0.10426720893200421,0.15649819884367225,0.13956919718485655,0.16181095027094328,0.19868677604373286,0.18237619906775526
13.117,12.72,-3.16,0.10442588105656292,0.15627047003846048,0.13961199242688382,0.1617376264399666,0.19860153386396048,0.18215327585507668
13.179,12.78,-3.05,0.10456817723357179,0.15602053543479735,0.13963660971092492,0.16164028252173984,0.19850355037539175,0.18190532341745091
13.282,12.83,-3.21,0.10469450215028941,0.1557492635218658,0.13964370036756782,0.16151973675899628,0.19839327036366536,0.18163333976749904
13.303,12.89,-3.2,0.10480526257827662,0.1554575227498961,0.1396339155954095,0.16137681057587597,0.19827113755349146,0.1813383245636207
13.363,12.94,-3.06,0.10490086702860789,0.15514618068970434,0.13960790586293537,0.16121232775259275,0.19813759421198043,0.18102127811897428
13.384,13.0,-3.11,0.10498172542441278,0.1548161032138447,0.13956632032951105,0.1610271136183588,0.19799308076917776,0.180683200431011
13.446,13.05,-3.21,0.10504824879040481,0.15446815369957265,0.13950980628534768,0.16082199426282878,0.1978380354556188,0.18032509023195922
13.507,13.11,-3.03,0.10510084895899711,0.15410319225379762,0.1394390086102698,0.1605977957663159,0.19767289395669357,0.17994794406063036
13.548,13.16,-3.02,0.10513993829254172,0.15372207496017934,0.13935456925108786,0.16035534344900945,0.19749808908358962,0.1795527553558836
13.651,13.22,-3.17,0.10516592942117436,0.1533256531484942,0.1392571267173553,0.16009546113938047,0.1973140504605643,0.17914051357204822
13.673,13.27,-3.09,0.10517923499570192,0.15291477268636888,0.13914731559527604,0.1598189704619089,0.1971212042282793,0.17871220331656182
13.712,13.33,-2.95,0.10518026745494531,0.15249027329344714,0.13902576607951603,0.15952669014421625,0.19691997276291823,0.17826880351004862
13.773,13.38,-3.07,0.10516943880694324,0.15205298787802782,0.13889310352266884,0.1592194353436412,0.19671077441078896,0.17781128656903417
13.814,13.44,-3.06,0.1051471604234214,0.15160374189619022,0.1387499480021207,0.15889801699326594,0.19649402323809476,0.17734061761147735
13.876,13.49,-2.89,0.10511384284693662,0.1511433527334056,0.13859691390405401,0.15856324116738657,0.1962701287955442,0.17685775368528606
13.939,13.55,-2.92,0.10506989561011917,0.15067262910862028,0.13843460952432815,0.1582159084664109,0.196039495897463,0.17636364301996793
14.001,13.6,-3.03,0.10501572706645329,0.15019237050078313,0.13826363668597247,0.157856813421158,0.19580252441506574,0.1758592243015523
14.043,13.66,-2.83,0.10495174423204905,0.1497033665977766,0.13808459037301946,0.15748674391652456,0.19555960908354267,0.17534542597089928
14.104,13.71,-2.83,0.10487835263786965,0.1492063967676967,0.13789805838039745,0.15710648063446583,0.19531113932262034,0.1748231655454843
14.145,13.77,-3.02,0.10479595619188274,0.14870222955240434,0.13770462097959638,0.15671679651621134,0.19505749907025344,0.1742933489647158
14.207,13.82,-2.95,0.10470495705060039,0.14819162218324952,0.137504850599821,0.1563184562435959,0.1947990666291048,0.1737568699588104
14.267,13.88,-2.86,0.10460575549946187,0.14767532011884285,0.1372993115243524,0.1559122157393469,0.1945362145254668,0.17321460944122327
14.328,13.93,-3.06,0.10449874984149905,0.14715405660472555,0.13708855960184826,0.15549882168612988,0.19426930938025933,0.17266743492460937
14.389,13.99,-3.03,0.10438433629369584,0.14662855225476976,0.13687314197232103,0.1550790110641301,0.19399871179171427,0.1721161999602874
14.47,14.04,-2.86,0.104262908890419,0.14609951465412935,0.13665359680754274,0.15465351070693986,0.19372477622932577,0.17156174360117474
14.491,14.1,-2.87,0.1041348593932669,0.14556763798355246,0.13643045306563392,0.15422303687553052,0.19344785093861702,0.1710048898881634
14.533,14.15,-2.95,0.10400057720666793,0.14503360266486226,0.13620423025958545,0.15378829485012163,0.19316827785624838,0.17044644735990452
14.595,14.21,-2.75,0.10386044929855871,0.1444980750274077,0.13597543823943226,0.15334997853980697,0.19288639253498358,0.16988720858595976
14.677,14.26,-2.74,0.10371486012549011,0.14396170699527705,0.13574457698777395,0.15290877010982656,0.19260252407803718,0.16932794972325552
14.758,14.32,-2.88,0.10356419156153011,0.1434251357950568,0.13551213642832632,0.15246533962636713,0.1923169950823387,0.16876943009574813
14.779,14.37,-2.79,0.10340882283035495,0.14288898368390263,0.13527859624719002,0.15202034471874526,0.1920301215902667,0.16821239179717948
14.822,14.43,-2.67,0.10324913043994102,0.1423538576976754,0.1350444257265305,0.15157443025879205,0.19174221304941957,0.16765755931677592
14.883,14.48,-2.82,0.10308548811929757,0.1418203494188806,0.13481008359037253,0.15112822805723028,0.19145357227999624,0.1671056391877305
14.945,14.54,-2.79,0.10291826675669909,0.14128903476413787,0.13457601786221463,0.15068235657682677,0.19116449544936184,0.16655731965830148
15.005,14.59,-2.65,0.10274783433889172,0.1407604737909033,0.13434266573416687,0.1502374206621134,0.19087527205337682,0.16601327038536326
15.047,14.65,-2.67,0.10257455589076118,0.1402352105231635,0.134110453447314,0.14979401128548728,0.19058618490406937,0.16547414215024323
15.149,14.7,-2.79,0.10239879341495893,0.139713772795815,0.13387979618301096,0.1493527053095151,0.19029751012323792,0.164940566596679
15.17,14.76,-2.59,0.1022209058309903,0.13919667211743902,0.13365109796481506,0.14891406526527687,0.1900095171415744,0.16441315599071998
15.211,14.81,-2.61,0.10204124891328115,0.13868440355116965,0.1334247515707633,0.14847863914658022,0.18972246870291376,0.16389250300237843
15.253,14.87,-2.76,0.1018601752277568,0.13817744561333947,0.13320113845570333,0.1480469602198585,0.18943662087322732,0.16337918050880887
15.314,14.92,-2.64,0.10167803406648418,0.13767626018957102,0.1329806286833872,0.14761954684953968,0.1891522230539868,0.16287374141876937
15.374,14.98,-2.52,0.10149517137995151,0.13718129246796756,0.1327635808680398,0.14719690233864813,0.18886951799953575,0.16237671851809266
15.435,15.03,-2.68,0.10131192970659277,0.13669297088904658,0.13255034212511843,0.14677951478438295,0.18858874183811408,0.16188862433588186
15.476,15.09,-2.61,0.10112864809920345,0.13621170711205446,0.132341248030982,0.1463678569484129,0.18831012409618328,0.16140995103114175
15.559,15.14,-2.43,0.1009456620479376,0.1357378959973007,0.13213662259118925,0.14596238614163948,0.1880338877257144,0.16094117029955715
15.601,15.2,-2.48,0.10076330339963113,0.13527191560415353,0.13193677821715208,0.14556354412319336,0.18776024913411923,0.16048273330013169
15.642,15.25,-2.58,0.10058190027324986,0.13481412720434024,0.1317420157108843,0.14517175701343646,0.1874894182165279,0.16003507060139888
15.683,15.31,-2.41,0.10040177697131548,0.13436487531020044,0.13155262425759978,0.14478743522074597,0.18722159839014416,0.15959859214690847
15.745,15.36,-2.42,0.10022325388721007,0.13392448771753895,0.13136888142592984,0.14441097338185044,0.18695698663044835,0.1591736872396732
15.849,15.42,-2.6,0.1000466474083037,0.13349327556272164,0.13119105317554455,0.1440427503154697,0.18669577350903926,0.1587607245452427
15.87,15.47,-2.54,0.0998722698148738,0.13307153339364727,0.13101939387197292,0.14368312898898733,0.18643814323292895,0.1583600521130512
15.91,15.53,-2.48,0.09970042917479703,0.13265953925422136,0.13085414630842565,0.14333245649785786,0.18618427368511561,0.1579719974156711
15.971,15.58,-2.67,0.09953142923399408,0.1322575547819472,0.1306955417344335,0.14299106405743167,0.18593433646626162,0.15759686740559609
16.054,15.64,-2.64,0.09936556930259484,0.13186582531824684,0.13054379989111614,0.14265926700687684,0.1856884969372965,0.15723494858918227
16.095,15.69,-2.49,0.09920314413677947,0.13148458003112395,0.13039912905289275,0.14233736482489037,0.18544691426275142,0.15688650711738644
16.137,15.75,-2.51,0.09904444381625226,0.1311140320497855,0.13026172607544653,0.14202564115690938,0.1852097414546213,0.15655178889295548
16.22,15.8,-2.61,0.098889753617329,0.1307543786108407,0.13013177644975835,0.14172436385354772,0.18497712541654365,0.15623101969373326
16.24,15.86,-2.36,0.09873935388165847,0.13040580121570208,0.1300094543620305,0.14143378501999343,0.18474920698809133,0.15592440531175278
16.303,15.91,-2.36,0.0985935198806578,0.1300684657988129,0.129894922759338,0.1411541410760987,0.18452612098900098,0.15563213170777088
16.385,15.97,-2.53,0.09845252167581013,0.12974252290632016,0.12978833342086207,0.1408856528268777,0.18430799626318914,0.15535436518088122
16.405,16.02,-2.48,0.09831662397503965,0.12942810788480527,0.12968982703457682,0.1406285255431069,0.18409495572244866,0.15509125255281805
16.466,16.08,-2.38,0.09818608598543961,0.12912534107967652,0.12959953327927204,0.1403829490517066,0.1838871163897539,0.15484292136653682
16.527,16.13,-2.54,0.09806116126267904,0.12883432804282327,0.12951757091180457,0.14014909783557444,0.18368458944212893,0.15460948009865003
16.589,16.19,-2.52,0.09794209755744826,0.1285551597491318,0.12944404785946675,0.13992713114256317,0.18348748025304232,0.15439101838529812
16.652,16.24,-2.37,0.09782913665932663,0.12828791282146845,0.12937906131734453,0.13971719310334207,0.18329588843429856,0.15418760726105085
16.693,16.3,-2.43,0.09772251423848112,0.12803264976374415,0.1293226978505212,0.1395194128579456,0.18310990787740206,0.1539992994104459
16.753,16.35,-2.55,0.09762245968562436,0.12778941920167844,0.12927503350097416,0.13933390469086115,0.18292962679438163,0.1538261294317815
16.815,16.41,-2.39,0.09752919595067185,0.12755825613088986,0.12923613389901037,0.13916076817454254,0.18275512775807978,0.15366811411277992
16.896,16.46,-2.41,0.09744293938053737,0.1273391821719405,0.12920605437909477,0.1390000883212412,0.18258648774193312,0.1535252527177292
16.957,16.52,-2.59,0.09736389955649374,0.12713220583196067,0.12918484009993658,0.1388519357430294,0.18242377815928632,0.15339752728569733
16.978,16.57,-2.53,0.09729227913150511,0.12693732277247458,0.12917252616870456,0.13871636681986357,0.1822670649022939,0.15328490293939764
17.019,16.63,-2.43,0.09722827366792171,0.12675451608304178,0.1291691377692457,0.1385934238755067,0.1821164083804745,0.15318732820427144
17.081,16.68,-2.6,0.09717207147592381,0.1265837565603229,0.12917469029418466,0.13848313536110665,0.18197186355898318,0.15310473533735114
17.121,16.74,-2.6,0.0971238534531054,0.12642500299218087,0.12918918948078312,0.13838551604622207,0.18183347999666663,0.15303704066547302
17.182,16.79,-2.45,0.09708379292559939,0.1262782024464389,0.12921263155044077,0.13830056721709377,0.18170130188396477,0.15298414493242365
17.244,16.85,-2.48,0.09705205549116581,0.12614329056393053,0.12924500335172842,0.13822827688197356,0.18157536808072716,0.15294593365461895
17.327,16.9,-2.59,0.09702879886468092,0.1260201918555013,0.1292862825068573,0.13816861998333332,0.18145571215401757,0.15292227748492737
17.348,16.96,-2.41,0.09701417272647689,0.1259088200026433,0.1293364375615016,0.13812155861678602,0.18134236241599255,0.15291303258425615
17.41,17.01,-2.43,0.09700831857399714,0.12580907816146392,0.12939542813790725,0.13808704225654897,0.18123534196196472,0.1529180410005139
17.47,17.07,-2.62,0.0970113695772522,0.12572085926969637,0.12946320509123715,0.13806500798726645,0.1811346687087815,0.1529371310545524
17.511,17.12,-2.57,0.09702345043857688,0.12564404635645957,0.12953971066911063,0.1380553807419882,0.18104035543367336,0.15297011773267746
17.572,17.18,-2.48,0.09704467725719675,0.12557851285447144,0.12962487867430073,0.13805807354608338,0.1809524098137419,0.15301680308531074
17.695,17.23,-2.67,0.09707515739910977,0.1255241229144159,0.12971863463055264,0.13807298776685875,0.18087083446626157,0.15307697663138273
17.716,17.29,-2.67,0.09711498937276758,0.1254807317211639,0.12982089595147556,0.13810001336865857,0.1807956269899641,0.15315041576804872
17.737,17.34,-2.55,0.0971642627110043,0.12544818581155565,0.1299315721124442,0.13813902917325172,0.18072678000746714,0.15323688618533224
17.777,17.4,-2.59,0.09722305785961917,0.12542632339345816,0.13005056482542932,0.13818990312533982,0.18066428120900221,0.15333614228531162
17.839,17.45,-2.72,0.09729144607297992,0.12541497466582047,0.13017776821666782,0.1382524925630408,0.18060811339759025,0.1534479276054739
17.901,17.51,-2.54,0.09736948931698926,0.12541396213945702,0.13031306900707426,0.13832664449321394,0.1805582545358157,0.15357197524585564
17.943,17.56,-2.58,0.09745724017975724,0.12542310095829162,0.13045634669529352,0.13841219587148948,0.18051467779435526,0.15370800829957984
18.066,17.62,-2.78,0.09755474179034024,0.12544219922079483,0.13060747374329498,0.1385089738868511,0.1804773516024274,0.15385574028638138
18.087,17.67,-2.72,0.09766202774592786,0.12547105830134583,0.13076631576440695,0.13861679625060264,0.1804462397003362,0.15401487558869992
18.128,17.73,-2.62,0.09777912204787688,0.12550947317124872,0.13093273171369144,0.13873547148953508,0.18042130119428437,0.15418510988991313
18.189,17.78,-2.81,0.09790603904700694,0.1255572327191347,0.1311065740805721,0.13886479924309514,0.1804024906136243,0.15436613061428756
18.251,17.84,-2.8,0.09804278339857965,0.12561412007048714,0.13128768908364177,0.13900457056435328,0.1803897579706975,0.1545576173682416
18.293,17.89,-2.68,0.09818935002738398,0.12567991290603747,0.1314759168675918,0.13915456822457592,0.18038304882340447,0.15475924238253363
18.353,17.95,-2.76,0.09834572410334762,0.12575438377879222,0.13167109170222033,0.13931456702122028,0.18038230434063385,0.15497067095500738
18.416,18.0,-2.88,0.09851188102808019,0.12583730042946478,0.13187304218348705,0.1394843340891806,0.18038746137067535,0.15519156189354266
18.436,18.06,-2.75,0.09868778643272413,0.1259284261000974,0.13208159143659298,0.13966362921511946,0.1803984525127351,0.1554215679588673
18.498,18.11,-2.79,0.09887339618745339,0.12602751984566668,0.13229655732107506,0.1398522051547068,0.18041520619166818,0.15566033630688475
18.56,18.17,-2.98,0.09906865642291517,0.12613433684346745,0.13251775263791848,0.14004980795256305,0.18043764673603824,0.15590750893016242
18.621,18.22,-2.93,0.09927350356385635,0.12624862870006975,0.13274498533868978,0.1402561772646703,0.18046569445960242,0.15616272309821685
18.702,18.28,-2.84,0.0994878643751206,0.12637014375563993,0.13297805873668944,0.14047104668298543,0.18049926574630237,0.15642561179622338
18.742,18.33,-3.02,0.09971165602015504,0.126498627385414,0.13321677172011556,0.14069414406196765,0.18053827313882062,0.15669580416177953
18.783,18.39,-3.0,0.09994478613212819,0.1266338222981157,0.13346091896721524,0.14092519184672567,0.18058262543072923,0.15697292591936313
18.844,18.44,-2.85,0.10018715289773854,0.12677546883112137,0.13371029116338817,0.14116390740250165,0.18063222776223578,0.15725659981214127
18.905,18.5,-2.9,0.10043864515378458,0.12692330524218673,0.13396467522019695,0.14141000334522177,0.18068698171951444,0.15754644603080478
18.946,18.55,-3.01,0.10069914249656799,0.12707706799756613,0.13422385449623633,0.14166318787285798,0.1807467854375967,0.1578420826391152
18.987,18.61,-2.83,0.10096851540419785,0.12723649205636686,0.1344876090198066,0.1419231650973549,0.18081153370679529,0.15814312599586142
19.049,18.66,-2.83,0.10124662537186324,0.12740131115099276,0.13475571571333497,0.14218963537687718,0.18088111808263968,0.15844919117292033
19.11,18.72,-2.99,0.10153332506013216,0.12757125806353709,0.13502794861948983,0.14246229564811547,0.18095542699930695,0.15875989236910723
19.15,18.77,-2.97,0.10182845845631626,0.12774606489798718,0.13530407912893277,0.14274083975836732,0.18103434588653722,0.15907484331949218
19.211,18.83,-2.88,0.1021318610489135,0.12792546334810623,0.13558387620965612,0.14302495879708396,0.1811177572900295,0.15939365769984898
19.273,18.88,-3.08,0.1024433600151047,0.12810918496085552,0.13586710663785562,0.14331434142655497,0.181205540995307,0.159715949525903
19.314,18.94,-3.09,0.10276277442123354,0.1282969613952265,0.13615353523028448,0.14360867421140222,0.1812975741550242,0.1600413335470564
19.376,18.99,-2.94,0.10308991543613773,0.12848852467635724,0.13644292507801986,0.14390764194657282,0.1813937314196633,0.1603694256342882
19.437,19.05,-3.0,0.10342458655713517,0.1286836074448183,0.13673503778155538,0.14421092798355115,0.18149388507154027,0.1606998431619478
19.581,19.1,-3.13,0.10376658384840105,0.12888194320096039,0.13702963368711385,0.14451821455453853,0.18159790516201263,0.16103220538317692
19.602,19.16,-2.95,0.10411569619141174,0.12908326654422467,0.13732647212405097,0.14482918309437431,0.18170565965176394,0.16136613379870207
19.622,19.21,-2.98,0.10447170554709037,0.12928731340732127,0.13762531164320518,0.14514351455997884,0.18181701455402993,0.16170125251873738
19.663,19.27,-3.13,0.10483438722926827,0.12949382128518253,0.13792591025604095,0.14546088974708368,0.18193183408062327,0.16203718861773167
19.704,19.32,-3.05,0.1052035101890665,0.12970252945859645,0.13822802567442788,0.14578098960398905,0.18204998079060533,0.16237357248168852
19.767,19.38,-2.92,0.10557883730979845,0.1299131792124248,0.13853141555089798,0.14610349554206176,0.18217131574144552,0.1627100381477885
19.829,19.43,-3.09,0.10596012571199355,0.13012551404830977,0.13883583771922642,0.1464280897426677,0.18229569864249764,0.16304622363604757
19.892,19.49,-3.09,0.10634712706813527,0.13033927989177918,0.13914105043517355,0.14675445546023616,0.1824229880106088,0.16338177127276216
19.933,19.54,-2.93,0.10673958792669543,0.13055422529366822,0.13944681261721653,0.147082277321173,0.18255304132767072,0.1637163280055115
19.974,19.6,-2.97,0.10713725004503855,0.13077010162578703,0.13975288408708272,0.147411241618369,0.1826857151999165,0.16404954570950625
20.057,19.65,-3.08,0.10753985073076093,0.13098666327077144,0.1400590258098842,0.147741036601075,0.18282086551875937,0.16438108148509462
20.099,19.71,-2.92,0.1079471231910126,0.13120366780606213,0.14036500013363368,0.14807135275993852,0.18295834762296717,0.16471059794624976
20.161,19.76,-2.94,0.10835879688932806,0.13142087618196097,0.14067057102790867,0.14840188310700642,0.1830980164619666,0.16503776349986438
20.264,19.82,-3.12,0.10877459790945831,0.13163805289371305,0.14097550432141828,0.14873232345049514,0.18323972676007316,0.16536225261567508
20.285,19.87,-3.07,0.10919424932565125,0.13185496614755976,0.14127956793821445,0.1490623726641205,0.18338333318143912,0.16568374608663375
20.325,19.93,-2.95,0.10961747157878263,0.13207138802070353,0.1415825321322774,0.1493917329507654,0.18352869049550316,0.16600193127954282
20.386,19.98,-3.09,0.11004398285770593,0.13228709461512198,0.14188416972020282,0.1497201101002545,0.18367565374270572,0.1663165023757838
20.448,20.04,-3.06,0.1104734994851696,0.13250186620516965,0.1421842563117104,0.1500472137410063,0.18382407840021053,0.1666271606019905
20.49,20.09,-2.86,0.11090573630764208,0.13271548737891575,0.14248257053768967,0.15037275758535112,0.18397382054735448,0.16693361445054605
20.552,20.15,-2.9,0.1113404070883921,0.13292774717317568,0.14277889427549317,0.1506964596683269,0.1841247370305421,0.16723557988980509
20.635,20.2,-3.01,0.11177722490318324,0.1331384392022068,0.14307301287118393,0.15101804257978663,0.1842766856273018,0.1675327805639619
20.656,20.26,-2.82,0.11221590253795521,0.1333473617800502,0.14336471535843986,0.1513372336896695,0.1844295252092341,0.16782494798249412
20.698,20.31,-2.8,0.11265615288788061,0.1335543180365079,0.14365379467381903,0.15165376536629108,0.1845831159036009,0.16811182169911562
20.759,20.37,-2.95,0.11309768935719967,0.13375911602674737,0.14394004786809853,0.1519673751874942,0.18473731925332088,0.16839314948017037
20.801,20.42,-2.89,0.11354022625923958,0.1339615688345253,0.1442232763134066,0.15227780614448308,0.18489199837514753,0.1686686874623988
20.905,20.48,-2.8,0.11398347921602138,0.1341614946690221,0.14450328590587946,0.15258480683814474,0.18504701811581747,0.16893820030000745
20.926,20.53,-2.99,0.11442716555684565,0.13435871695527654,0.14477988726358695,0.1528881316676518,0.18520224520596032,0.16920146130097732
21.008,20.59,-2.95,0.11487100471522048,0.13455306441821707,0.14505289591947326,0.15318754101115042,0.1853575484115548,0.16945825255256097
21.029,20.64,-2.8,0.11531471862345315,0.1347443711602943,0.14532213250905615,0.15348280139836337,0.18551279868270704,0.16970836503593661
21.09,20.7,-2.83,0.11575803210418535,0.1349324767327327,0.14558742295261756,0.15377368567496968,0.18566786929951173,0.16995159873001103
21.152,20.75,-2.93,0.11620067325811984,0.13511722620042962,0.14584859863161276,0.154059973158651,0.1858226360147466,0.17018776270437982
21.212,20.81,-2.72,0.11664237384717739,0.13529847020054156,0.14610549655901522,0.15434144978671688,0.18597697719315012,0.17041667520146614
21.273,20.86,-2.65,0.11708286967233889,0.13547606499480344,0.14635795954331168,0.15461790825523256,0.18613077394704358,0.17063816370785928
21.294,20.92,-2.84,0.11752190094546305,0.1356498725156283,0.14660583634586646,0.15488914814956892,0.186283910268076,0.17085206501487307
21.376,20.97,-2.74,0.11795921265441181,0.13581976040603477,0.14684898183138273,0.15515497606628592,0.1864362731548897,0.17105822526833978
21.437,21.03,-2.62,0.11839455492086198,0.1359856020534469,0.14708725711120293,0.15541520572625198,0.18658775273653175,0.17125650000765164
21.5,21.08,-2.78,0.11882768335023662,0.13614727661741113,0.14732052967921835,0.15566965807889666,0.1867382423914532,0.17144675419406738
21.521,21.14,-2.82,0.11925835937323458,0.13630466905127872,0.1475486735401818,0.15591816139750098,0.18688763886195026,0.17162886222831505
21.582,21.19,-2.63,0.1196863505784715,0.13645767011790944,0.1477715693302424,0.15616055136545226,0.1870358423639059,0.17180270795754768
21.623,21.25,-2.71,0.12011143103576481,0.13660617639946712,0.14798910442954316,0.1563966711534158,0.18718275669169476,0.17196818467173122
21.727,21.3,-2.86,0.1205333816095977,0.13675009030138877,0.14820117306674038,0.15662637148740366,0.18732828931810952,0.17212519508957175
21.748,21.36,-2.68,0.12095199026228184,0.136889320050621,0.1484076764153076,0.1568495107077506,0.1874723514891668,0.17227365133410738
21.789,21.41,-2.64,0.12136705234631763,0.13702377968822652,0.1486085226814869,0.15706595481902672,0.18761485831364866,0.17241347489810246
21.849,21.47,-2.83,0.12177837088542943,0.13715338905646507,0.14880362718375073,0.15727557753092272,0.1877557288472357,0.17254459659938773
21.91,21.52,-2.75,0.1221857568437412,0.1372780737804517,0.14899291242363724,0.15747826029014045,0.18789488617108313,0.17266695652629713
21.972,21.58,-2.59,0.12258902938257069,0.13739776524449318,0.14917630814783067,0.15767389230331602,0.18803225746469412,0.17278050397335767
22.014,21.63,-2.75,0.1229880161043637,0.13751240056320008,0.14935375140138,0.15786237055100197,0.18816777407294719,0.1728851973674032
22.098,21.69,-2.73,0.1233825532833453,0.13762192254747582,0.14952518657196967,0.15804359979274854,0.18830137156713095,0.172981004184304
22.139,21.74,-2.56,0.12377248608252174,0.1377262796654949,0.14969056542517617,0.15821749256335949,0.18843298979984843,0.1730679008565295
22.201,21.8,-2.6,0.12415766875671971,0.13782542599879546,0.14984984713065902,0.15838396916043945,0.18856257295365983,0.17314587267178622
22.242,21.85,-2.7,0.12453796484139788,0.1379193211936264,0.15000299827924776,0.15854295762339307,0.18869006958334766,0.17321491366299377
22.284,21.91,-2.52,0.12491324732700447,0.1380079304077006,0.15014999289089134,0.15869439370407437,0.1888154326517019,0.17327502648988072
22.347,21.96,-2.52,0.12528339881868966,0.13809122425251555,0.15029081241344897,0.15883822082930701,0.18893861955874452,0.1733262223124896
22.408,22.02,-2.64,0.1256483116812052,0.13816917873140236,0.15042544571231847,0.15897439005549613,0.18905959216433302,0.17336852065688155
22.49,22.07,-2.56,0.12600788816883657,0.13824177517346334,0.15055388905091616,0.15910286001554244,0.18917831680409786,0.17340194927332847
22.51,22.13,-2.5,0.12636204054021738,0.13830900016355036,0.15067614606203694,0.15922359685825682,0.18929476429869022,0.17342654398727445
22.571,22.18,-2.66,0.12671069115787736,0.13837084546842934,0.15079222771013898,0.15933657418046462,0.18940890995632637,0.17344234854334445
22.632,22.24,-2.61,0.1270537725723767,0.13842730795926741,0.1509021522446105,0.15944177295198556,0.18952073356862084,0.17344941444267875
22.693,22.29,-2.56,0.12739122759087343,0.1384783895305776,0.15100594514409063,0.15953918143368054,0.18963021939970642,0.17344780077387634
22.775,22.35,-2.61,0.12772300932997577,0.13852409701575522,0.15110363905192994,0.15962879508876643,0.18973735616863377,0.17343757403783622
22.837,22.4,-2.68,0.12804908125274578,0.13856444209934557,0.15119527370288546,0.1597106164876143,0.18984213702504224,0.17341880796679263
22.857,22.46,-2.47,0.1283694171897493,0.13859944122618392,0.15128089584114643,0.15978465520626214,0.1899445595180874,0.17339158333784366
22.899,22.51,-2.44,0.12868400134408892,0.13862911550755033,0.15136055912978705,0.15985092771887996,0.1900446255586114,0.17335598778127076
22.961,22.57,-2.55,0.1289928282804027,0.13865349062447624,0.15143432405174623,0.15990945728441847,0.1901423413745471,0.17331211558393841
23.001,22.62,-2.49,0.12929590289785917,0.1386725967283343,0.151502257802439,0.15996027382766084,0.1902377174595688,0.1732600674880534
23.063,22.68,-2.42,0.12959324038722275,0.13868646833883647,0.15156443417411616,0.1600034138148838,0.1903307685150316,0.1731999504855522
23.125,22.73,-2.57,0.12988486617211387,0.13869514423956122,0.15162093343210692,0.1600389201243232,0.1904215133852711,0.1731318776083774
23.207,22.79,-2.58,0.13017081583463083,0.13869866737112696,0.15167184218309473,0.16006684191164489,0.190509974986349,0.17305596771490728
23.228,22.84,-2.47,0.1304511350255331,0.13869708472212774,0.1517172532355835,0.1600872344706384,0.19059618022833907,0.17297234527280891
23.289,22.9,-2.56,0.1307258793592043,0.13869044721794938,0.15175726545271173,0.16010015908937394,0.19068015993124585,0.17288114013859443
23.331,22.95,-2.62,0.1309951142936039,0.13867880960758636,0.15179198359756774,0.16010568290208324,0.19076194873464247,0.1727824873341691
23.413,23.01,-2.43,0.13125891499538966,0.13866223034858285,0.15182151817114334,0.16010387873703713,0.19084158500110718,0.17267652682066226
23.454,23.06,-2.4,0.1315173661903585,0.13864077149022355,0.15184598524305212,0.16009482496069105,0.1909191107135374,0.1725634032698275
23.495,23.12,-2.53,0.1317705619993365,0.13861449855509417,0.15186550627513204,0.16007860531835225,0.1909945713664264,0.17244326583328687
23.557,23.17,-2.44,0.13201860575965618,0.1385834804191263,0.15188020793805518,0.16005530877160024,0.19106801585120312,0.1723162679098801
23.619,23.23,-2.36,0.13226160983239366,0.13854778919023464,0.15189022192108026,0.16002502933267038,0.19113949633576405,0.1721825669113659
23.681,23.28,-2.51,0.13249969539559955,0.13850750008564627,0.15189568473510842,0.15998786589599417,0.19120906813835006,0.17204232402671799
23.723,23.34,-2.5,0.13273299222381924,0.13846269130801897,0.15189673750922655,0.15994392206708233,0.19127678959594027,0.1718957039852605
23.786,23.39,-2.39,0.13296163845425701,0.13841344392044386,0.15189352578094817,0.15989330598893964,0.19134272192734608,0.17174287481889974
23.847,23.45,-2.48,0.13318578033998504,0.13835984172043295,0.1518861992803833,0.15983613016620582,0.19140692909119827,0.17158400762371737
23.927,23.5,-2.56,0.1334055719906272,0.138301971112995,0.15187491170858744,0.1597725112872196,0.19146947763901934,0.17141927632120205
23.948,23.56,-2.41,0.13362117510095803,0.13823992098290824,0.15185982051034563,0.15970257004421184,0.19153043656357413,0.1712488574194046
24.009,23.61,-2.4,0.13383275866785405,0.13817378256629953,0.15184108664164725,0.1596264309518341,0.19158987714269393,0.17107292977429817
24.049,23.67,-2.54,0.13404049869602494,0.13810364932163657,0.15181887433211055,0.15954422216422048,0.19164787277877068,0.17089167435162192
24.112,23.72,-2.47,0.13424457789292973,0.13802961680023731,0.1517933508426134,0.15945607529077058,0.19170449883412435,0.17070527398947663
24.173,23.78,-2.4,0.1344451853532635,0.13795178251639653,0.1517646862183932,0.15936212521082874,0.19175983246245915,0.17051391316192938
24.234,23.83,-2.53,0.13464251623338233,0.13787024581722945,0.15173305303788742,0.1592625098874291,0.19181395243663016,0.17031777774388135
24.295,23.89,-2.55,0.1348367714160347,0.13778510775232894,0.15169862615760066,0.1591573701802734,0.19186693897294857,0.1701170547774507
24.336,23.94,-2.4,0.13502815716578218,0.1376964709433379,0.15166158245329925,0.15904684965811286,0.191918873552252,0.1699119322401319
24.377,24.0,-2.46,0.13521688477552107,0.1376044394535395,0.15162210055785116,0.15893109441070727,0.19196983873796888,0.16970259881499541
24.438,24.05,-2.53,0.13540317020455303,0.1375091186575751,0.151580360596043,0.15881025286052888,0.19201991799140367,0.16948924366319812
24.499,24.11,-2.37,0.1355872337086767,0.13741061511140115,0.15153654391671073,0.158684475574371,0.1920691954844742,0.16927205619907126
24.561,24.16,-2.32,0.13576929946280072,0.13730903642260048,0.1514908328225252,0.15855391507500846,0.1921177559101442,0.16905122586804341
24.602,24.22,-2.44,0.13594959517659885,0.13720449112115943,0.1514434102977732,0.15841872565304593,0.1921656842908105,0.16882694192763945
24.664,24.27,-2.37,0.1361283517037484,0.1370970885308233,0.1513944597344744,0.1582790631790891,0.19221306578492783,0.16859939323178302
24.705,24.33,-2.3,0.1363058026453057,0.13698693864114217,0.15134416465717676,0.15813508491638598,0.1922599854921846,0.1683687680186118
24.788,24.38,-2.46,0.1364821839477847,0.136874151980321,0.15129270844678502,0.15798694933409313,0.19230652825756686,0.16813525370200477
24.83,24.44,-2.51,0.13665773349650756,0.13675883948899262,0.15124027406379348,0.15783481592132909,0.1923527784746666,0.16789903666701667
24.87,24.49,-2.38,0.13683269070478785,0.13664111239503227,0.15118704377131162,0.15767884500217969,0.19239881988859775,0.1676603020694127
24.932,24.55,-2.43,0.13700729609948273,0.136521082089537,0.15113319885827953,0.15751919755182076,0.1924447353988805,0.16741923363949668
25.033,24.6,-2.54,0.13718179090342367,0.13639886000409263,0.15107891936327478,0.15735603501391718,0.1924906068626437,0.1671760134904231
25.054,24.66,-2.44,0.1373564166152046,0.13627455748944792,0.15102438379930197,0.15718951911944984,0.1925365148984876,0.16693082193117395
25.096,24.71,-2.38,0.13753141458679977,0.13614828569571116,0.1509697688799464,0.15701981170711127,0.192582538691347,0.16668383728436645
25.158,24.77,-2.55,0.13770702559949155,0.136020155454177,0.1509152492472616,0.1568470745453994,0.1926287557986937,0.16643523570904578
25.199,24.82,-2.44,0.13788348943860637,0.13589027716088878,0.150860997201752,0.15667146915653407,0.19267524195841862,0.1661851910286091
25.283,24.88,-2.36,0.13806104446757894,0.13575876066204412,0.15080718243480903,0.1564931566423289,0.1927220708987375,0.1659338745640037
25.387,24.93,-2.45,0.13823992720189127,0.13562571514135627,0.15075397176396135,0.15631229751216494,0.19276931415047222,0.16568145497233952
25.408,24.99,-2.59,0.1384203718834627,0.13549124900949008,0.15070152887130076,0.1561290515132333,0.19281704086206577,0.16542809809105175
25.428,25.04,-2.47,0.1386026100560929,0.13535546979569466,0.15065001404544878,0.15594357746323376,0.19286531761770323,0.16517396678774324
25.491,25.1,-2.54,0.13878687014258284,0.1352184840417563,0.15059958392743028,0.1557560330857239,0.19291420825891234,0.16491922081582344
25.532,25.15,-2.67,0.13897337702417156,0.13508039719838816,0.15055039126082248,0.1555665748483103,0.19296377371000903,0.16466401667605052
25.594,25.21,-2.6,0.13916235162292506,0.13494131352416408,0.15050258464654373,0.1553753578038635,0.193014071807731,0.1644085074840744
25.654,25.26,-2.58,0.13935401048770515,0.1348013359870881,0.1504563083026398,0.15518253543492463,0.1930651571353793,0.16415284284406825
25.715,25.32,-2.75,0.1395485653843256,0.1346605661688746,0.15041170182941588,0.15498825950146153,0.19311708086176452,0.16389716872853402
25.776,25.37,-2.67,0.13974622289046804,0.13451910417200297,0.15036889998025224,0.15479267989212267,0.19316989058522854,0.16364162736437185
25.816,25.43,-2.58,0.13994718399589248,0.1343770485296079,0.15032803243842946,0.15459594447914107,0.19322363018299293,0.16338635712530838
25.878,25.48,-2.63,0.14015164370845296,0.13423449611826632,0.15028922360028477,0.15439819897704044,0.19327833966606367,0.1631314924307873
25.94,25.54,-2.68,0.14035979066642504,0.13409154207374455,0.15025259236501817,0.15419958680530052,0.19333405503991072,0.16287716365142796
25.98,25.59,-2.52,0.14057180675766975,0.13394827970977313,0.150218251931467,0.15400024895514028,0.19339080817113882,0.1626234970211516
26.042,25.65,-2.56,0.14078786674618474,0.13380480043991386,0.15018630960216772,0.1538003238605724,0.19344862666037146,0.16237061455606144
26.165,25.7,-2.7,0.14100813790662364,0.1336611937025822,0.15015686659502767,0.1535999472738652,0.19350753372158008,0.1621186339801428
26.185,25.76,-2.63,0.14123277966738945,0.13351754688927947,0.1501300178629289,0.1533992521455252,0.19356754806809795,0.16186766865783164
26.206,25.81,-2.58,0.1414619432629258,0.1333739452760809,0.15010585192158662,0.1531983685088888,0.1936286838055645,0.16161782753348272
26.246,25.87,-2.73,0.14169577139584075,0.13323047195841684,0.15008445068598303,0.15299742336939098,0.19369095033203745,0.16136921507775967
26.307,25.92,-2.68,0.1419343979094897,0.13308720778918123,0.15006588931568943,0.15279654059857264,0.19375435224549833,0.16112193124096863
26.369,25.98,-2.62,0.1421779474716241,0.13294423132020056,0.1500502360693776,0.15259584083289773,0.19381888925895882,0.16087607141336
26.43,26.03,-2.71,0.14242653526968918,0.13280161874709748,0.15003755216880799,0.15239544137746575,0.19388455612336294,0.16063172639242335
26.513,26.09,-2.75,0.1426802667183199,0.1326594438575853,0.15002789167256694,0.15219545611472332,0.19395134255846574,0.16038898235720092
26.533,26.14,-2.61,0.1429392371795465,0.13251777798322825,0.1500213013598075,0.15199599541829148,0.19401923319185668,0.16014792084963692
26.574,26.2,-2.65,0.14320353169617692,0.13237668995470092,0.15001782062422872,0.15179716607202925,0.19408820750628555,0.15990861876296636
26.677,26.25,-2.76,0.14347322473878726,0.13223624606057213,0.15001748137850926,0.151599071194446,0.19415823979543986,0.15967114833712692
26.696,26.31,-2.69,0.143748379966725,0.13209651000963152,0.15002030796939414,0.15140181016855955,0.19422929912831727,0.15943557716115284
26.757,26.36,-2.64,0.14402905000352928,0.13195754289676567,0.15002631710362205,0.151205478577273,0.19430134932233567,0.1592019681824888
26.798,26.42,-2.8,0.14431527622719217,0.13181940317238203,0.15003551778488397,0.151010168144316,0.19437434892531572,0.1589703797231485
26.86,26.47,-2.76,0.1446070885757073,0.13168214661537378,0.15004791126200287,0.15081596668077896,0.19444825120645942,0.15874086550263922
26.921,26.53,-2.68,0.14490450536837418,0.13154582630962022,0.15006349098852545,0.15062295803726442,0.19452300415643273,0.15851347466757892
26.982,26.58,-2.75,0.1452075331433367,0.13141049262401827,0.15008224259391362,0.15043122206168164,0.19459855049664404,0.15828825182793868
27.045,26.64,-2.8,0.14551616651183494,0.13127619319604675,0.15010414386651486,0.15024083456271836,0.19467482769779226,0.15806523709984766
27.088,26.69,-2.68,0.14583038802963164,0.13114297291886742,0.15012916474847232,0.1500518672790319,0.19475176800774288,0.1578444661548978
27.149,26.75,-2.7,0.14615016808604617,0.13101087393196786,0.15015726734271154,0.14986438785420475,0.1948292984887809,0.15762597027587116
27.272,26.8,-2.83,0.1464754648109927,0.13087993561534744,0.1501884059321177,0.1496784598175043,0.19490734106428212,0.15740977641879586
27.293,26.86,-2.77,0.1468062240003748,0.13075019458723852,0.15022252701099417,0.14949414257046917,0.1949858125748342,0.15719590728121513
27.313,26.91,-2.73,0.147142379060148,0.13062168470534352,0.150259569328873,0.14931149137932714,0.19506462484383352,0.15698438137653417
27.354,26.97,-2.84,0.14748385096932126,0.13049443707155464,0.15029946394673874,0.14913055737322428,0.1951436847525669,0.15677521311429699
27.416,27.02,-2.84,0.14783054826212833,0.13036848004011425,0.15034213430571172,0.14895138754822865,0.19522289432476606,0.1565684128862387
27.478,27.08,-2.73,0.1481823670295627,0.1302438392291692,0.15038749630822298,0.14877402477706592,0.19530215082060504,0.15636398715795527
27.52,27.13,-2.79,0.14853919094044335,0.13012053753567165,0.1504354584116936,0.14859850782453965,0.1953813468400872,0.1561619385660263
27.604,27.19,-2.87,0.14890089128215941,0.12999859515357962,0.1504859217347104,0.148424871368586,0.1954603704357545,0.15596226602042398
27.625,27.24,-2.72,0.14926732702122106,0.12987802959531336,0.15053878017566374,0.1482531460269057,0.19553910523463242,0.15576496481203012
27.687,27.3,-2.68,0.14963834488372196,0.12975885571642387,0.15059392054378742,0.14808335838910167,0.19561743056931805,0.1555700267250714
27.749,27.35,-2.85,0.15001377945579464,0.12964108574342895,0.150651222702515,0.1479155310542324,0.1956952216181075,0.15537744015426752
27.79,27.41,-2.79,0.1503934533041167,0.12952472930477005,0.1507105597250342,0.1477496826736777,0.19577234955405667,0.15518719022647234
27.852,27.46,-2.67,0.15077717711650893,0.1294097934648397,0.15077179806188365,0.1475858279992125,0.1958486817028674,0.15499925892657856
27.894,27.52,-2.86,0.1511647498626504,0.12929628276102603,0.15083479772039968,0.14742397793619338,0.19592408170948925,0.15481362522745004
27.996,27.57,-2.92,0.1515559589749165,0.1291841992437178,0.15089941245578767,0.14726413960177628,0.1959984097133095,0.15463026522365228
28.016,27.63,-2.78,0.15195058054930996,0.12907354251921255,0.15096548997356576,0.14710631638810592,0.19607152253179097,0.15444915226875292
28.077,27.68,-2.85,0.15234837956641087,0.1289643097954692,0.1510328721431102,0.146950508030426,0.19614327385239294,0.1542702571159675
28.138,27.74,-2.98,0.15274911013221096,0.12885649593064255,0.15110139522201368,0.1467967106800571,0.1962135144325787,0.15409354806192377
28.18,27.79,-2.85,0.15315251573862615,0.12875009348433142,0.1511708900909433,0.14664491698217658,0.1962820923076802,0.153918991093311
28.242,27.85,-2.8,0.15355832954340443,0.12864509277146338,0.15124118249865887,0.14649511615831795,0.19634885300636484,0.15374655003616966
28.344,27.9,-2.96,0.15396627466907692,0.12854148191873183,0.15131209331682713,0.14634729409348143,0.1964136397734191,0.15357618670756598
28.364,27.96,-2.91,0.15437606452054728,0.1284392469234951,0.15138343880424007,0.14620143342773728,0.1964762937995441,0.15340786106939128
28.406,28.01,-2.79,0.15478740312088085,0.12833837171504694,0.15145503088002268,0.14605751365220127,0.1965366544578399,0.15324153138402874
28.468,28.07,-2.86,0.15519998546484268,0.1282388382181695,0.15152667740540254,0.14591551120926965,0.19659455954663876,0.15307715437163377
28.53,28.12,-2.92,0.155613497889726,0.12814062641888344,0.1515981824736166,0.14577539959700644,0.1966498455383322,0.152914685368786
28.573,28.18,-2.76,0.15602761846300672,0.12804371443231244,0.15166934670753743,0.14563714947758075,0.19670234783382518,0.15275407848827366
28.614,28.23,-2.8,0.15644201738635294,0.12794807857257906,0.15173996756461466,0.14550072878964468,0.19675190102224527,0.15259528677976947
28.698,28.29,-2.93,0.1568563574155122,0.12785369342464123,0.15180983964873482,0.14536610286452392,0.19679833914552847,0.1524382623911489
28.738,28.34,-2.85,0.15727029429557843,0.12776053191797154,0.15187875502860063,0.145233234546064,0.19684149596749598,0.15228295673019102
28.799,28.4,-2.78,0.15768347721110704,0.12766856540197083,0.15194650356222522,0.14510208431394608,0.19688120524702643,0.15212932062639237
28.841,28.45,-2.96,0.15809554925050145,0.12757776372299834,0.15201287322712428,0.1449726104102575,0.19691730101491284,0.1519773044926207
28.903,28.51,-2.89,0.15850614788403447,0.12748809530289862,0.1520776504557732,0.14484476896909007,0.19694961785396725,0.15182685848634436
28.983,28.56,-2.78,0.15891490545480266,0.12739952721890452,0.1521406204758729,0.14471851414894457,0.19697799118191928,0.15167793267018279
29.004,28.62,-2.84,0.15932144968184878,0.1273120252847996,0.15220156765495044,0.14459379826773192,0.1970022575366302,0.15153047717153675
29.066,28.67,-2.87,0.15972540417463144,0.12722555413322434,0.15226027584880575,0.1444705719401726,0.19702225486312733,0.15138444234106652
29.13,28.73,-2.69,0.1601263889579855,0.12714007729900817,0.1523165287533036,0.1443487842174032,0.1970378228019525,0.15123977890978485
29.173,28.78,-2.72,0.16052402100670302,0.1270555573034048,0.15237011025900052,0.14422838272859104,0.19704880297831714,0.1510964381445247
29.233,28.84,-2.82,0.16091791478886425,0.12697195573910036,0.1524208048080902,0.14410931382434067,0.1970550392915584,0.15095437200152667
29.315,28.89,-2.74,0.16130768281704783,0.12688923335585958,0.1524683977531392,0.1439915227216505,0.19705637820439958,0.15081353327787436
29.357,28.95,-2.67,0.16169293620655079,0.12680735014666994,0.15251267571707858,0.14387495365015604,0.1970526690315228,0.15067387576049315
29.459,29.0,-2.8,0.16207328523975328,0.12672626543424242,0.15255342695391017,0.14375954999937798,0.19704376422696598,0.15053535437242593
29.48,29.06,-2.75,0.16244833993576768,0.12664593795772877,0.15259044170958108,0.1436452544666942,0.19702951966984805,0.1503979253161064
29.523,29.11,-2.65,0.16281771062451178,0.12656632595951886,0.15262351258246973,0.1435320092057682,0.1970097949479212,0.15026154621336593
29.563,29.17,-2.76,0.16318100852435025,0.12648738727198955,0.15265243488292113,0.14341975597518586,0.1969844536384424,0.1501261762419253
29.626,29.22,-2.8,0.16353784632244361,0.12640907940408047,0.15267700699126333,0.14330843628707277,0.19695336358584806,0.14999177626813928
29.687,29.28,-2.63,0.1638878387569345,0.12633135962758013,0.15269703071372806,0.14319799155548163,0.19691639717570927,0.14985830897577446
29.729,29.33,-2.5,0.16423060320008223,0.1262541850630076,0.1527123116356936,0.1430883632443508,0.19687343160443802,0.14972573899061017
29.834,29.39,-2.59,0.16456576024143182,0.12617751276497602,0.15272265947166164,0.14297949301483454,0.19682434914421007,0.14959403300065907
29.855,29.44,-2.5,0.16489293427007481,0.1261012998069229,0.1527278884113812,0.1428713228718003,0.19676903740258217,0.14946315987180267
29.895,29.5,-2.4,0.1652117540550419,0.12602550336508764,0.15272781746153538,0.14276379530928085,0.19670738957631262,0.1493330907586368
29.958,29.55,-2.53,0.16552185332287467,0.1259500808016148,0.15272227078242845,0.14265685345465806,0.1966393046989358,0.14920379921031804
29.997,29.61,-2.5,0.16582287133144977,0.12587498974665953,0.15271107801913048,0.14255044121135127,0.19656468788167483,0.14907526127121296
30.079,29.66,-2.36,0.16611445343915995,0.12580018817937763,0.15269407462655696,0.14244450339978793,0.19648345054730168,0.1489474555761643
30.1,29.72,-2.39,0.16639625166859215,0.1257256345076895,0.1526711021879784,0.14233898589644603,0.19639551065657024,0.1488203634402061
30.182,29.77,-2.45,0.1666679252638701,0.1256512876467148,0.1526420087264619,0.1422338357707694,0.19630079292686078,0.14869396894257533
30.224,29.83,-2.29,0.16692914124085168,0.12557710709578407,0.15260664900874274,0.14212900141977272,0.19619922904268997,0.1485682590048786
30.284,29.88,-2.25,0.16717957492938715,0.12550305301393702,0.15256488484102457,0.1420244327001571,0.19609075785776534,0.14844322346327316
30.344,29.94,-2.47,0.16741891050685614,0.12542908629381902,0.15251658535620838,0.14192008105774948,0.19597532558828726,0.14831885513452028
30.385,29.99,-2.41,0.16764684152220735,0.1253551686338877,0.15246162729206422,0.1418158996540706,0.19585288599722708,0.14819514987576995
30.467,30.05,-2.33,0.16786307140972273,0.12528126260884187,0.15239989525987732,0.14171184348982732,0.19572340056933005,0.14807210663794534
30.488,30.1,-2.45,0.1680673139917258,0.12520733173818652,0.15233128200312243,0.141607869525123,0.19558683867659707,0.1479497275126187
30.551,30.16,-2.48,0.1682592939694391,0.12513334055284964,0.15225568864574307,0.14150393679618326,0.1954431777339886,0.14782801777230245
30.633,30.21,-2.3,0.16843874740118422,0.12505925465977089,0.15217302492963108,0.14140000652840615,0.1952924033450863,0.14770698590411074
30.674,30.27,-2.32,0.16860542216711438,0.12498504080438408,0.15208320944092385,0.1412960422455506,0.1951345094374424,0.14758664363676813
30.716,30.32,-2.41,0.16875907841968296,0.12491066693091864,0.1519861698247549,0.14119200987487945,0.1949694983873477,0.14746700596095516
30.779,30.38,-2.25,0.16889948901907628,0.12483610224044829,0.1518818429881071,0.14108787784807325,0.19479738113376394,0.14734809114298836
30.841,30.43,-2.17,0.16902643995287747,0.12476131724661617,0.15177017529042974,0.14098361719772592,0.1946181772811882,0.14722992073183244
30.923,30.49,-2.32,0.16913973073927632,0.12468628382896596,0.15165112272169462,0.14087920164923395,0.19443191519124736,0.1471125195594455
30.944,30.54,-2.26,0.1692391748131907,0.12461097528380935,0.15152465106757848,0.14077460770789607,0.19423863206285014,0.1469959157344668
30.985,30.6,-2.14,0.16932459989471246,0.12453536637256438,0.15139073606147704,0.1406698147410619,0.19403837400075924,0.14688014062926824
31.048,30.65,-2.35,0.16939584833933916,0.12445943336750746,0.15124936352308302,0.14056480505519103,0.19383119607247556,0.14676522886040744
31.11,30.71,-2.38,0.16945277746949017,0.124383154094891,0.15110052948329164,0.1404595639677105,0.19361716235334417,0.14665121826254407
31.151,30.76,-2.22,0.16949525988683803,0.12430650797538824,0.15094424029522716,0.14035407987358,0.19339634595980562,0.14653814985590247
31.213,30.82,-2.3,0.1695231837650152,0.12422947606183214,0.15078051273121612,0.14024834430648347,0.1931688290707187,0.1464260678073811
31.275,30.87,-2.41,0.16953645312227872,0.1241520410742147,0.1506093740655633,0.14014235199456,0.1929347029366744,0.14631501938542388
31.316,30.93,-2.31,0.16953498807372408,0.12407418743191227,0.15043086214300772,0.14003610091057406,0.19269406787722235,0.1462050549087759
31.378,30.98,-2.22,0.16951872506264584,0.12399590128309916,0.15024502543275253,0.13992959231641494,0.19244703326593365,0.14609622768925293
31.419,31.04,-2.36,0.1694876170706495,0.12391717053131264,0.15005192306797285,0.13982283080181512,0.19219371750323122,0.1459885939686629
31.481,31.09,-2.3,0.16944163380613758,0.12383798485913691,0.14985162487071263,0.13971582431719537,0.1919342479769266,0.1458822128500351
31.542,31.15,-2.19,0.16938076187082224,0.12375833574898291,0.14964421136209055,0.13960858420057778,0.19166876101041552,0.14577714622333154
31.583,31.2,-2.23,0.16930500490396136,0.12367821650095283,0.14942977375775576,0.13950112519854102,0.19139740179850662,0.14567345868583523
31.666,31.26,-2.28,0.1692143837040685,0.1235976222477892,0.1492084139485596,0.1393934654812203,0.19112032433087706,0.14557121745742824
31.748,31.31,-2.13,0.169108936327903,0.12351654996691862,0.14898024446643632,0.13928562665137764,0.19083769130317846,0.14547049229098263
31.768,31.37,-2.18,0.1689887181666064,0.1234349984896063,0.14874538843551452,0.13917763374757658,0.19054967401584588,0.14537135537809143
31.81,31.42,-2.32,0.16885380199890312,0.12335296850724059,0.1485039795085091,0.13906951524149494,0.19025645226069543,0.1452738812503622
31.871,31.48,-2.28,0.1687042780213283,0.12327046257476625,0.14825616178846665,0.13896130302940052,0.18995821419542125,0.14517814667649093
31.912,31.53,-2.15,0.16854025385548344,0.12318748511128494,0.14800208973596138,0.1388530324178032,0.18965515620612353,0.1450842305553265
32.015,31.59,-2.32,0.16836185453235364,0.12310404239783947,0.14774192806186362,0.13874474210328236,0.18934748275800697,0.144992213805132
32.036,31.64,-2.28,0.16816922245374422,0.12302014257240157,0.14747585160582227,0.13863647414648478,0.18903540623439288,0.14490217924924947
32.077,31.7,-2.15,0.1679625173309051,0.12293579562208702,0.1472040452006187,0.13852827394029593,0.18871914676419693,0.14481421149837365
32.139,31.75,-2.21,0.16774191610042663,0.1228510133726297,0.14692670352256618,0.13842019017220547,0.18839893203803995,0.14472839682964056
32.201,31.81,-2.19,0.16750761281751014,0.1227658094751519,0.14664403092814995,0.13831227478090743,0.18807499711317957,0.14464482306273946
32.263,31.86,-2.04,0.16725981852675345,0.12268019939027454,0.1463562412771226,0.13820458290719595,0.1877475842074765,0.14456357943325815
32.306,31.92,-2.06,0.16699876111064071,0.1225942003696138,0.14606355774230048,0.13809717283922204,0.1874169424826461,0.14448475646346476
32.429,31.97,-2.19,0.16672468511598224,0.12250783143471161,0.14576621260633593,0.13799010595217262,0.18708332781709147,0.1444084458307141
32.45,32.03,-2.13,0.16643785155860094,0.12242111335344727,0.14546444704577294,0.13788344664242091,0.18674700256866322,0.14433474023364878
32.492,32.08,-2.07,0.16613853770661574,0.12233406861397562,0.1451585109027253,0.13777726225619014,0.18640823532773393,0.14426373325634798
32.534,32.14,-2.23,0.1658270368427257,0.1222467213962345,0.14484866244455447,0.13767162301277103,0.18606730066100766,0.1441955192305744
32.596,32.19,-2.23,0.16550365800594927,0.1221590975410646,0.14453516811195866,0.13756660192234516,0.1857244788464987,0.14413019309627514
32.656,32.25,-2.14,0.16516872571331026,0.12207122451698876,0.14421830225591228,0.1374622746984915,0.18538005560012957,0.14406785026050256
32.759,32.3,-2.22,0.16482257966198713,0.12198313138470519,0.14389834686391673,0.13735871966548308,0.1850343217944056,0.14400858645493309
32.78,32.36,-2.29,0.1644655744124486,0.12189484875935887,0.14357559127603853,0.13725601766051357,0.18468757316963164,0.1439524975921712
32.801,32.41,-2.18,0.1640980790530942,0.12180640877066454,0.14325033189121306,0.13715425193103023,0.18434011003814454,0.14389967962102929
32.883,32.47,-2.19,0.16372047684691168,0.12171784502096038,0.14292287186429253,0.1370535080273742,0.18399223698204917,0.14385022838096992
32.904,32.52,-2.34,0.16333316486067542,0.12162919254127053,0.1425935207943216,0.136953873690937,0.18364426254495828,0.14380423945588586
32.966,32.58,-2.28,0.16293655357723738,0.12154048774545015,0.14226259440453135,0.1368554387380394,0.18329649891825447,0.14376180802738261
33.007,32.63,-2.21,0.16253106649151658,0.12145176838247904,0.14193041421455263,0.13675829493973043,0.18294926162240702,0.14372302872771983
33.111,32.69,-2.39,0.16211713969086264,0.12136307348696242,0.14159730720536673,0.13666253589770044,0.18260286918389168,0.14368799549256844
33.131,32.74,-2.43,0.16169522142053805,0.12127444332789425,0.14126360547752362,0.13656825691650623,0.18225764280826542,0.14365680141375164
33.192,32.8,-2.33,0.16126577163511854,0.12118591935574011,0.1409296459031736,0.13647555487231974,0.18191390604995383,0.14362953859214883
33.232,32.85,-2.41,0.1608292615366503,0.12109754414790176,0.1405957697724724,0.1363845280784249,0.18157198447930997,0.14360629799095692
33.314,32.91,-2.56,0.1603861731004157,0.12100936135263288,0.1402623224349257,0.13629527614770146,0.1812322053474951,0.14358716928951223
33.355,32.96,-2.44,0.15993699858915036,0.12092141563148188,0.1399296529362375,0.1362078998523462,0.18089489724972843,0.14357224073788366
33.396,33.02,-2.45,0.15948224005653358,0.1208337526003419,0.1395981136512228,0.1361225009810833,0.18056038978744673,0.14356159901244386
33.479,33.07,-2.64,0.15902240884074595,0.12074641876918528,0.1392680599133462,0.13603918219410366,0.18022901322991053,0.1435553290726223
33.519,33.13,-2.61,0.1585580250488576,0.12065946148055648,0.13893984964145034,0.13595804687595864,0.17990109817578379,0.14355351401903932
33.561,33.18,-2.57,0.15808961703277882,0.12057292884689307,0.13861384296424048,0.1358791989866264,0.1795769752152101,0.14355623495321812
33.622,33.24,-2.73,0.15761772085749168,0.12048686968674076,0.13829040184309613,0.13580274291096206,0.1792569745928939,0.1435635708390709
33.683,33.29,-2.81,0.15714287976228203,0.12040133345992747,0.13796988969378093,0.13572878330674862,0.1789414258726773,0.1435755983663604
33.723,33.35,-2.67,0.15666564361570703,0.12031637020176515,0.1376526710076156,0.13565742495157665,0.17863065760408048,0.14359239181634087
33.787,33.4,-2.73,0.1561865683650553,0.12023203045635288,0.13733911097267346,0.1355887725887898,0.1783249969912499,0.14361402292978465
33.847,33.46,-2.86,0.15570621548107658,0.12014836520906143,0.13702957509554756,0.13552293077273656,0.1780247695647354,0.1436405607776009
33.908,33.51,-2.73,0.15522515139876902,0.12006542581828238,0.13672442882422287,0.13546000371356592,0.17773029885649957,0.14367207163424803
33.969,33.57,-2.71,0.15474394695501992,0.11998326394652614,0.136424037172569,0.13540009512179713,0.17744190607855437,0.14370861885413064
34.011,33.62,-2.9,0.15426317682390064,0.11990193149094858,0.13612876434695168,0.13534330805287784,0.17715990980561527,0.14375026275116062
34.094,33.68,-2.85,0.15378341895041056,0.11982148051338423,0.13583897337544,0.13528974475194355,0.17688462566215993,0.14379706048165147
34.114,33.73,-2.79,0.15330525398344885,0.11974196316996479,0.13555502574006606,0.13523950649900338,0.17661636601427555,0.14384906593070845
34.237,33.79,-2.97,0.1528292647087714,0.11966343164040603,0.13527728101257666,0.13519269345479726,0.17635543966667352,0.14390632960227454
34.258,33.84,-3.06,0.15235603548265994,0.11958593805705198,0.13500609649410486,0.13514940450758825,0.17610215156523382,0.14396889851299227
34.299,33.9,-2.92,0.15188615166699165,0.11950953443377042,0.1347418268591813,0.13510973712116467,0.1758568025054246,0.14403681609004604
34.36,33.95,-2.98,0.15142019906635718,0.11943427259479712,0.1344848238044964,0.13507378718432683,0.17561968884691395,0.14411012207314916
34.403,34.01,-3.09,0.15095876336782704,0.11936020410362659,0.13423543570281488,0.1350416488621218,0.17539110223466095,0.14418885242084087
34.464,34.06,-2.98,0.1505024295839166,0.1192873801920485,0.1339940072624244,0.1350134144490764,0.17517132932674223,0.14427303922125356
34.527,34.12,-2.95,0.1500517814992557,0.11921585168942977,0.13376087919247875,0.13498917422466045,0.17496065152915438,0.14436271060749659
34.588,34.17,-3.11,0.14960740112143872,0.11914566895234231,0.1335363878745721,0.1349690163111944,0.17475934473782057,0.14445789067779008
34.609,34.23,-3.06,0.14916986813650981,0.11907688179463802,0.13332086504085366,0.13495302653440852,0.17456767908802148,0.14455859942047006
34.669,34.28,-3.0,0.14873975936952435,0.11900953941807607,0.13311463745896318,0.1349412882868631,0.17438591871146664,0.14466485264397905
34.73,34.34,-3.12,0.1483176482506222,0.11894369034361045,0.13291802662404897,0.13493388239444495,0.1742143215012133,0.1447766619119552
34.771,34.39,-3.18,0.1479041042870487,0.11887938234344853,0.13273134845811724,0.13493088698615724,0.17405313888462695,0.14489403448353255
34.833,34.45,-3.11,0.1474996925415533,0.11881666237399235,0.13255491301695072,0.13493237736741578,0.17390261560456358,0.14501697325896576
34.895,34.5,-3.17,0.14710497311759363,0.11875557650977023,0.13238902420482643,0.13493842589704982,0.1737629895089343,0.14514547673068673
34.975,34.56,-3.28,0.14672050065176168,0.11869616987845935,0.1322339794972533,0.13494910186817619,0.1736344913487891,0.14527953893988968
34.996,34.61,-3.25,0.1463468238138267,0.11863848659708962,0.132090069671937,0.134964471393077,0.17351734458502827,0.14541914943872616
35.059,34.67,-3.26,0.14598448481475484,0.11858256970950713,0.13195757854816428,0.1349845972921741,0.17341176520382082,0.1455642932581731
35.1,34.72,-3.37,0.14563401892301403,0.11852846112516591,0.1318367827347724,0.1350095389871702,0.1733179615407777,0.14571495088162387
35.162,34.78,-3.3,0.14529595398940914,0.11847620155930899,0.1317279513868335,0.1350393523984313,0.17323613411389094,0.1458710982242458
35.223,34.83,-3.22,0.14497080998063178,0.11842583047459827,0.1316313459711382,0.13507408984671387,0.17316647546521674,0.14603270661814605
35.326,34.89,-3.31,0.14465909852166553,0.11837738602425071,0.1315472200405258,0.1351137999593653,0.1731091700112501,0.14619974280338643
35.347,34.94,-3.31,0.14436132244717093,0.11833090499673826,0.1314758190170828,0.1351585275811427,0.17306439390192016,0.14637216892488578
35.389,35.0,-3.19,0.14407797536198502,0.11828642276210495,0.1314173799842177,0.13520831368979844,0.17303231488812668,0.14654994253524017
35.451,35.05,-3.15,0.1438095412109001,0.1182439732199476,0.1313721314876125,0.13526319531656836,0.17301309219773348,0.1467330166034785
35.493,35.11,-3.22,0.1435564938579223,0.1182035887490969,0.1313402933450484,0.13532320547167864,0.1730068764199349,0.14692133952975342
35.574,35.16,-3.15,0.14331929667523763,0.11816530015902522,0.1313220764650981,0.1353883730749576,0.17301380939791716,0.14711485516594375
35.594,35.22,-3.12,0.1430984021421293,0.11812913664300077,0.13131768267467,0.13545872289161048,0.17303402412975105,0.14731350284211434
35.698,35.27,-3.23,0.14289425145409257,0.11809512573300103,0.13132730455538216,0.1355342754731893,0.17306764467746757,0.14751721739874935
35.718,35.33,-3.18,0.14270727414238665,0.1180632932563979,0.1313511252887362,0.13561504710377448,0.1731147860842763,0.14772592922465694
35.76,35.38,-3.14,0.14253788770424777,0.11803366329442679,0.1313893185100535,0.13570104975137912,0.17317555429988687,0.1479395643004353
35.822,35.44,-3.2,0.1423864972439729,0.11800625814245387,0.13144204817113675,0.13579229102458484,0.17325004611388956,0.14815804424738932
35.883,35.49,-3.24,0.14225349512506333,0.11798109827205841,0.1315094684116182,0.13588877413441963,0.17333834909713997,0.14838128638178824
35.944,35.55,-3.12,0.14213926063359528,0.11795820229494865,0.13159172343895886,0.13599049786148526,0.1734405415510853,0.14860920377435247
36.006,35.6,-3.16,0.142044159652959,0.11793758692872978,0.13168894741706305,0.13609745652833036,0.1735566924649597,0.1488417053148479
36.067,35.66,-3.24,0.14196854435008538,0.11791926696453855,0.13180126436347686,0.1362096399770412,0.173686861480768,0.1490786957816525
36.109,35.71,-3.16,0.14191275287326138,0.11790325523655379,0.1319287880551348,0.13632703355199474,0.17383109886597423,0.14932007591614235
36.17,35.77,-3.1,0.14187710906163375,0.11788956259338537,0.13207162194261374,0.13644961808769546,0.1739894454938049,0.14956574250172713
36.211,35.82,-3.22,0.14186192216651167,0.11787819787133798,0.1322298590728426,0.13657736990160257,0.1741619328310765,0.14981558844735776
36.273,35.88,-3.14,0.14186748658459464,0.11786916786954411,0.1324035820202028,0.13671026079185875,0.17434858293344602,0.15006950287532653
36.333,35.93,-3.07,0.14189408160327183,0.11786247732696188,0.13259286282594074,0.13684825803984543,0.1745494084479865,0.15032737121318576
36.418,35.99,-3.11,0.1419419711581604,0.11785812890123783,0.13279776294580717,0.1369913244175075,0.17476441262298711,0.1505890752896148
36.437,36.04,-3.14,0.14201140360307046,0.1178561231494405,0.133018333205837,0.13713941819940065,0.17499358932488224,0.150854493434073
36.478,36.1,-3.04,0.14210261149259604,0.11785645851067648,0.13325461376618195,0.1372924931794254,0.17523692306221736,0.1511235005800739
36.54,36.15,-3.09,0.1422158113775336,0.11785913129060484,0.13350663409291139,0.13745049869220882,0.1754943890165693,0.1513959683719115
36.601,36.21,-3.2,0.14235120361331816,0.1178641356478657,0.13377441293769823,0.13761337963908574,0.1757659530803413,0.151671765274659
36.662,36.26,-3.14,0.1425089721816402,0.11787146358243626,0.1340579583253049,0.13778107651861382,0.17605157190135623,0.15195075668725025
36.724,36.32,-3.11,0.14268928452537016,0.11788110492592163,0.13435726754878438,0.13795352546153308,0.17635119293416346,0.15223280505844586
36.828,36.37,-3.24,0.1428922913968693,0.11789304733378175,0.1346723271723094,0.13813065827005763,0.17666475449796093,0.1525177700054865
36.848,36.43,-3.17,0.1431181267197113,0.11790727627949335,0.13500311304153945,0.1383124024613743,0.1769921858410109,0.15280550843524243
36.868,36.48,-3.04,0.14336690746378855,0.11792377505064743,0.13534959030143018,0.13849868131522353,0.17733340721140903,0.15309587466767963
36.929,36.54,-3.09,0.1436387335337454,0.11794252474698709,0.13571171342138547,0.13868941392545198,0.17768832993404962,0.15338872056147437
36.971,36.59,-3.17,0.14393368767066664,0.11796350428039783,0.13608942622764972,0.13888451525544465,0.1780568564936245,0.15368389564161636
37.032,36.65,-2.99,0.14425183536695108,0.11798669037686615,0.13648266194283623,0.13908389619736172,0.17843888062349755,0.1539812472288425
37.093,36.7,-3.01,0.14459322479431364,0.11801205758042485,0.13689134323249671,0.1392874636351065,0.1788342874003082,0.15428062057073538
37.154,36.76,-3.13,0.1449578867448719,0.11803957825909868,0.13731538225865242,0.1394951205109327,0.17924295334416593,0.15458185897431426
37.215,36.81,-3.07,0.1453458345852798,0.11806922261285963,0.13775468074022282,0.13970676589557338,0.1796647465243053,0.1548848039399369
37.256,36.87,-2.99,0.14575706422386694,0.11810095868359446,0.1382091300203015,0.13992229506174697,0.180099526670075,0.15518929529632666
37.317,36.92,-3.15,0.1461915540907349,0.11813475236708204,0.1386786111402412,0.14014159956087927,0.18054714528713275,0.15549517133654173
37.379,36.98,-3.12,0.14664926513073914,0.11817056742697613,0.13916299492050713,0.14036456730288555,0.18100744577870706,0.15580226895471444
37.441,37.03,-3.02,0.14713014080925357,0.11820836551079095,0.1396621420482421,0.14059108263888231,0.18148026357177663,0.1561104237834062
37.543,37.09,-3.08,0.14763410713057343,0.11824810616789078,0.14017590317146553,0.14082102644672564,0.18196542624800274,0.15641947033143894
37.565,37.14,-3.13,0.14816107266876907,0.11828974686948845,0.1407041189998119,0.14105427621929265,0.18246275367923762,0.15672924212208028
37.605,37.2,-3.08,0.14871092861075663,0.1183332430306605,0.14124662041169786,0.14129070615543213,0.18297205816741938,0.15703957183146516
37.665,37.25,-3.06,0.1492835488113242,0.11837854803438587,0.1418032285678014,0.14153018725350566,0.18349314458865684,0.1573502914271394
37.706,37.31,-3.18,0.14987878985984476,0.11842561325761065,0.14237375503073335,0.14177258740742169,0.18402581054129613,0.15766123230660725
37.767,37.36,-3.08,0.15049649115842448,0.11847438809933265,0.14295800189078,0.14201777150504083,0.1845698464977465,0.1579722254357696
37.83,37.42,-2.96,0.15113647501126343,0.11852482001068995,0.14355576189759384,0.14226560152880688,0.18512503595982527,0.15828310148714886
37.891,37.47,-3.08,0.15179854672504012,0.11857685452703078,0.14416681859770977,0.1425159366584383,0.1856911556173675,0.15859369097781004
37.912,37.53,-3.05,0.15248249472015352,0.11863043530193951,0.14479094647776147,0.14276863337550927,0.18626797550983695,0.15890382440690387
37.974,37.58,-2.89,0.15318809065266664,0.11868550414319795,0.14542791111326922,0.14302354556975547,0.18685525919067947,0.15921333239276728
38.015,37.64,-2.95,0.15391508954680172,0.11874200105066705,0.14607746932286528,0.14328052464695812,0.1874527638941639,0.15952204580952892
38.096,37.69,-3.0,0.15466322993783316,0.1187998642560812,0.14673936932781484,0.14353941963828196,0.18806024070446553,0.15982979592317229
38.137,37.75,-2.83,0.15543223402521594,0.11885903026475204,0.1474133509166753,0.14380007731096486,0.18867743472675116,0.16013641452701272
38.199,37.8,-2.83,0.15622180783577305,0.11891943389917947,0.1480991456149258,0.14406234228027018,0.1893040852600395,0.16044173407653853
38.26,37.86,-2.95,0.1570316413967493,0.11898100834456111,0.1487964768593855,0.1443260571226138,0.18993992597161669,0.16074558782355752
38.301,37.91,-2.85,0.15786140891851383,0.11904368519618364,0.14950506017722667,0.14459106248977596,0.19058468507279855,0.16104780994957937
38.342,37.97,-2.76,0.1587107689866765,0.11910739450866875,0.15022460336938198,0.14485719722410234,0.1912380854958384,0.16134823569835305
38.404,38.02,-2.86,0.15957936476337828,0.11917206484703666,0.15095480669815034,0.1451242984745981,0.1918998450717864,0.16164670150747315
38.465,38.08,-2.81,0.16046682419753203,0.11923762333954521,0.15169536307881198,0.1453922018138253,0.19256967670910674,0.16194304513897595
38.528,38.13,-2.64,0.1613727602438136,0.11930399573226305,0.15244595827507126,0.14566074135553547,0.19324728857286597,0.16223710580885478
38.632,38.19,-2.65,0.16229677109024004,0.11937110644533735,0.15320627109815693,0.1459297498729885,0.1939323842643147,0.16252872431543972
38.652,38.24,-2.7,0.1632384403942059,0.11943887863092084,0.15397597360942197,0.14619905891792867,0.1946246630006996,0.16281774316659617
38.673,38.3,-2.51,0.16419733752688054,0.11950723423272404,0.1547547313262943,0.1464684989402,0.19532381979516703,0.16310400670570135
38.734,38.35,-2.51,0.16517301782589808,0.11957609404715859,0.1555422034314409,0.14673789940798612,0.19602954563664976,0.1633873612363469
38.797,38.41,-2.65,0.16616502285629894,0.11964537778603096,0.15633804298502083,0.1470070889286469,0.19674152766966096,0.1636676551457023
38.858,38.46,-2.56,0.16717288067969965,0.11971500414073832,0.15714189713991214,0.14727589537010824,0.1974594493739455,0.16394473902645906
38.899,38.52,-2.48,0.1681961061316803,0.1197848908479081,0.1579534073598071,0.14754414598274354,0.19818299074396348,0.1642184657972629
39.003,38.57,-2.66,0.16923420110738,0.1198549547564142,0.15877220964008393,0.14781166752166927,0.19891182846818986,0.16448869082154244
39.024,38.63,-2.63,0.1702866548552762,0.1199251118956966,0.15959793473136902,0.14807828636937695,0.1996456361082137,0.1647552720246487
39.066,38.68,-2.5,0.17135294427908807,0.11999527754531034,0.1604302083657029,0.14834382865863716,0.2003840842776159,0.16501807000923432
39.128,38.74,-2.55,0.17243253424770372,0.12006536630563062,0.16126865148521816,0.14860812039563379,0.20112684082059495,0.16527694816881444
39.169,38.79,-2.62,0.17352487791298585,0.1201352921696456,0.16211288047322672,0.14887098758330958,0.20187357099030007,0.16553177279946715
39.23,38.85,-2.42,0.17462941703527207,0.1202049685957753,0.16296250738759924,0.14913225634492466,0.2026239376268245,0.16578241320963943
39.293,38.9,-2.41,0.17574558231636378,0.12027430858166102,0.1638171401963104,0.1493917530478326,0.20337760133481683,0.16602874182802652
39.435,38.96,-2.54,0.17687279373979276,0.12034322473887037,0.16467638301502063,0.1496493044274661,0.20413422066067485,0.16627063430948727
39.456,39.01,-2.46,0.17801046091816214,0.12041162936845849,0.16553983634656516,0.14990473771150212,0.204893452269303,0.16650796963895342
39.476,39.07,-2.36,0.17915798344738018,0.12047943453731876,0.16640709732223138,0.15015788074415293,0.20565495112042675,0.16674063023328212
39.497,39.12,-2.52,0.18031475126763571,0.12054655215524596,0.1672777599447203,0.1504085621105106,0.20641837064446908,0.166968502041006
39.556,39.18,-2.49,0.18148014503099041,0.12061289405263165,0.16815141533270117,0.15065661126086502,0.20718336291799286,0.16719147463994277
39.617,39.23,-2.37,0.182653536475478,0.12067837205870954,0.16902765196687664,0.15090185863492417,0.20794957883871149,0.1674094413326406
39.679,39.29,-2.46,0.18383428880560515,0.12074289808027219,0.1699060559374806,0.15114413578587724,0.20871666830006624,0.1676222992396449
39.741,39.34,-2.55,0.185021757079141,0.12080638418078475,0.17078621119312365,0.1513832755042526,0.20948428036536285,0.16782994939057488
39.803,39.4,-2.34,0.18621528860006265,0.12086874265982613,0.17166769979088253,0.1516191119415339,0.21025206344145053,0.16803229681298984
39.845,39.45,-2.37,0.18741422331750032,0.12092988613279176,0.17255010214750124,0.15185148073349353,0.21101966545192175,0.16822925061900565
39.907,39.51,-2.51,0.18861789423049616,0.12098972761079042,0.17343299729155076,0.15208021912318337,0.21178673400980283,0.16842072408960065
39.967,39.56,-2.4,0.18982562779836512,0.1210481805806628,0.17431596311637543,0.15230516608349917,0.2125529165896998,0.1686066347565293
40.008,39.62,-2.3,0.19103674435643736,0.121105159085044,0.1751985766336523,0.15252616243921327,0.2133178606993662,0.1687869044817514
40.11,39.67,-2.42,0.19225055853697487,0.12116057780238572,0.1760804142273995,0.15274305098835847,0.21408121405065397,0.1689614595342843
40.131,39.73,-2.35,0.1934663796950844,0.12121435212685235,0.17696105190829037,0.15295567662284593,0.2148426247298013,0.1691302306643952
40.171,39.78,-2.19,0.1946835123394861,0.12126639824800801,0.1778400655681539,0.1531638864482131,0.21560174136701313,0.16929315317506582
40.233,39.84,-2.24,0.19590125656803828,0.12131663323021871,0.1787170312345727,0.15336752990241295,0.2163582133052947,0.16945016699066992
40.274,39.89,-2.3,0.19711890850795244,0.12136497509170298,0.17959152532551043,0.15356645887357373,0.21711169076851083,0.1696012167228149
40.335,39.95,-2.11,0.19833576076065246,0.12141134288317619,0.18046312490391078,0.15376052781668023,0.2178618250286612,0.16974625173329985
40.397,40.0,-2.14,0.19955110285124064,0.12145565676604027,0.1813314079322117,0.15394959386913748,0.2186082685723807,0.16988522619413818
40.48,40.06,-2.17,0.2007642216825342,0.12149783809007399,0.18219595352672374,0.15413351696517757,0.21935067526669205,0.17001809914458388
40.5,40.11,-2.1,0.20197440199362454,0.12153780947057394,0.18305634221182573,0.15431215994905922,0.22008870052405005,0.17014483454509202
40.561,40.17,-2.06,0.20318092682290542,0.12157549486488789,0.18391215617394094,0.1544853886869956,0.22082200146673503,0.17026540132813103
40.602,40.22,-2.26,0.20438307797550212,0.12161081964826899,0.1847629795152724,0.15465307217772872,0.22155023709066723,0.17037977344575128
40.725,40.28,-2.23,0.20558013649501744,0.1216437106889702,0.1856083985072852,0.1548150826616609,0.22227306842872083,0.17048792991380907
40.746,40.33,-2.08,0.20677138313948698,0.1216740964224945,0.1864480018439285,0.15497129572845367,0.2229901587136126,0.17058985485274708
40.829,40.39,-2.12,0.2079560988614133,0.12170190692491877,0.18728138089458746,0.1551215904230134,0.22370117354041918,0.170685537524848
40.849,40.44,-2.19,0.20913356529173474,0.12172707398521616,0.18810812995674894,0.155265849349793,0.22440578102875514,0.17077497236789627
40.89,40.5,-2.0,0.2103030652275703,0.1217495311765101,0.18892784650834862,0.15540395877535793,0.2251036519846279,0.1708581590251943
40.952,40.55,-2.0,0.21146388312358233,0.12176921392619873,0.18974013145974597,0.15553580872917475,0.22579446006198903,0.17093510237187684
41.013,40.61,-2.14,0.2126153055868006,0.12178605958488961,0.1905445894052618,0.15566129310257953,0.2264778819240061,0.17100581253746105
41.054,40.66,-2.04,0.21375662187476488,0.12180000749408026,0.19134082887420165,0.1557803097458719,0.22715359740409097,0.1710703049245592
41.117,40.72,-1.95,0.2148871243968508,0.12181099905251556,0.19212846258128796,0.15589276056346518,0.22782128966672882,0.17112860022367365
41.201,40.77,-2.16,0.2160061092186541,0.1218189777811466,0.19290710767642802,0.1559985516070115,0.22848064536815493,0.17118072442399151
41.221,40.83,-2.16,0.21711287656930037,0.12182388938661627,0.19367638599374679,0.15609759316642063,0.22913135481691918,0.17122670882010513
41.284,40.88,-2.0,0.2182067313515266,0.12182568182319983,0.19443592429981588,0.1561897998587053,0.22977311213436902,0.17126659001459607
41.345,40.94,-2.06,0.21928698365434293,0.12182430535313621,0.19518535454100758,0.15627509071460013,0.2304056154150615,0.17130040991643644
41.387,40.99,-2.14,0.22035294926802487,0.12181971260529395,0.1959243140898915,0.15635338926292053,0.23102856688709258,0.1713282157351755
41.45,41.05,-1.93,0.22140395020112433,0.12181185863212395,0.1966524459905636,0.15642462361264264,0.23164167307230996,0.17135005997088673
41.511,41.1,-1.91,0.2224393151991359,0.12180070096485493,0.19736939920276647,0.15648872653269655,0.23224464494637034,0.1713660003998439
41.572,41.16,-2.07,0.22345838026443837,0.12178619966688542,0.19807482884463404,0.1565456355294558,0.2328371980985986,0.1713761000558839
41.592,41.21,-1.96,0.22446048917713451,0.1217683173853186,0.19876839643388192,0.15659529292188973,0.23341905289161372,0.17138042720739985
41.654,41.27,-1.83,0.22544499401643528,0.12174701940058011,0.1994497701272641,0.15663764591432724,0.23398993462069492,0.17137905532990086
41.717,41.32,-2.02,0.22641125568226422,0.12172227367405106,0.2001186249581325,0.15667264666676495,0.2345495736728659,0.17137206307407618
41.757,41.38,-2.02,0.22735864441678671,0.12169405089364668,0.2007746430719492,0.1567002523626572,0.23509770568567143,0.1713595342293162
41.819,41.43,-1.85,0.22828654032558598,0.12166232451727378,0.20141751395960905,0.15672042527414248,0.23563407170561607,0.1713415576826613
41.88,41.49,-1.93,0.22919433389821162,0.12162707081410674,0.2020469346884379,0.15673313282467907,0.2361584183462267,0.17131822737316674
41.941,41.54,-2.06,0.23008142652781463,0.12158826890362842,0.20266261013073164,0.15673834764907174,0.2366704979456857,0.17128964224169016
42.002,41.6,-1.88,0.2309472310295503,0.12154590079238878,0.20326425318969438,0.1567360476508714,0.23717006872396795,0.17125590617611755
42.043,41.65,-1.85,0.23179117215738634,0.1214999514084358,0.20385158502262576,0.1567262160571118,0.23765689493940415,0.17121712795204425
42.086,41.71,-2.01,0.23261268711890504,0.1214504086333709,0.2044243352612009,0.15670884147032102,0.2381307470445785,0.17117342116892745
42.148,41.76,-1.9,0.2334112260876467,0.1213972633319744,0.204982242228675,0.1566839179177218,0.2385914018414564,0.1711249041817238
42.21,41.82,-1.77,0.23418625271251908,0.1213405093793408,0.20552505315384198,0.15665144489751773,0.2390386426356298,0.1710717000280262
42.313,41.87,-1.93,0.23493724462380602,0.12128014368545706,0.2060525243815788,0.1566114274221564,0.23947225938956374,0.1710139363507205
42.332,41.93,-1.9,0.23566369393532807,0.12121616621715732,0.20656442157981458,0.15656387605846758,0.23989204887472013,0.1709517453161994
42.373,41.98,-1.72,0.23636510774233263,0.12114858001739376,0.2070605199427695,0.15650880696459477,0.24029781482243157,0.17088526352818867
42.414,42.04,-1.79,0.23704100861471,0.12107739122177205,0.20754060439031558,0.1564462419236588,0.24068936807339542,0.17081463193725874
42.477,42.09,-1.9,0.23769093508513914,0.1210026090723102,0.20800446976331305,0.15637620837411087,0.24106652672565482,0.17073999574610757
42.538,42.15,-1.69,0.23831444213176214,0.1209242459283886,0.20845192101476326,0.15629873943674596,0.2414291162809331,0.1706615043107063
42.681,42.2,-1.66,0.23891110165497428,0.12084231727486391,0.20888277339660646,0.1562138739383532,0.2417769697891906,0.17057931103739804
42.702,42.26,-1.86,0.2394805029478973,0.12075684172731983,0.2092968526419795,0.15612165643196851,0.24210992799127534,0.17049357327603298
42.723,42.31,-1.76,0.2400222531600786,0.12066784103442994,0.20969399514274656,0.1560221372136803,0.24242783945953855,0.17040445220922118
42.743,42.37,-1.66,0.2405359777539171,0.12057534007741186,0.2100740481221207,0.15591537233592667,0.24273056073628993,0.1703121127377793
42.805,42.42,-1.82,0.24102132095327863,0.12047936686655902,0.2104368698022128,0.1558014236172116,0.24301795646996288,0.1702167233624552
42.867,42.48,-1.81,0.24147794618372354,0.12037995253484322,0.21078232956636106,0.1556803586481676,0.24328989954884564,0.17011845606202572
42.929,42.53,-1.64,0.24190553650374164,0.12027713132858736,0.2111103081161042,0.15555225079390061,0.2435462712322207,0.17001748616787704
42.97,42.59,-1.71,0.2423037950263773,0.12017094059521462,0.21142069762266802,0.15541717919256173,0.24378696127873895,0.16991399223518716
43.031,42.64,-1.77,0.24267244533062954,0.12006142076809087,0.2117134018728333,0.15527522875009678,0.2440118680718427,0.16980815591084247
43.093,42.7,-1.54,0.24301123186201615,0.11994861534848716,0.21198833640904063,0.15512649013113616,0.2442208987420455,0.16970016179822045
43.153,42.75,-1.48,0.24331992032171043,0.11983257088469873,0.21224542866357515,0.154971059745987,0.24441396928587883,0.1695901973189705
43.215,42.81,-1.67,0.24359829804368424,0.11971333694835848,0.21248461808666683,0.15480903973368534,0.24459100468132908,0.1694784525719123
43.256,42.86,-1.57,0.2438461743593181,0.11959096610798219,0.21270585626834,0.15464053794105687,0.2447519389996038,0.16936512018916386
43.318,42.92,-1.46,0.24406338094896549,0.11946551389978184,0.21290910705385155,0.15446566789773186,0.24489671551309458,0.1692503951896015
43.422,42.97,-1.65,0.2442497721799827,0.11933703879578154,0.21309434665257465,0.15428454878706363,0.24502528679941546,0.16913447482975777
43.443,43.03,-1.67,0.24440522543074883,0.11920560216927362,0.21326156374019403,0.154097305412919,0.24513761484139956,0.16901755845227587
43.485,43.08,-1.5,0.24452964140020472,0.11907126825765729,0.21341075955408084,0.15390406816234153,0.2452336711229294,0.16889984733205562
43.528,43.14,-1.58,0.24462294440242546,0.11893410412270751,0.2135419479817115,0.15370497296411764,0.24531343672046532,0.16878154452024086
43.588,43.19,-1.66,0.24468508264571673,0.11879417960832671,0.21365515564198337,0.15350016124329507,0.24537690239011867,0.16866285468620906
43.65,43.25,-1.44,0.24471602849569357,0.11865156729583592,0.21375042195926255,0.15328977987171727,0.24542406865010388,0.16854398395772743
43.693,43.3,-1.36,0.24471577872177247,0.1185063424568636,0.2138277992299796,0.15307398111463674,0.24545494585839844,0.1684251397594325
43.774,43.36,-1.51,0.24468435472650532,0.11835858300389093,0.21388735268157752,0.15285292257346153,0.24546955428544606,0.16830653064977816
43.795,43.41,-1.4,0.24462180275719517,0.11820836943851133,0.2139291605236072,0.15262676712467868,0.24546792418175198,0.16818836615658483
43.855,43.47,-1.36,0.24452819409927343,0.11805578479746101,0.21395331399077738,0.15239568285498747,0.24545009584024974,0.16807085661130952
43.937,43.52,-1.53,0.24440362525097215,0.11790091459647421,0.2139599173777979,0.15215984299265548,0.24541611965334106,0.1679542129821515
43.958,43.58,-1.55,0.24424821807888403,0.11774384677201598,0.21394908806589613,0.15191942583509596,0.2453660561645262,0.16783864670611703
44.019,43.63,-1.39,0.24406211995404906,0.11758467162094867,0.21392095654092297,0.1516746146726663,0.24529997611453727,0.16772436952018216
44.081,43.69,-1.46,0.24384550386823908,0.11742348173819463,0.2138756664029884,0.15142559770869707,0.24521796048187605,0.16761159329171232
44.142,43.74,-1.54,0.24359856853012204,0.11726037195246664,0.21381337436757655,0.15117256797577686,0.24512010051763736,0.16750052984831632
44.203,43.8,-1.38,0.24332153844097543,0.11709543926014652,0.21373425025808324,0.15091572324833058,0.24500649777448671,0.16739139080731436
44.265,43.85,-1.34,0.24301466394959698,0.11692878275739668,0.21363847698970756,0.15065526595153234,0.244877264129661,0.16728438740499285
44.307,43.91,-1.58,0.24267822128604227,0.11676050357058848,0.21352625054461502,0.15039140306658863,0.24473252180186236,0.1671797303258011
44.348,43.96,-1.47,0.24231251257380795,0.11659070478512616,0.2133977799382787,0.15012434603242014,0.24457240336192265,0.1670776295316303
44.408,44.02,-1.34,0.24191786582008754,0.11641949137273928,0.21325328717690173,0.14985431064376328,0.24439705173711948,0.16697829409131015
44.45,44.07,-1.5,0.24149463488375852,0.11624697011731068,0.21309300720583493,0.14958151694570546,0.24420662020902242,0.16688193201046522
44.552,44.13,-1.51,0.24104319942080665,0.11607324953930521,0.21291718784891644,0.14930618912467175,0.2440012724047368,0.16678875006189497
44.572,44.18,-1.34,0.2405639648069503,0.1158984398188678,0.21272608973867516,0.1490285553958947,0.24378118228140866,0.16669895361665846
44.633,44.24,-1.43,0.24005736203728378,0.11572265271766514,0.2125199862373555,0.14874884788741075,0.24354653410385446,0.16661274647605948
44.695,44.29,-1.52,0.23952384760280698,0.1155460014995521,0.21229916334873322,0.148467302520633,0.2432975224151767,0.16653033070473494
44.736,44.35,-1.34,0.238963903343745,0.11536860085014974,0.21206391962069585,0.1481841588875486,0.24303435200022908,0.1664519064650496
44.798,44.4,-1.33,0.23837803627958623,0.11519056679542466,0.2118145660385611,0.14789966012457875,0.2427572378417987,0.1663776718529964
44.88,44.46,-1.48,0.23776677841579466,0.11501201661935631,0.2115514259091081,0.1476140527831244,0.24246640506937772,0.16630782273579162
44.901,44.51,-1.45,0.2371306865271696,0.11483306878077502,0.2112748347352931,0.1473275866968093,0.24216208890040541,0.16624255259134743
44.963,44.57,-1.34,0.23647034191784444,0.11465384282944868,0.21098514008162966,0.14704051484543024,0.24184453457387037,0.16618205234979638
45.005,44.62,-1.52,0.23578635015793456,0.11447445932149103,0.21068270143021792,0.14675309321563212,0.24151399727616593,0.1661265102372401
45.068,44.68,-1.52,0.2350793407968487,0.11429503973416227,0.2103678900274124,0.14646558065835075,0.24117074205908542,0.1660761116218974
45.11,44.73,-1.36,0.23434996705328154,0.11411570638013348,0.21004108872111404,0.14617823874310273,0.24081504374983295,0.16603103886282927
45.172,44.79,-1.42,0.23359890548189988,0.11393658232128939,0.20970269178866835,0.1458913316092311,0.24044718685291563,0.16599147116141927
45.254,44.84,-1.48,0.23282685561674832,0.11375779128214786,0.20935310475535096,0.14560512581422413,0.24006746544377397,0.16595758441578987
45.275,44.9,-1.32,0.23203453959141548,0.11357945756297898,0.20899274420341307,0.1453198901792286,0.2396761830540079,0.16592955107833096
45.336,44.95,-1.25,0.23122270173603818,0.11340170595270643,0.20862203757165465,0.14503589563187066,0.2392736525480673,0.16590754001650487
45.398,45.01,-1.41,0.23039210815126637,0.11322466164167169,0.2082414229454872,0.14475341504648775,0.23886019599129446,0.16589171637708042
45.439,45.06,-1.3,0.22954354625935705,0.11304845013433669,0.20785134883745543,0.14447272308186507,0.2384361445092279,0.16588224145393224
45.501,45.12,-1.22,0.22867782433261669,0.11287319716199785,0.20745227395820512,0.14419409601656114,0.23800183813810644,0.16587927255953172
45.562,45.17,-1.4,0.22779577099946116,0.11269902859558036,0.20704466697791937,0.14391781158190228,0.2375576256665376,0.1658829629002502
45.624,45.23,-1.43,0.2268982347284056,0.11252607035858203,0.20662900627828223,0.14364414879273174,0.23710386446831405,0.16589346145560022
45.687,45.28,-1.31,0.22598608329032943,0.11235444834023847,0.2062057796950541,0.14337338777601388,0.23664092032637382,0.16591091286154575
45.728,45.34,-1.42,0.22506020319938505,0.11218428830898337,0.20577548425137193,0.14310580959740418,0.23616916724790246,0.1659354572980198
45.812,45.39,-1.48,0.22412149913292226,0.1120157158262798,0.20533862588190457,0.1428416960858954,0.23568898727056792,0.1659672303807912
45.832,45.45,-1.31,0.22317089333078918,0.11184885616089787,0.2048957191479994,0.1425813296566437,0.23520077025986735,0.16600636305782115
45.976,45.5,-1.27,0.22220932497434837,0.11168383420371118,0.20444728694394984,0.14232499313207095,0.2347049136975607,0.166052981510238
45.997,45.56,-1.41,0.22123774954553246,0.11152077438307696,0.20399386019450044,0.14207296956133109,0.23420182246116794,0.16610720705803805
46.018,45.61,-1.36,0.22025713816626583,0.11135980058085843,0.2035359775436906,0.1418255420382325,0.23369190859451985,0.16616915607059896
46.059,45.67,-1.26,0.21926847691860854,0.11120103604914,0.20307418503513203,0.14158299351771297,0.23317559106937663,0.16623893988206814
46.1,45.72,-1.43,0.21827276614603572,0.11104460332768123,0.2026090357838304,0.14134560663096515,0.23265329553815087,0.16631666471167997
46.161,45.78,-1.4,0.21727101973632992,0.11089062416215442,0.20214108963968488,0.1411136634993139,0.23212545407778493,0.16640243158905393
46.223,45.83,-1.25,0.21626426438663204,0.11073921942321237,0.20167091284283428,0.14088744554695196,0.23159250492484468,0.1664963362845303
46.283,45.89,-1.35,0.21525353885125542,0.11059050902643706,0.20119907767105114,0.1406672333126455,0.2310548922018993,0.166598469244604
46.346,45.94,-1.45,0.21423989317292044,0.11044461185322274,0.20072616207940508,0.14045330626053176,0.23051306563526913,0.1667089155325165
46.406,46.0,-1.18,0.21322438789809892,0.11030164567264933,0.20025274933241285,0.14024594259014447,0.22996748026423747,0.1668277547740592
46.468,46.05,-1.14,0.212208093277189,0.11016172706440026,0.1997794276288806,0.14004541904581708,0.22941859614184285,0.16695506110862937
46.488,46.11,-1.32,0.2111920884502624,0.1100249713427723,0.19930678971963564,0.139852010725614,0.2288668780273909,0.16709090314555933
46.569,46.16,-1.25,0.21017746061914883,0.10989149248181439,0.19883543251834207,0.13966599088993878,0.2283127950708637,0.16723534392571343
46.611,46.22,-1.18,0.20916530420663726,0.10976140304162448,0.19836595670560023,0.13948763076996554,0.22775682048944904,0.16738844088831337
46.652,46.27,-1.36,0.2081567200035796,0.1096348140958228,0.19789896632654536,0.13931719937604045,0.22719943123645625,0.16755024584292852
46.714,46.33,-1.38,0.20715281430467927,0.1095118351602168,0.1974350683821761,0.13915496330620675,0.226641107662905,0.16772080494655744
46.776,46.38,-1.21,0.2061546980337371,0.10939257412267049,0.19697487241465653,0.13900118655502014,0.22608233317208518,0.16790015868572608
46.837,46.44,-1.28,0.20516348585912875,0.10927713717419257,0.19651899008685425,0.13885613032282285,0.22552359386739057,0.1680883418635295
46.879,46.49,-1.39,0.2041802953003057,0.10916562874125925,0.19606803475639623,0.13872005282563965,0.22496537819373127,0.1682853835915425
46.941,46.55,-1.19,0.2032062458261334,0.1090581514193897,0.19562262104453618,0.13859320910584896,0.22440817657284604,0.16849130728651707
47.002,46.6,-1.15,0.20224245794591492,0.10895480590799297,0.19518336440013734,0.1384758508437716,0.22385248103285627,0.16870613067176923
47.105,46.66,-1.34,0.20129005229398494,0.10885569094650098,0.1947508806590847,0.13836822617030423,0.2232987848324357,0.16892986578313834
47.125,46.71,-1.26,0.20035014870879564,0.1087609032517989,0.19432578559944863,0.13827057948071605,0.22274758208000076,0.16916251897938772
47.167,46.77,-1.2,0.19942386530745687,0.108670537456961,0.19390869449273776,0.13818315124972855,0.22219936734836707,0.16940409095690248
47.249,46.82,-1.41,0.19851231755673385,0.10858468605129744,0.193500221651599,0.13810617784800333,0.2216546352853489,0.16965457676853893
47.291,46.88,-1.48,0.1976166173415435,0.1085034393217152,0.19310097997434814,0.13803989136017547,0.2211138802207969,0.16991396584648785
47.331,46.93,-1.33,0.19673787203201873,0.10842688529539643,0.19271158048673695,0.13798451940458178,0.22057759577057967,0.1701822420290284
47.391,46.99,-1.47,0.19587718355022385,0.10835510968379611,0.19233263188138025,0.13794028495483943,0.2200462744380112,0.17045938359106305
47.452,47.04,-1.61,0.19503564743759727,0.10828819582796069,0.1919647400552769,0.13790740616343025,0.21952040721321345,0.17074536327833764
47.474,47.1,-1.44,0.1942143519241585,0.10822622464517033,0.19160850764585327,0.13788609618744624,0.2190004831708921,0.17104014834525633
47.534,47.15,-1.44,0.19341437700046393,0.10816927457690555,0.1912645335659461,0.1378765630166403,0.21848698906699526,0.1713437005961959
47.595,47.21,-1.64,0.192636793493241,0.10811742153813587,0.19093341253813328,0.13787900930390837,0.2179804089347207,0.1716559764302165
47.637,47.26,-1.56,0.19188266214559618,0.10807073886792086,0.19061573462881357,0.13789363219831063,0.21748122368033768,0.17197692688905702
47.698,47.32,-1.46,0.19115303270268896,0.1080292972813086,0.19031208478243766,0.13792062318073015,0.21698991067929763,0.17230649770830042
47.76,47.37,-1.66,0.19044894300379328,0.10799316482251123,0.19002304235630574,0.1379601679022655,0.21650694337311774,0.1726446293715961
47.822,47.43,-1.69,0.18977141808170803,0.1079624068193363,0.18974918065636112,0.13801244602546672,0.21603279086752478,0.17299125716784075
47.885,47.48,-1.53,0.18912146927052076,0.1079370858388551,0.18949106647442432,0.13807763106854,0.21556791753235197,0.17334631125123287
47.927,47.54,-1.61,0.18850009332275988,0.10791726164429202,0.1892492596273258,0.13815589025266276,0.21511278260368563,0.1737097167041256
47.968,47.59,-1.73,0.18790827153698486,0.10790299115312528,0.18902431249840754,0.13824738435255254,0.21466783978875845,0.17408139360261268
48.03,47.65,-1.58,0.18734696889685068,0.10789432839639382,0.18881676958186208,0.1383522675504342,0.21423353687409213,0.17446125708477958
48.093,47.7,-1.55,0.1868171332226527,0.10789132447921299,0.18862716703037385,0.13847068729353854,0.21381031533740313,0.1748492174215437
48.178,47.76,-1.97,0.18631969433631365,0.1078940275425081,0.18845603220651985,0.13860278415525015,0.2133986099637973,0.17524518008999504
48.198,47.81,-1.96,0.18585556324072178,0.10790248272598271,0.18830388323837405,0.13874869170001072,0.212998848466789,0.17564904584914165
48.26,47.87,-1.9,0.185425631314278,0.1079167321323435,0.18817122857975302,0.1389085363520808,0.21261145111467541,0.17606071081797112
48.322,47.92,-2.07,0.1850307695214685,0.10793681479280372,0.188058566575539,0.13908243726826255,0.2122368303627633,0.17648006655576845
48.383,47.98,-2.1,0.1846718276402308,0.10796276663388378,0.18796638503251797,0.13927050621469206,0.21187539049188267,0.17690700014468036
48.423,48.03,-1.93,0.1843496335068254,0.10799462044552782,0.18789516079617033,0.13947284744781982,0.21152752725356386,0.17734139427455203
48.484,48.09,-2.02,0.18406499227886353,0.10803240585055274,0.18784535933384672,0.1396895575997042,0.2111936275222106,0.1777831273300839
48.628,48.14,-2.12,0.18381868571708956,0.10807614927544738,0.18781743432475598,0.13992072556773996,0.21087406895457855,0.1782320734803516
48.648,48.2,-1.93,0.18361147148647655,0.108125873922538,0.1878118272571754,0.1401664324089367,0.21056921965686223,0.17868810277072106
48.668,48.25,-1.89,0.18344408247717858,0.10818159974353402,0.1878289670332797,0.1404267512388445,0.21027943785969674,0.17915108121716405
48.709,48.31,-2.08,0.18331722614588308,0.10824334341446464,0.1878692695819757,0.14070174713519903,0.21000507160138931,0.17962087090295803
48.769,48.36,-2.02,0.1832315838781119,0.10831111831201444,0.18793313748012772,0.14099147704633513,0.20974645841970968,0.18009733007772796
48.81,48.42,-1.94,0.18318781037202733,0.10838493449126568,0.18802095958256307,0.14129598970439933,0.20950392505258833,0.18058031325877275
48.913,48.47,-2.13,0.18318653304430849,0.10846479866485752,0.18813311066126334,0.14161532554338271,0.20927778714808204,0.18106967133460697
48.934,48.53,-2.16,0.1832283514586667,0.10855071418357662,0.18826995105415797,0.14194951662199382,0.20906834898396776,0.18156525167065313
48.975,48.58,-2.0,0.1833138367775666,0.10864268101840091,0.18843182632394576,0.14229858655140218,0.20887590319731772,0.18206689821702549
49.016,48.64,-2.15,0.18344353123770718,0.1087406957440246,0.18861906692737207,0.1426625504278889,0.20870073052439714,0.18257445161835284
49.077,48.69,-2.28,0.18361794764979247,0.10884475152389829,0.18883198789538821,0.14304141477044063,0.20854309955120853,0.18308774932558872
49.139,48.75,-2.13,0.18383756892307576,0.10895483809682026,0.18907088852460235,0.14343517746332235,0.20840326647499188,0.18360662570975073
49.2,48.8,-2.1,0.18410284761510695,0.10907094176511403,0.18933605208041385,0.1438438277036502,0.2082814748769748,0.18413091217751498
49.281,48.86,-2.31,0.18441420550705317,0.10919304538442186,0.18962774551220235,0.14426734595397128,0.2081779555066496,0.18466043728857348
49.302,48.91,-2.25,0.1847720332049015,0.10932112835513859,0.18994621918092197,0.1447057038998408,0.20809292607783722,0.18519502687464615
