Time_Host,Time_Arduino,easingdata,CH1_Oxy,CH1_Deoxy,CH2_Oxy,CH2_Deoxy,CH3_Oxy,CH3_Deoxy
1.326,0.04,0.0,0.2566501763003752,0.8186302900559026,0.23820348829746757,0.5589271244817866,0.25898591723190606,0.15962393005283929
1.347,0.1,0.0,0.25174231534052965,0.8158271041137743,0.23172902666991713,0.556918667991957,0.2523369090941705,0.16244162437899748
1.368,0.15,0.0,0.24682929991000707,0.8130097817263463,0.22528262844769478,0.5549272871567894,0.24570831012252004,0.16525886644656287
1.389,0.21,0.0,0.24191315771835878,0.8101793381955729,0.21886762300720294,0.552954492576805,0.23910356301786453,0.16807490632174873
1.41,0.26,0.0,0.2369959287874338,0.8073368003608652,0.21248734003809328,0.5510017968315444,0.23252611578608035,0.17088900334083007
1.43,1.05,0.0,0.23207966401365487,0.8044832057969639,0.20614510695655228,0.5490707130707968,0.22597941882372696,0.1737004266703073
1.452,1.11,0.0,0.22716642372068255,0.8016196020028119,0.1998442463154483,0.5471627535962417,0.2194669219869233,0.17650845584410507
1.514,1.16,0.0,0.22225827620364724,0.7987470455826973,0.1935880732135633,0.5452794284353989,0.2129920716465767,0.17931238127736412
1.555,1.22,0.0,0.2173572962661317,0.7958666014209703,0.18737989270612257,0.5434222439097743,0.20655830773321351,0.18211150475644808
1.618,1.27,0.0,0.21246556375109218,0.7929793418516653,0.1812229972188322,0.5415927011990934,0.2001690607747227,0.18490513990484833
1.68,1.33,-0.0,0.207585162066919,0.7900863458243925,0.17512066396763884,0.5397922949035111,0.1938277489303931,0.18769261262472817
1.721,1.38,-0.02,0.20271817670985265,0.7871886980678974,0.16907615238643828,0.5380225116056877,0.18753777502469746,0.1904732615138988
1.785,1.44,-0.05,0.1978666937840006,0.7842874882527027,0.1630927015649981,0.5362848284345872,0.18130252358435428,0.1932464382580628
1.89,1.49,-0.05,0.1930327985202323,0.7813838101542369,0.1571735276994213,0.534580711632752,0.1751253578822608,0.19601150799819764
1.931,1.55,-0.1,0.18821857379525975,0.7784787608178086,0.15132182155754823,0.5329116151286266,0.16900961699193748,0.1987678496730016
1.952,1.6,-0.14,0.18342609865221438,0.7755734397267129,0.14554074596172428,0.5312789791153096,0.16295861285613392,0.20151485633637528
1.995,1.66,-0.16,0.17865744682401039,0.7726689479746816,0.13983343329133827,0.5296842286369216,0.1569756273732318,0.20425193544993317
2.056,1.71,-0.2,0.17391468526076198,0.7697663874437974,0.13420298300748318,0.5281287721835196,0.15106390950502857,0.20697850915052252
2.118,1.77,-0.25,0.16919987266249908,0.766866859988911,0.12865245920201115,0.5266140002951973,0.14522667240939874,0.2096940144927045
2.181,1.82,-0.24,0.16451505801838495,0.7639714666295081,0.12318488817313542,0.5251412841758065,0.13946709060121437,0.21239790366615852
2.263,1.88,-0.23,0.15986227915358095,0.7610813067499285,0.11780325602959434,0.5237119743167279,0.13378829714478074,0.21508964418803805
2.284,1.93,-0.26,0.15524356128484676,0.7581974773087767,0.11251050632527115,0.5223273991312356,0.1281933808809345,0.21776871907045658
2.326,1.99,-0.27,0.15066091558591638,0.7553210720583406,0.107309537726096,0.5209888636002128,0.12268538369188678,0.22043462696347849
2.386,2.04,-0.26,0.146116337763657,0.7524531807747887,0.10220320171104628,0.5196976479301961,0.11726729780688142,0.22308688227415083
2.45,2.1,-0.29,0.14161180664600762,0.7495948884998802,0.0971943003091061,0.5184550062248479,0.11194206315176088,0.22572501526220845
2.49,2.15,-0.32,0.13714928278269956,0.7467472747948425,0.09228558387410477,0.5172621651709782,0.1067125647455638,0.2283485721131212
2.635,2.21,-0.32,0.13273070705977738,0.7439114130069712,0.08747974889940031,0.5161203227402374,0.1015816301473057,0.23095711498914534
2.655,2.26,-0.35,0.12835799932895653,0.7410883695493694,0.08277943587439739,0.5150306469075807,0.09655202695610983,0.2335502220589974
2.676,2.32,-0.4,0.12403305705286581,0.7382792031940969,0.07818722718487575,0.5139942743875746,0.09162646036784991,0.23612748750674897
2.697,2.37,-0.43,0.11975775396721355,0.7354849643788476,0.073705645059042,0.5130123093896742,0.08680757079144105,0.2386885215205283
2.759,2.43,-0.47,0.11553393876089421,0.7327066945271612,0.06933714956113061,0.5120858223937441,0.08209793152786171,0.24123295026161232
2.801,2.48,-0.54,0.11136343377502603,0.7299454253820766,0.0650841366343006,0.5112158489473151,0.07750004651490124,0.24376041581451507
2.865,2.54,-0.57,0.1072480337218724,0.7272021783530895,0.06094893619449561,0.5104033884863173,0.0730163481404924,0.24627057611873096
2.989,2.59,-0.58,0.1031895044245546,0.7244779638762536,0.05693381027684995,0.509649403181324,0.06864919512731833,0.24876310488284697
3.01,2.65,-0.61,0.09918958157842503,0.7217737807872591,0.05304095123611866,0.5089548168116254,0.06440087049118531,0.25123769148179154
3.031,2.7,-0.62,0.09524996953492083,0.7190906157073447,0.04927248000247609,0.5083205136698028,0.06027357957545653,0.25369404083803665
3.093,2.76,-0.61,0.09137234010865303,0.716429442441948,0.04563044439387535,0.5077473374998638,0.05626944816367449,0.25613187328759157
3.133,2.81,-0.63,0.08755833140843272,0.7137912213920659,0.04211681748604633,0.5072360904722187,0.052390520672383256,0.2585509244316156
3.237,2.87,-0.66,0.08380954669292513,0.7111768989783307,0.03873349604115252,0.506787532198741,0.04863875842608585,0.2609509449744529
3.258,2.92,-0.66,0.08012755325165714,0.7085874070778237,0.035482298996115824,0.5064023787909702,0.045016038016224696,0.2633317005488653
3.343,2.98,-0.65,0.07651388131217564,0.7060236624736397,0.03236496601164074,0.5060813019643169,0.04152414974603767,0.2656929715292143
3.364,3.03,-0.7,0.07297002297423602,0.7034865663172241,0.02938315608302781,0.5058249281909385,0.03816479616310634,0.26803455283335165
3.426,3.09,-0.73,0.06949743117196844,0.7009770036035269,0.02653844621393341,0.5056338379038497,0.0349395906813789,0.2703562537140082
3.468,3.14,-0.76,0.06609751866501891,0.698495842659065,0.023832330154293976,0.5055085647548329,0.03185005629441448,0.27265789754050906
3.552,3.2,-0.82,0.0627716570596935,0.6960439346430387,0.021266217203664117,0.5054495949287728,0.02889762438153745,0.2749393215716939
3.573,3.25,-0.88,0.05952117586114108,0.6936221130617246,0.018841431081192423,0.505457366517184,0.026083633608476462,0.2772003767210178
3.634,3.31,-0.91,0.05634736155759614,0.6912311932964178,0.016559208863367973,0.5055322689538406,0.02340932892388564,0.27944092731491077
3.716,3.36,-0.94,0.053251456737678476,0.6888719721452298,0.014420699990540348,0.505674642515429,0.020875860652913174,0.2816608508455424
3.737,3.42,-0.97,0.05023465924172008,0.6865452273790043,0.012426965343075498,0.5058847778898047,0.018484283688717733,0.28386003771915835
3.799,3.47,-0.96,0.04729812134805695,0.6842517173115299,0.01057897638788314,0.5061629158137915,0.01623555678256008,0.28603839100112
3.861,3.53,-0.97,0.04444294899519755,0.6819921803841124,0.00887761439596369,0.5065092467816116,0.014130541932854743,0.28819582615872363
3.924,3.58,-0.99,0.04167020104076649,0.6797673347644577,0.007323669731582946,0.5069239108242596,0.012170003873367937,0.2903322708028582
3.966,3.64,-0.94,0.03898088855811007,0.6775778779597522,0.005917841213668923,0.5074069973596651,0.01035460966060256,0.2924476644296101
4.026,3.69,-0.94,0.03637597417143572,0.6754244864438155,0.004660735550020612,0.5079585451133304,0.008684928360313973,0.2945419581629691
4.087,3.75,-0.97,0.0338563714303312,0.6733078152982371,0.003552866844912195,0.5085785421091668,0.0071614308330430155,0.29661511449973876
4.13,3.8,-0.99,0.03142294422446256,0.6712284978674695,0.0025946561806486253,0.5092669257303556,0.0057844896185337315,0.2986671070575072
4.191,3.86,-0.98,0.029076506239175532,0.6691871454279065,0.0017864312735842434,0.5100235828500973,0.004554378918903654,0.3006979203261523
4.253,3.91,-1.03,0.026817820452637205,0.6671843468709777,0.0011284262050814877,0.5108483500318787,0.003471274680411859,0.30270754942298805
4.315,3.97,-1.07,0.02464759867506042,0.6652206684002409,0.0006207812278613853,0.5117410137983852,0.002535254773603202,0.30469599985143003
4.357,4.02,-1.1,0.02256650113046837,0.6632966532423419,0.0002635426481559803,0.5127013109676345,0.0017462992714919643,0.3066632872629047
4.438,4.08,-1.14,0.020575136081402948,0.6614128213716127,5.6662784010415475e-05,0.5137289290544225,0.0011042908252900817,0.3086094372216169
4.46,4.13,-1.19,0.018674059496958533,0.6595696692479929,0.0,0.5148235067348224,0.0006090151369812737,0.31053448497172265
4.521,4.19,-1.19,0.016863774764508316,0.6577676695679507,9.331881851362242e-05,0.5159846343712875,0.00026016152779369196,0.31243847520646656
4.563,4.24,-1.16,0.015144732445471579,0.656007271028133,0.0003362901076076316,0.5172118545958966,5.732360134963263e-05,0.31432146183890375
4.625,4.3,-1.17,0.01351733007544062,0.6542888981015772,0.0007284913452790368,0.5185046629493837,0.0,0.31618350777391663
4.686,4.35,-1.16,0.011981912008949241,0.6526129508264624,0.001269406959859935,0.519862508573743,8.759525262777606e-05,0.3180246846813087
4.749,4.41,-1.13,0.010538769309125675,0.6509798046075262,0.0019584287461235322,0.5212847949563594,0.00031942071206163367,0.31984507276974866
4.811,4.46,-1.14,0.009188139682444868,0.6493898100304016,0.002794856356634242,0.5227708807236232,0.0006946955801730751,0.32164476056125657
4.853,4.52,-1.15,0.007930207458773056,0.6478432926892451,0.003777897867846057,0.5243200804818662,0.0012125480186991348,0.3234238446657915
4.915,4.57,-1.11,0.0067651036168713315,0.6463405530280821,0.0049066704204296565,0.525931665703247,0.0018720163438134783,0.3251824295553741
4.977,4.63,-1.11,0.005692905855506052,0.6448818661963343,0.0061802009332894954,0.5276048656539625,0.0026720503024452056,0.3269206273370545
5.017,4.68,-1.16,0.004713638710294665,0.6434674819189712,0.00759742689071823,0.5293388683619052,0.0036115124283158913,0.32863855752396876
5.08,4.74,-1.16,0.0038272737163747897,0.6420976243817237,0.009157197202108839,0.5311328216207417,0.004689179475629274,0.3303363468037165
5.184,4.79,-1.17,0.0030337296169150496,0.6407724921317816,0.010858273133603658,0.5329858340273708,0.005903743928294513,0.33201412880341497
5.205,4.85,-1.2,0.0023328726173842246,0.6394922579944122,0.012699329311005663,0.5348969760498038,0.0072538155824645074,0.3336720438510699
5.247,4.9,-1.24,0.001724516685374107,0.6382570690059463,0.01467895479319669,0.5368652811226479,0.008737923200024365,0.3353102387333006
5.309,4.96,-1.22,0.0012084238956379327,0.637067046363593,0.016795654215191184,0.5388897467675753,0.010354516230491367,0.3369288664497771
5.349,5.01,-1.22,0.0007843048198829175,0.6359222853925368,0.019047848999809512,0.5409693357363149,0.012101966598593226,0.33852808596489453
5.411,5.07,-1.2,0.00045181896074874346,0.6348228555307226,0.021433878636781655,0.5431029771737693,0.013978570554590578,0.3401080619572465
5.453,5.12,-1.15,0.00021057522931549764,0.6337688003316746,0.02395200202790244,0.545289567798859,0.01598255058423438,0.34166896456741686
5.557,5.18,-1.1,6.0132465418668665e-05,0.6327601374856058,0.02660039889669413,0.5475279731005966,0.01811205737513277,0.3432109691445156
5.578,5.23,-1.09,0.0,0.6317968588589752,0.029377171260915318,0.5498170285467718,0.020365171836263865,0.3447342559917571
5.641,5.29,-1.05,2.963825867463297e-05,0.6308789305525705,0.03228034496618503,0.5521555408025861,0.02273990716740775,0.3462390101112005
5.662,5.34,-1.02,0.00014845940565188807,0.6300062929781121,0.03530787127897208,0.5545422889566264,0.025234210975363162,0.3477254209475359
5.724,5.4,-1.02,0.0003558280270952006,0.6291788609533334,0.03845762853723147,0.5569760257516522,0.027845967433927938,0.34919368213058843
5.786,5.45,-1.01,0.0006510618529393927,0.6283965238154547,0.04172742385701901,0.559455478817785,0.030572999484728008,0.3506439912161104
5.848,5.51,-0.99,0.0010334325161021017,0.6276591455529695,0.04511499489346311,0.5619793519058418,0.03341307107606784,0.35207654942445615
5.911,5.56,-1.0,0.001502166347944992,0.6269665649556473,0.04861801165451194,0.5645463261186655,0.03636388943703334,0.35349156137683724
5.952,5.62,-1.02,0.002056445208769886,0.6263185957826309,0.05223407836587677,0.5671550611384537,0.03942310738410473,0.35488923482898216
5.995,5.67,-1.01,0.0026954073520779184,0.6257150269484593,0.05596073538553689,0.569804196448323,0.04258832565753571,0.35626978040208596
6.056,5.73,-1.01,0.003418148321281369,0.6251556227267678,0.05979546116607027,0.5724923525465636,0.04585709528472465,0.35763341131090015
6.118,5.78,-1.01,0.004223721877535268,0.6246401229713405,0.06373567426295682,0.5752181321520993,0.04922691996774129,0.35898034308873367
6.18,5.84,-0.96,0.005111140957344047,0.6241682433540869,0.06777873538688668,0.577980121399566,0.05269525849209443,0.36031079330904636
6.241,5.89,-0.88,0.006079378658600584,0.6237396756194411,0.07192194949802319,0.5807768910222144,0.056259527153754756,0.36162498130324766
6.283,5.95,-0.87,0.0071273692537272525,0.6233540878546059,0.07616256794013244,0.5836069975206659,0.05991710220141939,0.3629231278743068
6.346,6.0,-0.83,0.008254009228582472,0.6230111247750503,0.0804977906124782,0.5864689843156151,0.06366532229104778,0.36420545500581014
6.407,6.06,-0.79,0.009458158345755386,0.6227104080246983,0.08492476817737774,0.5893613828829614,0.06750149094983003,0.36547218556611466
6.448,6.11,-0.77,0.010738640730804163,0.6224515364903289,0.08944060430132413,0.5922827138704482,0.07142287904693129,0.3667235430072289
6.489,6.17,-0.76,0.01209424597991304,0.6222340866297933,0.09404235792759232,0.5952314881954844,0.07542672726854484,0.3679597510580342
6.551,6.22,-0.71,0.013523730287368647,0.6220576128137418,0.09872704557825934,0.5982062081242914,0.07951024859495255,0.36918103341142877
6.653,6.28,-0.71,0.015025817591210196,0.6219216476805942,0.10349164368359388,0.6012053683327221,0.08367063077743807,0.37038761340492654
6.673,6.33,-0.73,0.016599200735389247,0.6218257025045041,0.10833309093681329,0.6042274569490563,0.08790503881302474,0.3715797136941769
6.715,6.39,-0.77,0.018242542646778995,0.621769267576063,0.11324829067224608,0.6072709565789349,0.09221061741511281,0.37275755591883275
6.777,6.44,-0.8,0.01995447752540712,0.6217518125954548,0.11823411326497485,0.6103343453124261,0.09658449347815506,0.37392136036022877
6.818,6.5,-0.82,0.02173361204634592,0.6217727870777294,0.12328739855005962,0.6134160977130826,0.10102377853450023,0.3750713455906053
6.88,6.55,-0.79,0.02357852657175192,0.6218316207698175,0.128404958259431,0.6165146857888413,0.10552557120143359,0.37620772811418207
6.963,6.61,-0.75,0.025487776371583133,0.6219277240788881,0.13358357847449856,0.6196285799447624,0.11008695961627894,0.37733072200108037
7.047,6.66,-0.73,0.02745989285154352,0.6220604885116533,0.13882002209246325,0.6227562499177824,0.11470502385726573,0.37844053851563714
7.067,6.72,-0.71,0.02949338478681611,0.6222292871242298,0.14411103130427427,0.6258961656938192,0.11937683834776971,0.379537385740905
7.11,6.77,-0.65,0.03158673956016997,0.6224334749821842,0.1494533300821525,0.6290467984076586,0.12409947424153785,0.38062146820115395
7.195,6.83,-0.63,0.03373842440307119,0.6226723896303873,0.15484362667462687,0.6322066212260512,0.12887000178658295,0.3816929864841053
7.214,6.88,-0.62,0.0359468876384962,0.6229453515722732,0.16027861610708452,0.6353741102143439,0.13368549266554844,0.3827521368645494
7.276,6.94,-0.58,0.03821055992422466,0.6232516647580573,0.16575498268589292,0.638547745186862,0.13854302231047627,0.38379911093093116
7.338,6.99,-0.56,0.04052785549549098,0.6235906170813977,0.1712694025042157,0.6417260105411448,0.14343967219004736,0.3848340952164436
7.379,7.05,-0.56,0.04289717340598649,0.6239614808839191,0.176818545947713,0.6449073960760564,0.14837253206748935,0.38585727083617694
7.462,7.1,-0.55,0.045316898766305576,0.624363513466961,0.18239908019837256,0.6480903977938656,0.15333870222745696,0.38686881313194316
7.483,7.16,-0.54,0.047785403979001224,0.6247959576098965,0.1880076717347635,0.6512735186865698,0.15833529567028273,0.38786889132647123
7.546,7.21,-0.55,0.050301049969455176,0.6252580420943923,0.19364098882704045,0.6544552695069676,0.1633594402720679,0.38885766818874307
7.587,7.27,-0.56,0.05286218741176623,0.625748982234037,0.19929570402503344,0.6576341695252133,0.16840828090912213,0.38983529971227937
7.649,7.32,-0.52,0.05546715794882321,0.6262679804088662,0.20496849663771902,0.6608087472718588,0.17347898154527125,0.39080193480815145
7.712,7.38,-0.51,0.05811429540569449,0.6268142266044053,0.21065605520227002,0.6639775412685921,0.17856872728053716,0.3917577150143489
7.751,7.43,-0.49,0.06080192699546402,0.627386898954901,0.21635507994073344,0.6671391007479932,0.18367472635967,0.39270277422290073
7.813,7.49,-0.44,0.06352837451668408,0.6279851642904237,0.22206228520221935,0.6702919863636329,0.18879421213900166,0.39363723842587434
7.874,7.54,-0.4,0.0662919555416871,0.62860817868751,0.2277744018883765,0.6734347708917054,0.193924445010121,0.394561225481117
7.935,7.6,-0.38,0.06909098459507182,0.6292550880230003,0.23348817985989914,0.6765660399251751,0.19906271427894595,0.3954748448984143
7.978,7.65,-0.35,0.07192377432172851,0.6299250285307542,0.23920039032183427,0.6796843925612869,0.2042063399988886,0.3963781976466124
8.039,7.71,-0.31,0.07478863664379783,0.63061712736098,0.24490782818552115,0.6827884420832714,0.20935267475696054,0.39727137598215334
8.122,7.76,-0.32,0.07768388390597727,0.6313305031420001,0.25060731440510364,0.685876816637098,0.21449910541182754,0.3981544632994382
8.143,7.82,-0.3,0.08060783000860003,0.632064266544366,0.25629569828668686,0.6889481599041704,0.21964305478297275,0.3990275340034688
8.206,7.87,-0.28,0.08355879152791001,0.6328175208473336,0.26196985976836873,0.6920011317707621,0.22478198329025964,0.3998906534052934
8.267,7.93,-0.3,0.08653508882295952,0.6335893625077993,0.2676267116695647,0.6950344089946039,0.22991339054329385,0.4007438776408364
8.329,7.98,-0.32,0.08953504712855416,0.6343788817318513,0.2732632019082121,0.6980466858684654,0.23503481688005498,0.4015872536136878
8.371,8.04,-0.3,0.09255699763367553,0.6351851630491311,0.27887631568453536,0.7010366748801199,0.24014384485430929,0.40242081896232795
8.412,8.09,-0.3,0.09559927854483949,0.6360072858901964,0.2844630776300589,0.7040031073678138,0.24523810067131388,0.4032446020520901
8.495,8.15,-0.29,0.09866023613390064,0.6368443251670403,0.2900205539205024,0.7069447341701834,0.2503152555712846,0.40405862199197157
8.535,8.2,-0.25,0.10173822576987465,0.6376953518568627,0.2955458543511023,0.7098603262694152,0.2553730271600536,0.4048628886762009
8.596,8.26,-0.2,0.10483161293441963,0.6385594335891382,0.3010361343728303,0.712748675426292,0.2604091806863109,0.40565740285027674
8.659,8.31,-0.2,0.10793877422068679,0.6394356352359744,0.30648859708795717,0.7156085948056397,0.2654215302648393,0.4064421562010464
8.721,8.37,-0.16,0.11105809831530705,0.6403230195057349,0.3119004952034466,0.7184389195906572,0.2704079400452126,0.4072171314703364
8.763,8.42,-0.12,0.11418798696332033,0.6412206475399106,0.3172691329407564,0.7212385075847267,0.2753663253255341,0.40798230259163726
8.847,8.48,-0.12,0.11732685591588678,0.6421275795132404,0.3225918679007587,0.7240062397994463,0.28029465361091727,0.408737634849378
8.868,8.53,-0.11,0.12047313586063678,0.6430428752371178,0.327866112882636,0.72674102102783,0.28519094561654557,0.40948308506036235
8.929,8.59,-0.07,0.12362527333451954,0.6439655947663464,0.333089337655739,0.7294417804018453,0.29005327621527666,0.41021860177696956
8.97,8.64,-0.08,0.12678173161901463,0.6448947990093287,0.3382590706835056,0.7321074719336708,0.29487977532986903,0.41094412551170756
9.031,8.7,-0.09,0.12994099161758507,0.6458295503417494,0.343372900798619,0.7347370750401941,0.29966862877000655,0.4116595889826604
9.093,8.75,-0.05,0.1331015527152786,0.6467689132237746,0.3484284788286199,0.7373295950503526,0.30441807901436035,0.4123649173792608
9.154,8.81,-0.06,0.13626193362042,0.6477119548207189,0.353423519171172,0.7398840636949439,0.3091264259379769,0.41306002864766334
9.216,8.86,-0.07,0.13942067318837087,0.6486577456270551,0.35835580131812667,0.7423995395785385,0.3137920274852989,0.4137448337948318
9.237,8.92,-0.03,0.1425763312273351,0.6496053600935922,0.36322317132744036,0.7448751086332744,0.3184133002891361,0.41441923721029883
9.299,8.97,-0.01,0.14572748928616172,0.6505538772576157,0.36802354324189696,0.7473098845545987,0.3229887202359134,0.415083137004387
9.361,9.03,0.0,0.14887275142405795,0.6515023813757926,0.37275490045351545,0.7497030092193657,0.32751682297753293,0.41573642536152977
9.402,9.08,0.02,0.1520107449620925,0.6524499625596347,0.37741529701249255,0.7520536530869932,0.33199620439021044,0.4163789889072519
9.464,9.14,0.06,0.15514012121635182,0.6533957174133284,0.3820028588795582,0.7543610155846129,0.33642552098069456,0.4170107090873549
9.527,9.19,0.07,0.15825955621262613,0.6543387496737062,0.3865157851207151,0.7566243254772372,0.3408034902403498,0.4176314625578952
9.63,9.25,0.08,0.1613677513825313,0.655278170852103,0.3909523490434747,0.7588428412238943,0.34512889094767935,0.4182411215845723
9.65,9.3,0.11,0.16446343424100202,0.6562131008777801,0.39531089927384777,0.7610158513204937,0.34940056341995734,0.41883955445012494
9.693,9.36,0.08,0.16754535904511597,0.6571426687425378,0.3995898607734893,0.7631426746299336,0.35361740971473576,0.41942662586827284
9.734,9.41,0.06,0.17061230743421502,0.65806601314607,0.40378773579650196,0.7652226606996896,0.3577783937820727,0.4200021974026807
9.796,9.47,0.07,0.17366308905128014,0.6589822831415574,0.4079031047854766,0.7672551900669308,0.3618825415683677,0.4205661278894233
9.858,9.52,0.06,0.17669654214548766,0.6598906387809537,0.4119346272063972,0.7692396745510828,0.3659289410726942,0.4211182738615159
9.899,9.58,0.03,0.17971153415584365,0.6607902517593978,0.41588104232207684,0.771175557533719,0.36991674235645905,0.4216584899742695
9.979,9.63,0.03,0.18270696227575195,0.6616803060581642,0.41974116990379623,0.7730623142257786,0.37384515750713526,0.42218662943047164
10.041,9.69,0.06,0.1856817539983304,0.6625599985855595,0.4235139108807749,0.774899451922318,0.37771346055671373,0.42270254440457916
10.062,9.74,0.06,0.1886348676422476,0.6634285398151533,0.4271982479270661,0.7766865102449767,0.3815209873554171,0.423206086465216
10.125,9.8,0.07,0.19156529285780274,0.6642851544207096,0.4307932459854496,0.7784230613719523,0.3852671354011225,0.4236971069952897
10.189,9.85,0.12,0.19447205111291557,0.6651290819071582,0.4342980527278864,0.78010871025472,0.3889513636248741,0.42417545760900527
10.25,9.91,0.13,0.1973541961586501,0.6659595772369007,0.43771189895208756,0.7817430948202994,0.39257319213283975,0.4246409905649958
10.331,9.96,0.13,0.2002108144738702,0.6667759114506773,0.4410340989137293,0.783325886157679,0.3961322019050802,0.4250935591747417
10.351,10.02,0.16,0.20304102568860127,0.6675773722821567,0.4442640505938385,0.7848567886869835,0.39962803445153267,0.42553301820542233
10.393,10.07,0.18,0.20584398298564344,0.6683632647653276,0.44740123590091335,0.7863355403099576,0.40306039142566774,0.42595922427631416
10.453,10.13,0.17,0.20861887347994562,0.6691329118337123,0.4504452208074058,0.7877619125402983,0.4064290341963247,0.4263720362478546
10.515,10.18,0.18,0.21136491857521872,0.669885654910373,0.4533956554202613,0.7891357106124187,0.40973378337827876,0.42677131560255827
10.558,10.24,0.19,0.21408137429724558,0.6706208544876552,0.4562522739852671,0.7904567735673819,0.41297451832211796,0.4271569268170938
10.619,10.29,0.16,0.21676753160333118,0.6713378906956059,0.4590148948250134,0.7917249743149544,0.4161511765640199,0.42752873772498146
10.701,10.35,0.14,0.21942271666731636,0.6720361638580237,0.46168342021031655,0.7929402196709963,0.41926375323599224,0.42788661986953386
10.722,10.4,0.17,0.22204629113955615,0.672715095035111,0.46425783616495303,0.7941024503697045,0.42231230043709994,0.4282304488467797
10.783,10.46,0.17,0.2246376523812648,0.673374126551716,0.46673821220353895,0.7952116410504652,0.42529692656612283,0.42856010463818356
10.846,10.51,0.19,0.22719623367265385,0.6740127225101286,0.4691247010023281,0.7962678002191701,0.42821779561599105,0.4288754719330185
10.888,10.57,0.24,0.2297215043943333,0.6746303692863741,0.4714175380026347,0.7972709701838173,0.43107512643025664,0.4291764404402527
10.97,10.62,0.27,0.2322129701814939,0.6752265760089173,0.47361704094653834,0.7982212269640345,0.43386919192181134,0.42946290518976665
11.012,10.68,0.28,0.2346701730504304,0.6758008750186888,0.4757236093445364,0.7991186801739548,0.4366003182540629,0.42973476682266776
11.075,10.73,0.32,0.23709269149699128,0.6763528223093703,0.47773772387484253,0.7999634728777937,0.43926888398484765,0.42999193187044454
11.14,10.79,0.35,0.23948014056655695,0.6768819979469352,0.4796599457141057,0.80075578141757,0.4418753191734522,0.4302343130226893
11.201,10.84,0.35,0.24183217189518133,0.6773880064675029,0.48149091579943215,0.8014958152125755,0.44442010445123675,0.4304618293831386
11.221,10.9,0.33,0.24414847372156853,0.6778704772526286,0.4832313540217176,0.8021838165304149,0.44690377005646387,0.43067440671382057
11.282,10.95,0.35,0.24642877086959405,0.6783290648812268,0.4848820583504361,0.8028200602296416,0.449326894834036,0.4308719776671517
11.344,11.01,0.33,0.24867282470111526,0.6787634494573968,0.48644390389017317,0.803404853474218,0.45169010520091063,0.43105448200592006
11.428,11.06,0.32,0.25088043303884183,0.6791733369134952,0.4879178418692822,0.803938535420245,0.4539940740779714,0.4312218668112293
11.449,11.12,0.34,0.25305143005905734,0.6795584592878587,0.4893048985610884,0.8044214768756661,0.4562395197891037,0.43137408667859983
11.512,11.17,0.32,0.2551856861540134,0.679918574976619,0.4906061741380537,0.804854079933804,0.45842720492816313,0.43151110390246816
11.553,11.23,0.33,0.257283107763862,0.6802534689590589,0.49182284145927946,0.8052367775815843,0.4605579351944518,0.431632888649279
11.615,11.28,0.36,0.25934363717804193,0.6805629529959464,0.49295614479165334,0.8055700332831868,0.46263255819724075,0.4317394191192367
11.677,11.34,0.39,0.261367252306096,0.6808468658002726,0.4940073984648932,0.8058543405396761,0.4646519622298106,0.43183068169661426
11.72,11.39,0.4,0.2633539664179554,0.6811050731798194,0.49497798546072846,0.8060902224249296,0.4666170750134397,0.431906671088412
11.803,11.45,0.44,0.2653038278537748,0.6813374681510078,0.49586935593649123,0.8062782310980441,0.468528862411775,0.4319673904511628
11.825,11.5,0.48,0.26721691970342576,0.6815439710235495,0.4966830256834859,0.8064189472924551,0.47038832711607215,0.43201285150578583
11.887,11.56,0.49,0.26909335945577106,0.6817245294554978,0.4974205745206465,0.8065129797821678,0.4721965073018831,0.43204307464055414
11.948,11.61,0.51,0.27093329861785237,0.6818791184784032,0.4980836446241786,0.8065609648257278,0.4739544752578827,0.4320580890024008
11.991,11.67,0.54,0.27273692230412566,0.6820077404923708,0.4986739387940849,0.806563565588763,0.4756633359876528,0.43205793257688824
12.052,11.72,0.53,0.2745044487959002,0.6821104252309007,0.499193218658685,0.8065214715460077,0.4773242257853683,0.43204265225717675
12.176,11.78,0.52,0.2762361290711707,0.682187229695451,0.49964330281842234,0.8064353978636719,0.47893831078644855,0.43201230390228623
12.196,11.83,0.53,0.2779322463050796,0.6822382380596832,0.5000260649303766,0.8063060847629049,0.48050678549432196,0.43196695238487
12.217,11.89,0.52,0.2795931153413025,0.6822635615433553,0.5003434317349923,0.8061342968649206,0.4820308712845104,0.4319066716286327
12.28,11.94,0.49,0.28121908213470165,0.6822633382558204,0.5005973810265814,0.8059208225181327,0.4835118148872458,0.4318315446354606
12.343,12.0,0.52,0.2828105231656214,0.6822377330090913,0.5007899395691485,0.8056664731075771,0.4849508868498177,0.4317416635022405
12.405,12.05,0.54,0.2843678448262171,0.6821869371004483,0.5009231809590468,0.8053720823470033,0.486349379979804,0.43163712942724247
12.465,12.11,0.54,0.2858914827792207,0.6821111680645926,0.50099922343593,0.8050385055541525,0.48770860777029834,0.43151805270583005
12.528,12.16,0.56,0.2873819012895626,0.6820106693953848,0.5010202276434886,0.8046666189098254,0.489029902808206,0.431384552715238
12.548,12.22,0.6,0.2888395925292899,0.6818857102372606,0.5009883943415288,0.8042573187013432,0.49031461516669067,0.43123675788818466
12.63,12.27,0.6,0.29026507585625627,0.6817365850464752,0.5009059620711108,0.8038115205509789,0.49156411078289475,0.4310748056751898
12.651,12.33,0.62,0.2916588970670945,0.6815636132223852,0.5007752047746452,0.8033301586298754,0.4927797698221354,0.4308988424955987
12.714,12.38,0.65,0.29302162762503275,0.6813671387090257,0.5005984293730322,0.8028141848579186,0.49396298502987435,0.4307090236774141
12.776,12.44,0.65,0.29435386386316886,0.681147529567264,0.5003779733021073,0.8022645680898962,0.4951151600728701,0.43050551338606713
12.817,12.49,0.64,0.29565622616388587,0.6809051775178316,0.5001162020108131,0.8016822932880934,0.49623770787103366,0.430288484542254
12.9,12.55,0.66,0.29692935811514287,0.6806404974555468,0.49981550642363937,0.8010683606812978,0.49733204892160354,0.4300581187289577
12.921,12.6,0.65,0.29817392564441836,0.6803539269350725,0.49947830036998914,0.8004237849100332,0.498399609617339,0.4298146060877746
12.982,12.66,0.62,0.2993906161311175,0.680045925628594,0.49910701798321355,0.7997495941577227,0.499441820560477,0.4295581452047039
13.043,12.71,0.6,0.3005801374982762,0.679716974755847,0.498704111072109,0.7990468292674827,0.5004601148742183,0.4292889429855892
13.106,12.77,0.61,0.30174321728440706,0.6793675764870047,0.4982720464676795,0.7983165428444113,0.5014559265134917,0.42900721452141427
13.147,12.82,0.6,0.30288060169634035,0.678998253319002,0.4978133033479673,0.7975597983434211,0.502430688576699,0.42871318294366956
13.209,12.88,0.62,0.3039930546439225,0.6786095474259587,0.4973303705437496,0.79677766914284,0.5033858316200591,0.42840707927002725
13.272,12.93,0.65,0.305081356757453,0.6782020199844369,0.4968257438278847,0.7959712376041481,0.504322781976101,0.4280891422405735
13.333,12.99,0.65,0.30614630438877577,0.677776250474324,0.49630192319111216,0.7951415941182436,0.5052429600778207,0.4277596181448113
13.374,13.04,0.66,0.30718870859699154,0.677332835956189,0.49576141010716773,0.7942898361385612,0.5061477787900281,0.4274187606396063
13.457,13.1,0.69,0.30820939411981313,0.6768723903259918,0.49520670479014045,0.7934170672012455,0.5070386417494687,0.4270668305582055
13.478,13.15,0.7,0.30920919833163113,0.6763955435480672,0.49464030344707505,0.792524395932501,0.5079169417153706,0.4267040957104329
13.541,13.21,0.69,0.310188970189403,0.6759029408673387,0.494064695528876,0.7916129350432924,0.5087840589321522,0.42633083067415906
13.641,13.26,0.7,0.31114956916750247,0.6753952420017592,0.49348236098260423,0.7906838003117975,0.509641359506092,0.425947316578128
13.662,13.32,0.7,0.31209186418269835,0.674873120316017,0.4928957675083156,0.7897381095542733,0.5104901937978499,0.4255538408762214
13.724,13.37,0.66,0.3130167325104724,0.674337261977589,0.49230736782367673,0.788776981585122,0.5113318948327794,0.42515069711326514
13.764,13.43,0.62,0.3139250586939182,0.6737883650962682,0.4917195969396756,0.7878015351670509,0.5121677767310067,0.4247381846825849
13.848,13.48,0.61,0.3148177334464835,0.6732271388483677,0.491134869450784,0.7868128879523845,0.5129991331592317,0.4243166085756678
13.868,13.54,0.58,0.31569565254981824,0.6726543025868776,0.49055557684292256,0.7858121554168287,0.5138272358061382,0.42388627912447524
13.931,13.59,0.58,0.31655971574797415,0.6720705849389353,0.4899840848225099,0.7848004497872842,0.514653332883166,0.42344751173713036
14.013,13.65,0.62,0.31741082563917444,0.6714767228920469,0.4894227306697448,0.7837788789656335,0.5154786476522373,0.423000626627828
14.034,13.7,0.62,0.3182498865663652,0.6708734608705399,0.4888738206191029,0.7827485454506852,0.5163043769818806,0.42254594854183763
14.097,13.76,0.63,0.3190778035077816,0.6702615498037472,0.48833962726988533,0.7817105452605254,0.5171316899330963,0.42208380647641996
14.158,13.81,0.65,0.3198954809688116,0.6696417461874219,0.48782238702956526,0.7806659668574498,0.5179617263762868,0.421614533398356
14.2,13.87,0.67,0.32070382187651025,0.6690148111398849,0.4873242975926504,0.7796158900774438,0.5187955956405943,0.4211384659586481
14.263,13.92,0.66,0.3215037264781935,0.6683815094544127,0.48684751545780086,0.778561385065954,0.5196343751970495,0.42065594420484753
14.325,13.98,0.68,0.3222960912456003,0.667742608649403,0.4863941534859728,0.7775035112216034,0.5204791093769904,0.4201673112914167
14.366,14.03,0.68,0.3230818077861434,0.6670988780179176,0.48596627850240287,0.776443316149587,0.5213308081272814,0.4196729131885414
14.428,14.09,0.66,0.323861761762792,0.6664510876782667,0.4855659089453049,0.7753818346266534,0.5221904458039085,0.4191730983898483
14.49,14.14,0.64,0.32463683182413844,0.6658000076273788,0.48519501256420866,0.7743200875797607,0.5230589600055693,0.41866821761957673
14.55,14.2,0.64,0.32540788854621105,0.6651464067987624,0.4848555041709227,0.7732590810806389,0.5239372504488752,0.41815862353984595
14.592,14.25,0.59,0.3261757933876131,0.6644910521269025,0.4845492434461376,0.7721998053585309,0.5248261778867568,0.41764467045874737
14.654,14.31,0.57,0.32694139765957786,0.6638347076199439,0.4842780328046854,0.7711432338333051,0.5257265630715868,0.4171267140400274
14.778,14.36,0.6,0.32770554151252584,0.663178133442488,0.4840436153223913,0.7700903221710125,0.5266391857644174,0.4166051110151032
14.798,14.42,0.59,0.32846905294069095,0.6625220850102612,0.4838476727273213,0.769042007363758,0.5275647837915908,0.4160802188980438
14.818,14.47,0.59,0.32923274680634773,0.661867312098318,0.4836918234580492,0.7679992068355319,0.528504052149836,0.4155523957040071
14.859,14.53,0.62,0.32999742388513476,0.6612145579643272,0.48357762079138017,0.7669628175754407,0.5294576421608509,0.4150219996714572
14.922,14.58,0.64,0.3307638699339285,0.6605645584883744,0.48350655104179274,0.765933715299629,0.5304261606763099,0.4144893889883171
14.962,14.64,0.63,0.33153285478268896,0.6599180413306018,0.4834800318347381,0.7649127536430477,0.5314101693342225,0.4139549215221072
15.023,14.69,0.64,0.33230513145164353,0.6592757251079225,0.48349941045586564,0.7639007633821704,0.5324101838675789,0.41341895455410904
15.146,14.75,0.65,0.3330814352951038,0.6586383185909785,0.48356596227822907,0.7628985516897393,0.5334266734662576,0.4128818445176661
15.166,14.8,0.63,0.3338624831731221,0.6580065199224662,0.48368088926955977,0.7619069014225874,0.5344600601931866,0.41234394674087316
15.208,14.86,0.62,0.3346489726520911,0.6573810158579046,0.48384531858172997,0.7609265704435598,0.535510718455769,0.4118056151940775
15.271,14.91,0.62,0.3354415812352837,0.6567624810298697,0.4840603012245362,0.7599582909785394,0.5365789745335648,0.41126720224276403
15.31,14.97,0.59,0.33624096562424105,0.6561515772366405,0.4843268108259159,0.7590027690095008,0.5376651061631906,0.4107290584064655
15.373,15.02,0.54,0.3370477610118446,0.6555489527561087,0.48464574248065423,0.7580606837042936,0.5387693421813242,0.4101915321243204
15.415,15.08,0.55,0.3378625804078535,0.6549552416856882,0.4850179116895239,0.7571326868835728,0.5398918622266051,0.40965496952778646
15.478,15.13,0.55,0.3386860139976396,0.6543710633088538,0.4854440533906314,0.7562194025250146,0.5410327965010716,0.4091197142208523
15.541,15.19,0.54,0.33951862853479403,0.6537970214888307,0.4859248210845276,0.7553214263047104,0.5421922255916153,0.4085861070679143
15.582,15.24,0.56,0.3403609667682062,0.6532337040898912,0.4864607860543886,0.7544393251754942,0.5433701803517498,0.40805448598933936
15.645,15.3,0.58,0.34121354690412337,0.6526816824266587,0.4870524366823598,0.7535736369819055,0.5445666418438634,0.40752518576461333
15.708,15.35,0.58,0.3420768621036212,0.6521415107417915,0.4877001778629943,0.7527248701114869,0.545781541342024,0.40699853784295204
15.729,15.41,0.59,0.3429513800158382,0.651613725712402,0.4884043305146245,0.7518935031821804,0.5470147603953633,0.4064748701613046
15.791,15.46,0.62,0.343837542347265,0.6510988459855539,0.48916513118944255,0.7510799847657303,0.548266130952051,0.40595450696978186
15.853,15.52,0.6,0.3447357644673272,0.6505973717431621,0.4899827317830113,0.7502847331471757,0.5495354355438674,0.4054377686646145
15.893,15.57,0.59,0.34564643505044645,0.6501097842965929,0.4908571993438533,0.749508136120705,0.5508224075313819,0.40492497162879476
15.955,15.63,0.6,0.34656991575470186,0.6496365457112185,0.4917885159836392,0.7487505508223483,0.552126731409737,0.4044164280805273
16.016,15.68,0.58,0.34750654093715966,0.649178098461117,0.4927765788883663,0.7480123036000496,0.5534480431750112,0.4039124459295465
16.078,15.74,0.54,0.34845661740590406,0.6487348651140079,0.4938212004307772,0.7472936899215616,0.5547859307510812,0.40341332864126106
16.121,15.79,0.53,0.3494204242087693,0.6483072480464022,0.4949221083841222,0.7465949743204163,0.5561399344768169,0.4029193751085677
16.221,15.85,0.51,0.3503982124587494,0.6478956291888106,0.4960789462372269,0.7459163903799355,0.5575095476533211,0.4024308795310382
16.24,15.9,0.49,0.3513902051960145,0.6475003698007401,0.4972912736106716,0.74525814075492,0.5588942171507589,0.4019481313010876
16.303,15.96,0.51,0.35239659728639244,0.6471218102750959,0.4985585667737106,0.744620397230405,0.5602933440741273,0.40147141489669036
16.343,16.01,0.54,0.3534175553560705,0.6467602699715378,0.49988021926134,0.7440033008167969,0.5617062844871107,0.40100100978021375
16.404,16.07,0.55,0.35445321776216066,0.6464160470782914,0.5012555425906817,0.7434069618807866,0.5631323501930005,0.40053719030297313
16.466,16.12,0.56,0.35550369459864667,0.6460894185019035,0.5026837670756302,0.7428314603116449,0.5645708095715312,0.4000802256151844
16.527,16.18,0.6,0.3565690677371231,0.6457806397844312,0.5041640427385232,0.742276845722771,0.5660208884704258,0.3996303795810674
16.568,16.23,0.6,0.3576493909016515,0.6454899450475432,0.5056954403174465,0.74174313768855,0.5674817711504204,0.39918791069890297
16.652,16.29,0.59,0.35874468977701124,0.6452175469629856,0.5072769523676793,0.7412303260166018,0.5689526012825449,0.39875307202584315
16.672,16.34,0.62,0.3598549621495874,0.6449636367488123,0.5089074944556754,0.740738371055423,0.5704324829964462,0.39832611110721267
16.736,16.4,0.61,0.3609801780801194,0.6447283841907245,0.5105859064438684,0.7402672040372853,0.5719204819785488,0.3979072699099499
16.777,16.45,0.59,0.3621202801075258,0.6445119376877948,0.5123109538644839,0.7398167274561254,0.573415626618833,0.3974967847597655
16.838,16.51,0.59,0.3632751834830085,0.6443144243218034,0.5140813293804135,0.7393868154800755,0.5749169092049838,0.3970948862815556
16.941,16.56,0.57,0.3644447764336272,0.6441359499493726,0.5158956543311034,0.7389773143982057,0.5764232871625946,0.3967017993425837
16.962,16.62,0.53,0.3656289204545215,0.6439765993160531,0.5177524803613119,0.7385880431009385,0.577933684340027,0.39631774299797273
17.004,16.67,0.55,0.36682745062894095,0.6438364361915039,0.5196502911304925,0.7382187935934864,0.5794469923363803,0.39594293043812806
17.065,16.73,0.57,0.36804017597519567,0.6437155035249075,0.52158750410043,0.7378693315415473,0.5809620718708619,0.3955775689378167
17.107,16.78,0.58,0.3692668798195735,0.643613823619794,0.5235624723986331,0.7375393968483535,0.5824777541916757,0.3952218598067241
17.169,16.84,0.6,0.3705073201941846,0.6435313983275027,0.5255734867548472,0.7372287042620733,0.5839928425223846,0.3948759983414104
17.229,16.89,0.63,0.3717612302586203,0.643468209258573,0.5276187775079397,0.736936944012552,0.5855061135436145,0.3945401737786626
17.333,16.95,0.64,0.3730283187442772,0.6434242180113949,0.5296965166803448,0.7366637824763208,0.5870163189079137,0.39421456925028897
17.354,17.0,0.65,0.37430827042020337,0.6433993664174669,0.531804820117235,0.7364088628686272,0.5885221867855862,0.3938993617394334
17.396,17.06,0.69,0.3756007465793448,0.6433935768025965,0.5339417496875742,0.7361718059609669,0.5900224234393224,0.3935947220385177
17.457,17.11,0.7,0.3769053855441079,0.6434067522633754,0.5361053155442126,0.7359522108223019,0.5915157148254826,0.3933008147089429
17.52,17.17,0.71,0.37822180319017934,0.6434387769582459,0.5382934784401804,0.7357496555818893,0.5930007282199102,0.39301779804270975
17.562,17.22,0.71,0.37954959348755524,0.6434895164124868,0.540504152098332,0.7355636982115605,0.5944761138661767,0.3927458240261278
17.623,17.28,0.71,0.3808883290577356,0.6435588178364737,0.5427352056314745,0.7353938773253346,0.5959405066441936,0.39248503830573606
17.686,17.33,0.67,0.3822375617460437,0.6436465104566059,0.5449844660101074,0.7352397129943431,0.5973925277571355,0.3922355801564726
17.749,17.39,0.66,0.38359682320803573,0.6437524058583278,0.5472497205748895,0.7351007075751451,0.5988307864345987,0.3919975824520555
17.79,17.44,0.69,0.3849656255089638,0.6438762983407273,0.5495287195908927,0.7349763465496152,0.6002538816498516,0.39177117163753605
17.854,17.5,0.7,0.3863434617352369,0.6440179652822274,0.5518191788406182,0.7348660993746597,0.6016604038489143,0.3915564677040666
17.895,17.55,0.72,0.3877298066168009,0.6441771675169319,0.5541187822526168,0.7347694203401234,0.6030489366890768,0.39135358416604876
17.936,17.61,0.77,0.3891241171593142,0.6443536497212322,0.5564251845623851,0.7346857494334963,0.6044180587843504,0.39116262804092083
17.998,17.66,0.79,0.39052583328496693,0.6445471408103244,0.5587360140020532,0.7346145132104426,0.6057663454553093,0.3909836998318893
18.039,17.72,0.81,0.391934378480789,0.6447573543442954,0.5610488750152617,0.7345551256705631,0.6070923704807932,0.39081689351391563
18.102,17.77,0.85,0.39334916045331547,0.6449839889434392,0.563361350993593,0.734506989138002,0.6083947078490108,0.3906622965232343
18.164,17.83,0.87,0.3947695717885314,0.6452267287124334,0.5656710070309894,0.7344694951463836,0.6096719335056852,0.3905199897506176
18.206,17.88,0.87,0.3961949906160794,0.6454852436729801,0.5679753926927272,0.7344420253272477,0.6109226270969984,0.39039004753855316
18.269,17.94,0.89,0.3976247812767633,0.6457591902045066,0.5702720447956696,0.7344239523009012,0.6121453737052014,0.39027253768250625
18.333,17.99,0.9,0.3990582949924122,0.646048211492533,0.5725584901966666,0.7344146405684986,0.6133387655748523,0.3901675214364925
18.413,18.05,0.88,0.40049487053718075,0.646351937984344,0.574832248586103,0.7344134474041565,0.6145014038277311,0.3900750535232828
18.434,18.1,0.87,0.40193383490935986,0.6466699878516502,0.5770908352836838,0.7344197237459543,0.6156319001645192,0.38999518214965473
18.495,18.16,0.89,0.40337450400277075,0.6470019674599518,0.5793317640335914,0.7344328150847423,0.6167288785513596,0.3899279490271606
18.577,18.21,0.88,0.4048161832768377,0.6473474718443281,0.5815525497961396,0.7344520623496793,0.6177909768893893,0.38987338939886657
18.598,18.27,0.9,0.4062581684244715,0.6477060851913546,0.5837507115330076,0.73447680278928,0.618816848665291,0.389831532072443
18.659,18.32,0.95,0.4076997460369497,0.6480773813267973,0.5859237749830519,0.7345063708465236,0.6198051645808605,0.3898023994598581
18.701,18.38,0.98,0.4091401942650372,0.6484609242086795,0.5880692754256062,0.7345400990263313,0.6207546141595611,0.38978600762376986
18.783,18.43,1.0,0.4105787834756587,0.6488562684252684,0.5901847604281115,0.7345773187536251,0.6216639073280631,0.3897823663305876
18.844,18.49,1.03,0.4120147769034902,0.6492629596974779,0.592267792574874,0.7346173612204142,0.6225317759708593,0.3897914791100692
18.906,18.54,1.07,0.41344743129687994,0.649680535385196,0.5943159521737719,0.7346595582207223,0.6233569754561815,0.3898133433212322
18.926,18.6,1.04,0.414875997557519,0.650108524997084,0.5963268399378415,0.734703242972398,0.6241382861315994,0.3898479502243068
18.987,18.65,1.07,0.4162997213732733,0.6505464507034613,0.5982980796388535,0.7347477509249013,0.6248745147878503,0.3898952850584776
19.049,18.71,1.08,0.4177178438435711,0.6509938278519809,0.6002273207301744,0.7347924205521819,0.6255644960895774,0.3899553271252409
19.213,18.76,1.06,0.41912960209675004,0.6514501654858565,0.6021122409363951,0.7348365941298772,0.6262070939717694,0.39002804987731327
19.235,18.82,1.05,0.42053422989877604,0.651914966864448,0.6039505488073378,0.7348796184962894,0.6268012030007666,0.3901134210131388
19.255,18.87,1.06,0.42193095825275917,0.6523877299860531,0.6057399862341314,0.7349208457968873,0.6273457496987505,0.39021140257709835
19.275,18.93,1.03,0.423319015988711,0.6528679481127602,0.6074783309250994,0.7349596342122667,0.6278396938306574,0.39032195106550505
19.316,18.98,1.03,0.4246976303430336,0.6533551102971861,0.6091633988392108,0.7349953486694932,0.6282820296524451,0.3904450175383916
19.357,19.04,1.06,0.4260660275272935,0.6538487019108612,0.6107930465748498,0.7350273615366186,0.6286717871196058,0.3905805477369763
19.42,19.09,1.09,0.4274234332859103,0.6543482051739353,0.612365173711629,0.7350550532999562,0.6290080330547819,0.39072848220656264
19.523,19.15,1.1,0.42876907344246007,0.6548530996858131,0.6138777251029509,0.7350778132235202,0.6292898722733153,0.39088875642454646
19.545,19.2,1.14,0.4301021744343438,0.6553628629562877,0.6153286931170139,0.7350950399899671,0.6295164486655915,0.39106130093317576
19.586,19.26,1.17,0.4314219638355952,0.655876970936756,0.6167161198239898,0.7351061423224885,0.6296869462351345,0.39124604147671804
19.668,19.31,1.17,0.4327276708676195,0.656394898551139,0.6180380991271889,0.7351105395873404,0.6298005900915415,0.39144289914270536
19.687,19.37,1.18,0.43401852689766823,0.6569161202261803,0.6192927788361469,0.7351076623769911,0.6298566473975175,0.39165179050695875
19.751,19.42,1.2,0.4352937659248788,0.6574401104208543,0.6204783626797488,0.7350969530741231,0.6298544282694366,0.3918726277821292
19.812,19.48,1.19,0.43655262505374287,0.6579663441546398,0.6215931122577235,0.7350778663967908,0.6297932866310059,0.3921053189695453
19.895,19.53,1.18,0.4377943449549108,0.6584942975344377,0.6226353489290605,0.7350498699249827,0.6296726210197281,0.3923497680142138
19.917,19.59,1.19,0.4390181703132894,0.6590234482799078,0.6236034556360807,0.7350124446087148,0.6294918753459585,0.3926058749628378
19.979,19.64,1.16,0.4402233502634345,0.6595532762470038,0.6244958786630205,0.7349650852576417,0.6292505396044205,0.3928735361246973
20.021,19.7,1.12,0.44140913881229127,0.6600832639494514,0.6253111293280484,0.7349073010119954,0.6289481505380775,0.39315264423517166
20.082,19.75,1.13,0.44257479524937277,0.6606128970779053,0.6260477856076577,0.7348386157945156,0.6285842922542664,0.39344308862160593
20.143,19.81,1.14,0.4437195845445106,0.6611416650164912,0.6267044936923647,0.7347585687428679,0.6281585967929637,0.3937447553711264
20.248,19.86,1.13,0.4448427777333609,0.6616690613564116,0.6272799694726491,0.7346667146219162,0.6276707446470098,0.39405752749996875
20.289,19.92,1.17,0.44594365229089294,0.6621945844062822,0.6277729999540486,0.7345626242153527,0.627120465234057,0.3943812851239111
20.309,19.97,1.19,0.4470214924931035,0.6627177376988809,0.6281824446002909,0.7344458846967545,0.6265075373200113,0.3947159056294891
20.351,20.03,1.19,0.44807558976720385,0.6632380304940161,0.6285072366033418,0.7343160999809399,0.6258317893937742,0.3950612638457723
20.415,20.08,1.2,0.44910524303053134,0.6637549782772694,0.6287463840792912,0.7341728910571764,0.6250930999931886,0.3954172322165779
20.477,20.14,1.23,0.4501097590184406,0.6642681032543869,0.6288989711891154,0.734015896306178,0.6242913979822239,0.39578368097304445
20.519,20.19,1.22,0.4510884526014666,0.6647769348411163,0.6289641591835032,0.7338447718028754,0.623426662779562,0.39616047830648726
20.621,20.25,1.21,0.45204064709209824,0.6652810101482571,0.6289411873710924,0.7336591916067752,0.6224989245388929,0.39654749054143057
20.642,20.3,1.22,0.452965674541568,0.6657798744616616,0.6288293740096188,0.733458848041439,0.6215082642813319,0.39694458230866486
20.683,20.36,1.21,0.4538628760271335,0.6662730817168605,0.6286281171196222,0.7332434519642933,0.6204548139804853,0.39735161671810987
20.746,20.41,1.17,0.45473160193038065,0.6667601949679451,0.62833689522048,0.7330127330276678,0.6193387566007598,0.397768455531215
20.809,20.47,1.15,0.4555712122070978,0.6672407868503032,0.6279552679886363,0.7327664399317425,0.6181603260895548,0.3981949593325934
20.87,20.52,1.14,0.4563810766492578,0.667714440036807,0.6274828768379506,0.7325043406699489,0.6169198073239941,0.39863098770059036
20.912,20.58,1.12,0.45716057513961705,0.6681807476870655,0.6269194454221374,0.7322262227672752,0.615617536012813,0.3990763993765274
20.995,20.63,1.12,0.4579090978994238,0.6686393138893649,0.6262647800593002,0.7319318935118988,0.6142538985539685,0.3995310524324594
21.017,20.69,1.15,0.45862604572970567,0.6690897540949474,0.6255187700785726,0.7316211801806045,0.6128293318484596,0.3999948044373912
21.078,20.74,1.15,0.45931083024660957,0.669531695544287,0.6246813880889336,0.7312939302584708,0.6113443230708036,0.4004675126220107
21.141,20.8,1.15,0.4599628741112529,0.669964777685047,0.623752690170338,0.7309500116532714,0.6097994093966166,0.4009490340420878
21.202,20.85,1.17,0.46058161125455105,0.6703886525814124,0.6227328159874287,0.7305893129049542,0.6081951776877843,0.40143922574072327
21.244,20.91,1.16,0.4611664870975005,0.6708029853144895,0.6216219888262444,0.7302117433903231,0.6065322641357885,0.4019379449096001
21.348,20.96,1.15,0.4617169587674364,0.6712074543734213,0.620420515554492,0.7298172335227298,0.6048113538638418,0.4024450490493222
21.368,21.02,1.15,0.46223249531082417,0.671601752036829,0.6191287865060814,0.7294057349462494,0.6030331804885583,0.4029603961288613
21.431,21.07,1.14,0.46271257790320053,0.67198558474412,0.6177472752907361,0.728977220723554,0.6011985256419722,0.4034838447440781
21.452,21.13,1.1,0.4631567000569271,0.672358673456148,0.6162765385295911,0.7285316855164683,0.5993082184547579,0.4040152542752685
21.515,21.18,1.08,0.46356436782746285,0.6727207540046736,0.6147172155177836,0.7280691457581026,0.5973631350015428,0.4045544850437121
21.577,21.24,1.06,0.4639351000188594,0.6730715774300697,0.6130700278151044,0.7275896398155134,0.5953641977091986,0.4051013984672614
21.639,21.29,1.03,0.4642684283891606,0.6734109103067469,0.6113357787658106,0.7270932281419915,0.5933123747289545,0.40565585721509884
21.784,21.35,1.03,0.46456389785633456,0.6737385350558281,0.6095153529486982,0.7265799934182127,0.5912086792731052,0.4062177253618865
21.805,21.4,1.06,0.46482106670530704,0.6740542502446573,0.6076097155584858,0.7260500406815938,0.5890541689169883,0.40678686854157675
21.826,21.46,1.06,0.4650395067966292,0.6743578708727725,0.6056199117195017,0.7255034974431785,0.5868499448668324,0.4073631541011158
21.847,21.51,1.07,0.4652188037772989,0.6746492286439897,0.6035470657326215,0.7249405137912289,0.5845971511940349,0.4079464512541745
21.908,21.57,1.09,0.46535855729426745,0.674928172224257,0.6013923802563924,0.7243612624804373,0.5822969740364441,0.4085366312348978
21.949,21.62,1.1,0.4654583812111955,0.6751945674849498,0.5991571354233547,0.7237659390052642,0.579950640767294,0.40913356745151586
22.01,21.68,1.08,0.46551790382904396,0.6754482977312893,0.5968426878926706,0.7231547616554663,0.5775594191325235,0.4097371356395563
22.094,21.73,1.1,0.465536768111084,0.6756892639156247,0.5944504698402427,0.722527971551649,0.5751246163573329,0.41034721401432106
22.115,21.79,1.09,0.465514631912862,0.6759173848353738,0.5919819878874656,0.721885832658848,0.572647578222928,0.41096368342225215
22.176,21.84,1.06,0.4654511682176105,0.6761325973154977,0.5894388219696545,0.721228631776688,0.5701296881145091,0.41158642749080354
22.239,21.9,1.03,0.4653460653775247,0.6763348563754544,0.5868226241450903,0.7205566785054115,0.5675723660416265,0.4122153327764803
22.282,21.95,1.02,0.4651990273612617,0.6765241353806277,0.5841351173455664,0.71987030518778,0.5649770676320692,0.4128502889107722
22.343,22.01,0.98,0.46500977400796645,0.6767004261782732,0.5813780940693172,0.7191698668273024,0.5623452831004614,0.41349118874378105
22.465,22.06,0.96,0.4647780412880615,0.6768637392180368,0.5785534150171909,0.7184557409834901,0.5596785361926894,0.41413792848541936
22.486,22.12,0.98,0.46450358157095706,0.6770141036571176,0.5756630076728744,0.7177283276449268,0.5569783831072084,0.4147904078441001
22.507,22.17,0.98,0.4641861638997545,0.6771515674501316,0.5727088648278883,0.7169880490809297,0.554246411394184,0.4154485301628366
22.549,22.23,0.97,0.4638255742729307,0.6772761974237185,0.5696930430519903,0.7162353496724209,0.5514842388333511,0.4161122025526151
22.612,22.28,0.99,0.4634216159329188,0.6773880793358957,0.5666176611095691,0.7154706957224196,0.5486935122914421,0.41678133602279377
22.675,22.34,1.0,0.46297410966144653,0.6774873179201363,0.5634848983226342,0.7146945752463231,0.5458759065600634,0.41745584560814314
22.737,22.39,0.98,0.4624828940814596,0.6775740369141184,0.5602969928810999,0.7139074977418729,0.5430331231749568,0.4181356504920527
22.818,22.45,0.99,0.4619478259654121,0.6776483790730855,0.5570562401012109,0.7131099939385115,0.5401668892176695,0.4188206741254259
22.839,22.5,0.99,0.46136878054966124,0.6777105061677748,0.5537649906331232,0.7123026155257703,0.5372789561007268,0.4195108443408514
22.901,22.56,0.96,0.46074565185463284,0.6777605989669053,0.5504256486188146,0.7114859348603972,0.5343710983374912,0.42020609346173016
22.944,22.61,0.94,0.4600783530103652,0.6777988572042589,0.547040669801634,0.7106605446520783,0.5314451122979436,0.42090635840612844
23.089,22.67,0.93,0.45936681658697237,0.6778254995304088,0.543612559588907,0.7098270576277654,0.5285028149516787,0.42161158078516137
23.111,22.72,0.88,0.4586109949295406,0.6778407634491531,0.5401438710691114,0.7089861061746026,0.5255460425994164,0.4223217069957066
23.131,22.78,0.84,0.457810860496946,0.677844905238674,0.5366372029851985,0.7081383419612579,0.5225766495943136,0.4230366883071996
23.194,22.83,0.84,0.4569664062040718,0.6778381998573934,0.5330951976656715,0.7072844355371414,0.5195965070542954,0.423756480942199
23.215,22.89,0.84,0.45607764576689025,0.6778209408344257,0.5295205389150381,0.7064250759085953,0.5166075015665237,0.42448104615034193
23.278,22.94,0.82,0.45514461404987017,0.6777934401444667,0.5259159498652369,0.7055609700907667,0.5136115338850025,0.42521035027525583
23.338,23.0,0.84,0.4541673674151329,0.6777560280669133,0.5222841907896107,0.7046928426336551,0.5106105176222125,0.42594436481393705
23.4,23.05,0.85,0.453145984072729,0.6777090530290062,0.5186280568809961,0.703821435120802,0.5076063779356188,0.4266830664680444
23.441,23.11,0.83,0.45208056443134853,0.6776528814328098,0.514950375995544,0.7029475056391822,0.5046010502098834,0.42742643718654955
23.504,23.16,0.83,0.45097123144873075,0.6775878974658796,0.5112540063639812,0.7020718282190251,0.5015964787356529,0.42817446419924754
23.571,23.22,0.84,0.44981813098101153,0.6775145028955096,0.5075418342721361,0.7011951922425981,0.4985946153858359,0.42892714004072713
23.61,23.27,0.82,0.44862143213025757,0.6774331168464625,0.5038167717126457,0.7003184018214972,0.49559741829034276,0.4296844625644827
23.692,23.33,0.79,0.4473813275894474,0.6773441755620982,0.5000817540097922,0.6994422751428203,0.4926068505103051,0.4304464349468843
23.713,23.38,0.8,0.44609803398417097,0.6772481321488036,0.4963397374193819,0.6985676437855427,0.4896248787128337,0.43121306568067985
23.773,23.44,0.76,0.44477179221032975,0.6771454563036166,0.4925936967055595,0.6976953520090842,0.48665347184739427,0.4319843685576215
23.834,23.49,0.72,0.4434028677671221,0.6770366340249186,0.4888466226964432,0.6968262560162319,0.48369459982488155,0.4327603626397283
23.94,23.55,0.69,0.4419915510846064,0.6769221673060499,0.4851015198205054,0.6959612231924424,0.48075023220043056,0.4335410722186431
23.961,23.6,0.67,0.44053815784513006,0.6768025738116823,0.48136140362565544,0.6951011313232733,0.4778223368609405,0.43432652676250516
24.001,23.66,0.64,0.43904302929790817,0.676678386536779,0.4776292982830153,0.6942468677914335,0.47491287871818266,0.4351167608497736
24.064,23.71,0.65,0.4375065325660139,0.6765501534479806,0.4739082340773716,0.6933993287548024,0.4720238184082343,0.43591181408951346
24.125,23.77,0.66,0.4359290609449936,0.676418437107299,0.4702012448862549,0.6925594183067754,0.46915711099785085,0.4367117310277859
24.167,23.82,0.66,0.4343110341922643,0.6762838142780679,0.46651136564956847,0.6917280476203526,0.4663147046982892,0.4375165610399575
24.292,23.88,0.65,0.4326528988063889,0.6761468755131773,0.4628416298316723,0.6909061340775142,0.4634985395870426,0.43832635820891125
24.313,23.93,0.67,0.4309551282952766,0.6760082247256858,0.4591950668778363,0.6900946003856085,0.46071054633794845,0.4391411811892605
24.396,23.99,0.66,0.4292182234323345,0.67586847874195,0.4555746996670212,0.6892943736825705,0.4579526449601605,0.43996109305771014
24.438,24.04,0.64,0.4274427124996061,0.6757282668374207,0.4519835419630208,0.6885063846327034,0.455226743546523,0.4407861611497028
24.458,24.1,0.64,0.42562915151695324,0.6755882302552426,0.44842459586609473,0.6877315665145006,0.45253473703192143,0.44161645688244006
24.499,24.15,0.62,0.42377812445635593,0.6754490217077859,0.4449008492673128,0.6869708543016299,0.44987850596222145,0.442452055564299
24.561,24.21,0.58,0.4218902434404095,0.6753113048612256,0.44141527330791125,0.6862251837379025,0.4472599152744221,0.44329303619063715
24.645,24.26,0.56,0.4199661489240725,0.6751757538033144,0.4379708198459846,0.685495490406949,0.4446808130886426,0.44413948122601465
24.665,24.32,0.54,0.4180065098586785,0.6750430524945339,0.4345704189328394,0.6847827087973911,0.4421430295125253,0.44499147637298003
24.705,24.37,0.52,0.4160120238371847,0.6749138942028613,0.4312169763013177,0.6840877713644283,0.4396483754585673,0.4458491103277149
24.767,24.43,0.51,0.413983417219593,0.674788980922452,0.42791337086837566,0.6834116075888573,0.4371986414747953,0.44671247452298907
24.807,24.48,0.54,0.41192144523744734,0.6746690227765739,0.42466245225415383,0.6827551430346012,0.4347955965890919,0.44758166285893913
24.87,24.54,0.52,0.40982689207631784,0.6745547374051538,0.42146703831972904,0.6821192984057471,0.4324409871673883,0.4484567714221482
24.933,24.59,0.52,0.4077005709352051,0.6744468493372846,0.4183299127257013,0.6815049886038924,0.43013653578588296,0.4493378981933871
25.037,24.65,0.54,0.4055433240618414,0.6743460893490207,0.415253822513737,0.6809131217863527,0.4278839401174239,0.4502251427442612
25.058,24.7,0.55,0.40335602276292903,0.6742531938067607,0.4122414757132002,0.6803445984255312,0.42568487183221865,0.4511186059229201
25.1,24.76,0.53,0.4011395673884156,0.674168903996485,0.4092955389750222,0.6798003103695055,0.4235409755130655,0.45201838952898243
25.163,24.81,0.54,0.3988948872889711,0.6740939654391019,0.40641863523499283,0.6792811399037362,0.4214538675853561,0.4529245959778605
25.224,24.87,0.53,0.3966229407458813,0.6740291271921642,0.4036133414087008,0.6787879588137176,0.4194251352621561,0.4538373279547259
25.246,24.92,0.5,0.39432471487260784,0.6739751411382472,0.4008821861204043,0.67832162744835,0.4174563355047279,0.45475668805842495
25.308,24.98,0.48,0.39200122548727806,0.6739327612603466,0.39822764746817274,0.6778829937838411,0.4155489939988953,0.4556827784357665
25.391,25.03,0.48,0.38965351695536127,0.6739027429047293,0.3956521508276791,0.6774728924880854,0.41370460414766314,0.45661570040674365
25.412,25.09,0.45,0.3872826620017814,0.6738858420317387,0.3931580666970274,0.6770921439856827,0.41192462608048247,0.4575555540814087
25.475,25.14,0.42,0.38488976149171666,0.6738828144551249,0.3907477085849571,0.6767415535239805,0.4102104856794936,0.45850243796922935
25.537,25.2,0.44,0.3824759441793223,0.6738944150705158,0.38842333094466475,0.6764219102407146,0.408563573623009,0.4594564485817413
25.641,25.25,0.44,0.38004236642361605,0.6739213970736764,0.38618712715535963,0.6761339862338122,0.40698524444641815,0.4604176800291428
25.662,25.31,0.44,0.37759021187077657,0.6739645111692126,0.38404122755354275,0.6758785356336926,0.40547681562062515,0.4613862236112388
25.766,25.36,0.46,0.37512069110213647,0.6740245047703775,0.3819876975159037,0.6756562936780084,0.404039566648093,0.4623621674029135
25.786,25.42,0.47,0.3726350412472102,0.6741021211906214,0.3800285355956835,0.6754679757882911,0.4026747381765632,0.4633455958341435
25.806,25.47,0.48,0.37013452556117976,0.6741980988275295,0.37816567171434623,0.6753142766475686,0.4013835311305636,0.46433658926448235
25.868,25.53,0.48,0.3676204329663402,0.6743131703397952,0.37640096541037626,0.6751958692778629,0.400167105860885,0.46533522355192997
25.91,25.58,0.49,0.3650940775570697,0.6744480618179188,0.3747362041469368,0.6751134041166592,0.39902658131230206,0.46634156961613216
25.973,25.64,0.47,0.3625567980679362,0.6746034919493754,0.3731731016800237,0.6750675080917782,0.3979630342099023,0.4673556929959545
26.036,25.69,0.46,0.3600099573045839,0.6747801711790702,0.3717132964886522,0.6750587836944631,0.39697749826446715,0.4683776534016522
26.139,25.75,0.47,0.35745494153706725,0.6749788008659685,0.37035835026853897,0.6750878080508093,0.39607096339740566,0.46940750426208594
26.161,25.8,0.43,0.35489315985533415,0.6752000724368467,0.36910974649067474,0.6751551319918445,0.3952443749857774,0.4704452922676003
26.201,25.86,0.4,0.35232604348661123,0.6754446665381357,0.3679688890261078,0.675261279122575,0.39449863312795463,0.47149105690923865
26.264,25.91,0.4,0.3497550450744976,0.6757132521868354,0.3669371008381649,0.6754067448902098,0.3938345919304627,0.4725448300148987
26.305,25.97,0.39,0.3471816379196433,0.6760064859214585,0.3660156227432337,0.6755919956516228,0.39325305881650274,0.4736066352828928
26.347,26.02,0.38,0.3446073151819579,0.6763250109539433,0.3652056122411041,0.6758174677399684,0.3927547938565964,0.47467648781324867
26.409,26.08,0.41,0.34203358904435616,0.6766694563234621,0.36450814241571866,0.6760835665303566,0.3923405091217306,0.47575439363698774
26.489,26.13,0.43,0.3394619898380974,0.6770404360530793,0.3639242009070574,0.6763906655045842,0.39201086805933216,0.47684034924359364
26.51,26.19,0.43,0.336894065129821,0.6774385483102608,0.36345468895481725,0.6767391053150655,0.39176648489239096,0.47793434110693445
26.571,26.24,0.44,0.33433137877041835,0.6778643745723123,0.3631004205145465,0.6771291928482475,0.39160792404208283,0.4790363452100227
26.632,26.3,0.46,0.3317755099059201,0.678318478797912,0.3628621214469331,0.6775612002879668,0.39153569957431944,0.48014632656911405
26.695,26.35,0.45,0.3292280519506331,0.6788014066059783,0.36274042878099694,0.6780353641793206,0.3915502746707508,0.48126423875772667
26.756,26.41,0.44,0.32669061152284423,0.679313684463156,0.362735890051973,0.6785518844936796,0.39165206112485285,0.4823900234312118
26.818,26.46,0.45,0.32416480734350456,0.6798558188812198,0.36284896271465056,0.6791109236955684,0.39184141886383167,0.48352360985249776
26.963,26.52,0.44,0.32165226909842637,0.680428295625674,0.3630800136328549,0.6797126058123689,0.39211865549716113,0.4846649144195985
26.983,26.57,0.4,0.319154636264641,0.6810315789367969,0.3634293186456143,0.6803570155082828,0.39248402589263137,0.4858138401954368
27.004,26.63,0.4,0.31667355690168664,0.6816661107643478,0.3638970622103937,0.6810441971645845,0.39293773178081093,0.48697027644052815
27.026,26.68,0.38,0.3142106864087189,0.6823323100171211,0.36448333712367487,0.6817741539686124,0.3934799213888256,0.48813409814909203
27.089,26.74,0.35,0.31176768624847917,0.6830305718285045,0.36518814431917535,0.682546847014,0.39411068910431174,0.489305165589215
27.149,26.79,0.36,0.3093462226392797,0.68376126683917,0.36601139274408917,0.6833621944145047,0.39483007517033714,0.4904833238477502
27.232,26.85,0.37,0.30694796521627127,0.6845247404980299,0.36695289931383646,0.6842200704336725,0.39563806541200164,0.4916684023806548
27.253,26.9,0.35,0.30457458566333934,0.6853213123825909,0.3680123889458431,0.6851203046325637,0.3965345909953634,0.49286021456947615
27.294,26.96,0.35,0.3022277563170554,0.6861512755398594,0.36918949467282614,0.6860626810378828,0.3975195282192863,0.4940585572847632
27.357,27.01,0.38,0.2999091487441796,0.687014895848958,0.370483757835965,0.687046937333048,0.3985926983407843,0.4952632104573533
27.42,27.07,0.38,0.2976204322942989,0.6879124114066147,0.371894628358269,0.6880727640748773,0.3997538674344385,0.4964739366587355
27.482,27.12,0.37,0.2953632726292778,0.6888440319366608,0.37342146509842367,0.6891398039385749,0.4010027462864761,0.49769048069196
27.523,27.18,0.39,0.2931393302312985,0.6898099382246348,0.37506353628540645,0.6902476509935945,0.4023389903241314,0.4989125691947095
27.607,27.23,0.38,0.2909502588913789,0.6908102815785386,0.37682002003421483,0.6913958500127524,0.40376219958095855,0.5001399102561845
27.628,27.29,0.35,0.28879770418037914,0.6918451833167256,0.378690004943147,0.692583895816711,0.40527191869880363,0.5013721930494327
27.669,27.34,0.34,0.2866833019046318,0.6929147342838448,0.38067249077316917,0.6938112326558035,0.4068676369671697,0.5026090874807827
27.73,27.4,0.33,0.28460867654843763,0.6940189943957129,0.38276638920995126,0.6950772536311962,0.40854878840070397,0.5038502438581214
27.794,27.45,0.29,0.28257543970576204,0.6951579922139577,0.38497052470914084,0.6963813001575339,0.4103147518554975,0.5050952925798834
27.856,27.51,0.27,0.28058518850351993,0.6963317245512726,0.38728363542534927,0.6977226614694652,0.4121648511848113,0.5063438438467494
27.918,27.56,0.3,0.2786395040188533,0.6975401561081522,0.38970437422514387,0.6991005741747504,0.4140983554347383,0.5075954873981272
27.96,27.62,0.28,0.276739949692792,0.6987832191419922,0.3922313097841076,0.7005142218568513,0.4161144790801885,0.5088497922754825
28.021,27.67,0.28,0.27488806974266017,0.7000608131694148,0.3948629277677883,0.7019627347298966,0.4182123823014681,0.5101063066145106
28.063,27.73,0.3,0.27308538757556056,0.7013728047025969,0.3975976320961253,0.7034451893487434,0.4203911713016337,0.5113645574680198
28.105,27.78,0.31,0.27133340420524854,0.7027190270202344,0.4004337462907514,0.7049606083765946,0.4226498986647533,0.5126240506612795
28.189,27.84,0.29,0.26963359667469905,0.7040992799736389,0.40336951490439316,0.7065079604124669,0.42498756375517477,0.5138842706815282
28.229,27.89,0.31,0.26798741648665875,0.7055133298283353,0.406403105031397,0.7080861598809723,0.4274031131578921,0.5151446806033595
28.374,27.95,0.34,0.2663962880444549,0.7069609091414654,0.4095326078982051,0.7096940669873254,0.42989544116009176,0.5164047220517963
28.413,28.0,0.32,0.2648616071053175,0.7084417166752565,0.41275604053241516,0.7113304877409669,0.4324633902739565,0.5176638152049826
28.434,28.06,0.32,0.2633847392484483,0.7099554173468086,0.41607134750888086,0.7129941740515079,0.4351057518008062,0.5189213588385165
28.455,28.11,0.33,0.2619670183600552,0.711501642214464,0.419476402771158,0.714683823900829,0.43782126643666286,0.5201767304134292
28.496,28.17,0.3,0.26060974513756296,0.7130799885010378,0.42296901152643257,0.7163980815950851,0.44060862491933683,0.5214292862096446
28.559,28.22,0.27,0.259314185615221,0.714690019654183,0.4265469122119005,0.7181355381000992,0.4434664687171143,0.5226783615064587
28.621,28.28,0.27,0.25808156971332574,0.7163312654441467,0.43020777853036096,0.7198947314631854,0.44639339075907825,0.5239232708111533
28.702,28.33,0.27,0.2569130898132506,0.7180032220990774,0.43394922155257626,0.7216741473238985,0.4493879362070022,0.5251633081363947
28.724,28.39,0.25,0.2558098993604432,0.7197053524778743,0.43776879188370915,0.7234722195156179,0.45244860326862085,0.5263977473266352
28.784,28.44,0.28,0.25477311149751075,0.7214370862802985,0.44166398189092304,0.7252873307593722,0.4555738440519353,0.5276258424333469
28.825,28.5,0.29,0.25380379772948847,0.7231978202937704,0.44563222798902685,0.7271178134508841,0.45876206546008064,0.5288468281385932
28.888,28.55,0.28,0.2529029866233461,0.7249869186760124,0.44967091298092365,0.7289619505414514,0.4620116301261862,0.5300599202262126
28.949,28.61,0.29,0.2520716625437232,0.7268037132725187,0.45377736844956124,0.7308179765129952,0.46532085738759654,0.5312643160997781
28.992,28.66,0.31,0.2513107644267984,0.7286475039677335,0.45794887719807537,0.7326840784473865,0.46868802429877676,0.5324591953464867
29.075,28.72,0.31,0.25062118459411076,0.7305175590687595,0.46218267573483934,0.7345583971899584,0.4721113666821917,0.5336437203461563
29.094,28.77,0.31,0.25000376760804693,0.7324131157203935,0.4664759568001394,0.7364390286069004,0.4755890802164126,0.5348170369245114
29.157,28.83,0.33,0.24945930917060383,0.7343333803502751,0.47082587193118447,0.7383240249360146,0.4791193215606748,0.5359782750498752
29.217,28.88,0.31,0.24898855506694337,0.7362775291429186,0.475229534062136,0.7402113962300106,0.48270020951507614,0.5371265495722508
29.28,28.94,0.29,0.24859220015519123,0.7382447085413605,0.4796840201558103,0.7420991118911044,0.48632982621556303,0.5382609610036044
29.342,28.99,0.29,0.2482708874038737,0.7402340357751123,0.48418637386365543,0.7439851022952501,0.49000621836278746,0.5393805963379817
29.465,29.05,0.29,0.24802520697833647,0.7422445994130649,0.4887336082105764,0.7458672605039106,0.49372739848383257,0.5404845299099331
29.486,29.1,0.28,0.24785569537743227,0.7442754599399597,0.493322708301149,0.7477434440608846,0.49749134622568364,0.5415718242896048
29.508,29.16,0.31,0.24776283462167856,0.7463256503550458,0.49795063404372747,0.7496114768714858,0.501296009679189,0.5426415312127578
29.547,29.21,0.34,0.24774705149397389,0.7483941767915722,0.5026143228888843,0.7514691511613546,0.5051393067321183,0.54369269254387
29.61,29.27,0.34,0.24780871683384714,0.7504800191558074,0.5073106925785679,0.7533142295122347,0.5090191264498278,0.544724341270345
29.692,29.32,0.37,0.2479481448861058,0.7525821317843215,0.5120366439023325,0.7551444469721147,0.5129333304819663,0.5457355025257389
29.732,29.38,0.41,0.24816559270466454,0.7546994441182998,0.5167890634569946,0.7569575132371827,0.5168797544936372,0.5467251946398101
29.815,29.43,0.42,0.24846125961228221,0.7568308613936753,0.5215648264061135,0.7587511149029866,0.5208562096194345,0.5476924302131015
29.836,29.49,0.43,0.24883528671691263,0.7589752653458722,0.5263607992357501,0.760522917782024,0.5248604839387943,0.5486362172136803
29.878,29.54,0.46,0.24928775648536652,0.7611315149279386,0.5311738425030634,0.7622705692847273,0.5288903439711362,0.549555560093586
29.941,29.6,0.47,0.24981869237497856,0.7632984470408521,0.5360008135744158,0.7639917008604787,0.5329435361893055,0.5504494609224853
30.003,29.65,0.46,0.25042805852396127,0.7654748772747795,0.5408385693498111,0.7656839304949433,0.5370177885498495,0.5513169205360067
30.045,29.71,0.47,0.25111575950108117,0.7676596006601148,0.5456839689706251,0.7673448652598079,0.5411108120386819,0.5521569396962547
30.108,29.76,0.47,0.25188164011521186,0.7698513924271905,0.5505338765076934,0.7689721039110184,0.5452203022306864,0.5529685202620359
30.168,29.82,0.47,0.2527254852852079,0.7720490087736661,0.5553851636269129,0.7705632395317169,0.549343940861784,0.5537506663663996
30.21,29.87,0.49,0.2536470199704131,0.7742511876387168,0.5602347122295692,0.7721158622162261,0.553479397411939,0.5545023855991683
30.251,29.93,0.53,0.2546459091619814,0.7764566494832666,0.565079417064637,0.7736275617915054,0.5576243306975037,0.5552226901922026
30.314,29.98,0.55,0.25572175793506685,0.7786640980756199,0.5699161883103446,0.7750959305724274,0.5617763904712426,0.5559105982051598
30.375,30.04,0.57,0.25687411156184153,0.7808722212819263,0.5747419541223292,0.7765185661470333,0.5659332190283336,0.5565651347095067
30.437,30.09,0.61,0.25810245568525464,0.7830796918609481,0.5795536631457574,0.7778930741877498,0.5700924528166541,0.557185332968537
30.54,30.15,0.64,0.25940621655347473,0.7852851682625603,0.5843482869888504,0.7792170712844211,0.5742517240496982,0.5577702356111298
30.562,30.2,0.65,0.26078476131502404,0.7874872954293504,0.5891228226553529,0.780488187794899,0.5784086623205352,0.5583188957970493
30.605,30.26,0.69,0.2622373983746438,0.7896847056006334,0.593874294933606,0.7817040707089066,0.5825608962152904,0.5588303783716908
30.645,30.31,0.71,0.2637633778098854,0.7918760191182358,0.5985997587400147,0.7828623865209552,0.5867060549247008,0.5593037610083131
30.708,30.37,0.71,0.26536189184832376,0.7940598452334627,0.6032963014148509,0.7839608241082184,0.590841769852381,0.5597381353359376
30.75,30.42,0.71,0.26703207540518065,0.796234782914762,0.6079610449684794,0.7849970976094519,0.5949656762185034,0.5601326080512181
30.812,30.48,0.71,0.2687730066810291,0.7983994216556729,0.6125911482762176,0.7859689493012545,0.5990754146576545,0.5604863020126947
30.935,30.53,0.7,0.27058370781916075,0.800552342282709,0.6171838092201523,0.7868741524680881,0.6031686328096603,0.5607983573159521
30.957,30.59,0.71,0.2724631456221073,0.8026921177628591,0.6217362667763164,0.7877105142624656,0.6072429869021546,0.561067932348348
30.977,30.64,0.76,0.2744102323267147,0.8048173140104192,0.6262458030456807,0.7884758785515952,0.6112961433236169,0.5612942048221551
31.059,30.7,0.79,0.2764238264370837,0.8069264906928708,0.6307097452274333,0.7891681287465386,0.6153257801855423,0.5614763727851275
31.079,30.75,0.81,0.27850273361462247,0.8090182020355124,0.6351254675330341,0.7897851906096888,0.619329588872367,0.5616136556076298
31.141,30.81,0.85,0.28064570762439256,0.8110909976245598,0.6394903930395359,0.7903250350361777,0.6233052755777805,0.5617052949455089
31.202,30.86,0.87,0.28285145133687223,0.8131434232084468,0.6438019954807204,0.790785680804763,0.6272505628261337,0.5617505556778621
31.284,30.92,0.88,0.28511861778420067,0.8151740214971368,0.648057800974695,0.7911651972937713,0.6311631909777474,0.5617487268188116
31.306,30.97,0.9,0.2874458112698981,0.8171813329593416,0.6522553896867335,0.791461707157841,0.6350409197170379,0.5616991224023972
31.386,31.03,0.94,0.28983158853098245,0.8191638966176544,0.6563923974262789,0.7916733889614582,0.6388815295224701,0.5616010823397474
31.407,31.08,0.93,0.2922744599513319,0.8211202508416944,0.660466517177174,0.7917984797654841,0.642682823117429,0.5614539732477744
31.469,31.14,0.93,0.29477289082508146,0.8230489341394243,0.6644755005603105,0.7918352776630156,0.6464426269011704,0.5612571892486781
31.53,31.19,0.95,0.2973253026687785,0.8249484859468496,0.6684171592279697,0.7917821442610111,0.6501587923590686,0.5610101527395349
31.592,31.25,0.95,0.29993007458096704,0.8268174474163255,0.6722893661891854,0.7916375071041454,0.6538291974514229,0.5607123151311999
31.654,31.3,0.93,0.30258554464780923,0.8286543622036854,0.6760900570654845,0.7913998620372953,0.6574517479800942,0.5603631575557327
31.714,31.36,0.96,0.3052900113932665,0.8304577772543738,0.679817231276368,0.7910677755029935,0.6610243789322315,0.5599621915415738
31.735,31.41,0.98,0.3080417352722465,0.8322262435886885,0.6834689531539163,0.7906398867701221,0.6645450558003209,0.5595089596557065
31.796,31.47,0.98,0.3108389402049742,0.8339583170861228,0.6870433529859503,0.7901149100900414,0.6680117758777537,0.5590030361120748
31.856,31.52,1.0,0.31367981515068377,0.8356525592686267,0.6905386279872611,0.7894916367763,0.6714225695290876,0.5584440273455776
31.921,31.58,1.03,0.31656251571856525,0.8373075380824352,0.6939530431985383,0.7887689372040925,0.67477550143418,0.5578315725510268
32.043,31.63,1.03,0.319485165813763,0.8389218286779475,0.6972849323127687,0.7879457627257309,0.678068671805398,0.5571653441865513
32.083,31.69,1.05,0.3224458593160962,0.8404940141870081,0.7005326984290187,0.787021147498614,0.6813002175771371,0.5564450484410615
32.104,31.74,1.08,0.32544266178906234,0.8420226864968441,0.7036948147336557,0.7859942102224711,0.6844683135669186,0.5556704256655322
32.123,31.8,1.08,0.32847361221660304,0.8435064470198416,0.706769825109172,0.7848641557829271,0.6875711736073756,0.5548412507680069
32.187,31.85,1.07,0.331536724765057,0.8449439074582614,0.7097563446708929,0.7836302767986103,0.6906070516484704,0.5539573335723229
32.248,31.91,1.08,0.3346299905676923,0.8463336905629525,0.7126530602319422,0.7822919550691163,0.6935742428293283,0.5530185191406298
32.311,31.96,1.08,0.3377513795291948,0.8476744308850773,0.7154587306969494,0.780848662921153,0.6964710845190988,0.5520246880598138
32.394,32.02,1.1,0.3408988421474813,0.8489647755198809,0.718172187385093,0.779299964450149,0.6992959573262532,0.5509757566920093
32.415,32.07,1.11,0.344070311350179,0.8502033848415844,0.7207923342831782,0.777645516654669,0.7020472860757135,0.5498716773894733
32.477,32.13,1.14,0.34726370434308296,0.851388933228593,0.7233181482295284,0.7758850704611532,0.7047235407531742,0.5487124386740679
32.52,32.18,1.15,0.3504769244678871,0.8525201097783341,0.7257486790295199,0.7740184716367615,0.7073232374159725,0.5474980653814214
32.561,32.24,1.17,0.3537078630664988,0.8535956190111778,0.7280830495036199,0.7720456615884115,0.7098449390698768,0.5462286187695564
32.665,32.29,1.21,0.3569544013492899,0.8546141815630354,0.7303204554687933,0.7699666780464619,0.7122872565112026,0.5449041965915402
32.687,32.35,1.22,0.3602144122647177,0.8555745348663549,0.7324601656541769,0.7677816556317778,0.7146488491337215,0.5435249331315957
32.749,32.4,1.22,0.3634857623678623,0.8564754338193123,0.7345015215519937,0.7654908263050602,0.7169284256999086,0.5420909992040682
32.812,32.46,1.24,0.36676631368554535,0.8573156514430499,0.7364439372047834,0.7630945196974158,0.7191247450761526,0.540602602114627
32.833,32.51,1.25,0.3700539255758086,0.8580939795268164,0.7382868989301469,0.7605931633212037,0.7212366169316471,0.5390599855830545
32.894,32.57,1.24,0.3733464565796322,0.8588092292608386,0.7400299649843205,0.7579872826603073,0.7232629024007402,0.5374634296270241
32.957,32.62,1.24,0.37664176626286,0.8594602318567317,0.741672765165994,0.7552775011392436,0.7252025147085803,0.5358132504063602
33.018,32.68,1.25,0.379937717046354,0.8600458391552641,0.7432150003618433,0.7524645399708905,0.7270544197599137,0.5341098000274069
33.122,32.73,1.22,0.383232176022467,0.8605649242213181,0.7446564420353109,0.7495492178830198,0.7288176366908914,0.5323534663072651
33.141,32.79,1.22,0.38652301675597556,0.8610163819259488,0.7459969316601885,0.7465324507242147,0.7304912383837224,0.5305446724977582
33.204,32.84,1.24,0.38980812106767354,0.8613991295155016,0.7472363801005318,0.7434152509501453,0.7320743519439704,0.5286838769690657
33.223,32.9,1.25,0.3930853807988989,0.8617121071678053,0.7483747669383853,0.7401987269914498,0.7335661591402286,0.5267715728529783
33.306,32.95,1.26,0.3963526995553545,0.8619542785354942,0.7494121397507008,0.7368840825045712,0.734965896805854,0.5248082876457215
33.388,33.01,1.3,0.3996079944286978,0.86212463127653,0.7503486133367285,0.7334726155068708,0.7362728572023972,0.5227945827702473
33.408,33.06,1.31,0.4028491976945081,0.8622221775720178,0.7511843688970979,0.7299657173971981,0.7374863883443721,0.5207310530977939
33.492,33.12,1.29,0.406074258485392,0.8622459546314438,0.7519196531657953,0.7263648718628697,0.7386058942850543,0.518618326428459
33.512,33.17,1.31,0.4092811444381238,0.8621950251855423,0.7525547774962856,0.7226716536738875,0.739630835363062,0.516457062930578
33.554,33.23,1.34,0.4124678433138509,0.8620684779671274,0.7530901169030885,0.7188877273652732,0.7405607284095298,0.514247954538943
33.616,33.28,1.34,0.41563236459051756,0.8618654281803614,0.7535261090602047,0.7150148458085916,0.7413951469157313,0.5119917243123098
33.739,33.34,1.33,0.41877274102677314,0.8615850179590798,0.7538632532578693,0.7110548486740251,0.7421337211610319,0.5096891257511514
33.759,33.39,1.35,0.42188703019670404,0.8612264168148878,0.7541021093191601,0.7070096607847233,0.7427761383010814,0.5073409420770152
33.78,33.45,1.34,0.4249733159947898,0.8607888220757711,0.7542432964780326,0.7028812903654837,0.7433221424161928,0.5049479854750666
33.862,33.5,1.31,0.42802971011052016,0.860271459315938,0.7542874922203509,0.6986718271880159,0.7437715345198767,0.5025110963014965
33.883,33.56,1.32,0.4310543534721406,0.8596735827775197,0.7542354310894617,0.6943834406150746,0.744124172527495,0.5000311422574295
33.944,33.61,1.33,0.43404541765902244,0.8589944757846859,0.7540879034578022,0.6900183775456592,0.7443799711849862,0.4975090175308463
34.005,33.67,1.33,0.43700110628216615,0.8582334511506343,0.7538457542659593,0.6855789602633523,0.7445389019575568,0.49494564190787316
34.068,33.72,1.37,0.43991965633233937,0.8573898515778702,0.753509881730506,0.6810675841898479,0.7446009928781936,0.49234195985468154
34.108,33.78,1.39,0.44279933949531985,0.8564630500521643,0.7530812360218754,0.6764867155457993,0.7445663283558246,0.4896989395712302
34.235,33.83,1.4,0.4456384634337034,0.8554524502305736,0.7525608179135358,0.6718388889212589,0.7444350489429679,0.48701757201815304
34.255,33.89,1.42,0.44843537303474273,0.8543574868239168,0.7519496774037663,0.6671267047581948,0.744207351062774,0.484298869918214
34.296,33.94,1.46,0.45118845162372273,0.853177625974098,0.7512489123113949,0.6623528267478482,0.7438834866954545,0.48154386673386246
34.317,34.0,1.46,0.4538961221424357,0.851912365626672,0.7504596668469327,0.657519979145919,0.743463763024204,0.4787536156224955
34.379,34.05,1.46,0.45655684829240484,0.8505612358990207,0.749583130160599,0.6526309440087026,0.7429485420408356,0.4759291883710824
34.441,34.11,1.48,0.4591691356425999,0.8491237994444828,0.7486205348687873,0.64768855835334,0.7423382401114684,0.4730716743118092
34.503,34.16,1.48,0.4617315327015,0.8475996518127399,0.7475731555605851,0.6426957112452796,0.7416333275027164,0.4701821792204078
34.605,34.22,1.45,0.4642426319534758,0.8459884218067248,0.7464423072859968,0.6376553408159917,0.7408343278689187,0.46726182419884577
34.626,34.27,1.44,0.4667010708595349,0.8442897718363092,0.7452293440275379,0.6325704312140426,0.7399418177010173,0.4643117445441149
34.666,34.33,1.45,0.4691055328224934,0.84250339826903,0.7439356571568306,0.627444009492883,0.7389564257377307,0.4613330886049102
34.728,34.38,1.45,0.4714547481165923,0.8406290317781122,0.7425626738777878,0.6222791424390463,0.7378788323396671,0.4583270166280409
34.77,34.44,1.46,0.47374749478148637,0.838666437688017,0.7411118556579228,0.6170789333448196,0.7367097688270142,0.4552946995964357
34.832,34.49,1.5,0.4759825994804334,0.8366154163176865,0.7395846966492923,0.6118465187297633,0.7354500167814207,0.4522373180605899
34.873,34.55,1.49,0.4781589383224428,0.8344758033215763,0.7379827221006078,0.6065850650155601,0.7341004073127151,0.44915606096525074
34.977,34.6,1.49,0.4802754376481108,0.8322474700284576,0.73630748676211,0.601297765158606,0.7326618202911583,0.4460521244730751
35.019,34.66,1.52,0.4823310747788765,0.829930323777865,0.7345605732848797,0.5959878352445865,0.73113518354602,0.44292671078694057
35.059,34.71,1.53,0.48432487872946356,0.8275243082539586,0.7327435906163365,0.5906585110490898,0.7295214720313669,0.43978102697256716
35.101,34.77,1.52,0.4862559308833194,0.825029403816487,0.7308581723937587,0.5853130445681172,0.7278217069600538,0.4366162837831535
35.163,34.82,1.53,0.48812336563088377,0.8224456278285196,0.7289059753377128,0.5799547005222617,0.726036954906999,0.43343369448782515
35.225,34.88,1.53,0.4899263709705071,0.8197730349806469,0.7268886776473583,0.5745867528383461,0.7241683268829325,0.43023447370579154
35.328,34.93,1.5,0.4916641890718044,0.8170117176114101,0.7248079773996544,0.569212481112414,0.7222169773798899,0.4270198362481845
35.348,34.99,1.47,0.4933361168011815,0.8141618060237839,0.722665590954567,0.5638351670581649,0.7201841033898064,0.42379099596960307
35.39,35.04,1.46,0.4949415062092289,0.8112234687975753,0.7204632513684002,0.5584580909451423,0.7180709433976002,0.4205491646313667
35.451,35.1,1.44,0.49647976497967017,0.8081969130975866,0.7182027068173753,0.5530845280310948,0.7158787763501315,0.41729555077838804
35.513,35.15,1.42,0.4979503568395449,0.8050823849773372,0.71588571903351,0.5477177449929413,0.7136089206023819,0.4140313586314041
35.537,35.21,1.45,0.4993528019303259,0.8018801696780695,0.7135140617546927,0.5423609963607547,0.711262732842124,0.4107577869960994
35.596,35.26,1.46,0.5006866771396868,0.7985905919226668,0.7110895191906248,0.5370175209591772,0.7088416069942882,0.4074760281904429
35.699,35.32,1.45,0.5019516163936807,0.7952140162040334,0.7086138845060733,0.5316905383606937,0.7063469731062004,0.404187266991414
35.72,35.37,1.47,0.5031473109091192,0.7917508470674232,0.7060889583227236,0.5263832453552291,0.7037802962148844,0.40089267960219316
35.761,35.43,1.47,0.5042735094059713,0.7882015293861763,0.7035165472408581,0.5210988124406238,0.7011430751976921,0.3975934326408325
35.822,35.48,1.46,0.5053300182796119,0.7845665486303324,0.7008984623821328,0.5158403803386398,0.6984368416076047,0.39429068215139007
35.864,35.54,1.45,0.5063167017327497,0.7808464311275974,0.6982365179548017,0.510611056541245,0.6956631584946474,0.3909855726385066
35.927,35.59,1.45,0.5072334818668375,0.777041744316127,0.6955325298428412,0.5054139118920491,0.6928236192149336,0.38767923612638155
35.968,35.65,1.41,0.508080338732749,0.7731530969885287,0.6927883142205018,0.500251977207797,0.6899198462289149,0.38437279124301926
36.051,35.7,1.37,0.5088573103404846,0.7691811395263729,0.6900056861938837,0.4951282399447744,0.6869534898904448,0.38106734233049644
36.092,35.76,1.34,0.5095644926276361,0.7651265641243901,0.6871864584711486,0.4900456409148286,0.6839262272282606,0.37776397858187155
36.135,35.81,1.31,0.5102020393863274,0.7609901050034177,0.6843324400629746,0.4850070710554662,0.6808397607214377,0.37446377320526064
36.196,35.87,1.28,0.5107701621483373,0.756772538611076,0.6814454350147989,0.4800153682582074,0.6776958170702698,0.3711677826155641
36.259,35.92,1.29,0.511269130028095,0.7524746838090864,0.6785272411722844,0.4750733142591623,0.6744961459638936,0.36787704565431756
36.341,35.98,1.27,0.5116992695232258,0.7480974020461281,0.675579648981317,0.47018363159565335,0.6712425188458322,0.3645925828381216
36.361,36.03,1.27,0.512060964272304,0.7436415975151123,0.6726044403237349,0.46534898063258096,0.667936727678514,0.36131539563607423
36.423,36.09,1.27,0.5123546547694636,0.7391082172937762,0.6696033873899283,0.4605719566621344,0.6645805837077359,0.35804646577660865
36.505,36.14,1.29,0.5125808380354805,0.7344982514674954,0.6665782515894191,0.4558550870803636,0.66117591622801,0.35478675458411857
36.525,36.2,1.29,0.5127400672449428,0.729812733233203,0.6635307825005389,0.4512008286439882,0.6577245713497101,0.35153720234571556
36.588,36.25,1.27,0.5128329513091274,0.7250527389832501,0.6604627168603422,0.44661156481058417,0.6542284107689641,0.3482987277084032
36.63,36.31,1.27,0.5128601544142558,0.7202193883679548,0.6573757775958747,0.4420896031650272,0.650689310541279,0.34507222710686486
36.693,36.36,1.26,0.5128223955148761,0.7153138443354774,0.6542716728978455,0.4376371729348341,0.6471091598599344,0.3418585742219622
36.794,36.42,1.22,0.5127204477822355,0.7103373131475339,0.6511520953376254,0.433256422596857,0.6434898598402232,0.3386586194699637
36.814,36.47,1.19,0.5125551380076079,0.7052910443693515,0.6480187210283381,0.4289494175776768,0.6398333223106267,0.3354731895224718
36.855,36.53,1.16,0.5123273459606297,0.7001763308321964,0.6448732088306666,0.42471813805001435,0.6361414686119886,0.3323030868569984
36.916,36.58,1.12,0.5120380037027397,0.6949945085667967,0.6417171996038643,0.4205644768275031,0.6324162284056858,0.3291490893381671
36.977,36.64,1.11,0.5116880948558384,0.6897469567060092,0.6385523155023077,0.41649023736028185,0.6286595384916843,0.32601194982959275
37.019,36.69,1.12,0.511278653826283,0.6844350973551339,0.6353801593177436,0.41249713183400316,0.6248733416372327,0.32289239583655077
37.08,36.75,1.12,0.5108107649843544,0.6790603954283237,0.6322023138672183,0.40858677937486204,0.621059585416806,0.3197911291795649
37.185,36.8,1.11,0.5102855617993867,0.6736243584495757,0.6290203414265174,0.40476070436305744,0.6172202210638084,0.3167088256989946
37.205,36.86,1.13,0.5097042259308188,0.6681285363168289,0.6258357832088421,0.40102033485677124,0.6133572023344885,0.31364613499059407
37.247,36.91,1.12,0.5090679862755432,0.6625745210277452,0.6226501588883704,0.3973670011283647,0.6094724843845155,0.3106036801718682
37.289,36.97,1.1,0.508378117972033,0.6569639463658032,0.6194649661683099,0.39380193431417543,0.6055680226586886,0.30758205767891295
37.351,37.02,1.1,0.5076359413618341,0.6512984875454421,0.6162816803930133,0.390326265179148,0.6016457717942936,0.3045818370933354
37.413,37.08,1.08,0.5068428209090644,0.6455798608151218,0.613101754203684,0.3869410229975247,0.5977076845386496,0.30160356099879354
37.455,37.13,1.05,0.50600016407861,0.6398098230173308,0.6099266172371987,0.3836471345508408,0.5937557106814159,0.29864774486670487
37.518,37.19,1.02,0.5051094201737225,0.6339901711047407,0.6067576758675515,0.380445423244477,0.5897917960022181,0.29571487697072896
37.601,37.24,1.0,0.5041720791337421,0.6281227416118663,0.6035963129894041,0.3773366083439966,0.5858178812341193,0.29280541832969986
37.641,37.3,0.95,0.5031896702926931,0.6222094100817267,0.6004438878431861,0.3743213043323861,0.581835901043385,0.2899198026787422
37.702,37.35,0.92,0.5021637610995173,0.6162520904470746,0.5973017358811142,0.3714000203891578,0.5778477830258871,0.28705843646830553
37.786,37.41,0.94,0.5010959558006995,0.6102527343657885,0.594171168673362,0.3685731599921352,0.5738554467203553,0.28422169889077176
37.806,37.46,0.93,0.4999878940860114,0.604213330509972,0.5910534738534303,0.3658410206425405,0.5698608026385357,0.2814099419341284
37.889,37.52,0.91,0.4988412496980506,0.5981359038082206,0.587949915101597,0.3632037937136864,0.5658657513121863,0.2786234904620259
37.91,37.57,0.92,0.4976577290062039,0.5920225146404482,0.5848617321651683,0.36066156442321534,0.5618721823567319,0.27586264231937985
37.951,37.63,0.93,0.49643906954562267,0.5858752579846392,0.5817901409141786,0.3582143119285773,0.5578819735513569,0.2731276684625923
38.012,37.68,0.92,0.4951870385217764,0.5796962625149321,0.5787363334311497,0.3558619095453214,0.553896989935293,0.27041881311346944
38.075,37.74,0.92,0.49390343128115965,0.5734876896505096,0.5757014781335539,0.3536041250877965,0.5499190829200664,0.26773629393599196
38.138,37.79,0.93,0.4925900697487873,0.5672517325548472,0.5726867199276375,0.35144062133193893,0.545950089417485,0.26508030223517287
38.178,37.85,0.9,0.49124880083324657,0.5609906150849036,0.5696931803923165,0.34937095659982476,0.5419918309831799,0.2624510031772735
38.26,37.9,0.87,0.4898814948002361,0.554706590689858,0.5667219579918769,0.3473945854655039,0.5380461129755457,0.2598485360306229
38.281,37.96,0.86,0.4884900436156691,0.5484019412590263,0.5637741283162361,0.34551085958131234,0.5341147237299477,0.25727301442622297
38.342,38.01,0.84,0.4870763592595223,0.5420789759186414,0.5608507443475168,0.34371902862341946,0.530199433748057,0.2547245266372656
38.425,38.07,0.8,0.4856423720116855,0.5357400297772733,0.5579528367516583,0.3420182413549366,0.526301994902134,0.2522031358766755
38.445,38.12,0.82,0.48419002871110656,0.5293874626197856,0.5550814141937114,0.3404075468046332,0.5224241396540001,0.2497088806118183
38.507,38.18,0.83,0.48272129098955524,0.5230236575499055,0.5522374636753423,0.3388858955592335,0.5185675802883518,0.2472417748955501
38.632,38.23,0.83,0.481238133481365,0.5166510195816787,0.5494219508929447,0.33745214116731637,0.5147340081599888,0.24480180871283708
38.652,38.29,0.83,0.4797425420105669,0.5102719741803299,0.546635820614628,0.33610504165299965,0.5109250929544809,0.2423889483422615
38.672,38.34,0.85,0.478236511756899,0.5038889657532787,0.5438799970742583,0.33484326113771207,0.5071424819618102,0.2400031367318116
38.734,38.4,0.84,0.47672204540226504,0.4975044560922804,0.5411553843807074,0.3336653715683166,0.5033877993625754,0.2376442938884234
38.775,38.45,0.83,0.4752011512593094,0.49112092276781083,0.5384628669405044,0.33256985454961513,0.49966264552642226,0.23531231728077973
38.837,38.51,0.83,0.47367584138384905,0.48474085747690393,0.5358033098921201,0.3315551032789641,0.4959685963224446,0.233007082254862
38.9,38.56,0.82,0.47214812967294884,0.4783667643456747,0.5331775595501479,0.33061942458042964,0.49230720244136444,0.23072844246171803
39.0,38.62,0.78,0.4706200299504407,0.4720011581877464,0.5305864438576254,0.3297610410356781,0.48867998872934454,0.22847623029691116
39.022,38.67,0.78,0.46909355404168607,0.46564656271978394,0.5280307728446932,0.3289780932087343,0.4850884535333152,0.22625025735117674
39.065,38.73,0.75,0.4675707098393751,0.45930550873533593,0.5255113390917042,0.32826864196183136,0.4815340680576958,0.22405031487188448
39.106,38.78,0.71,0.46605349936215873,0.45298053223821094,0.5230289181948159,0.3276306708597193,0.478018275732377,0.22187617423496747
39.168,38.84,0.7,0.4645439168079,0.4466741725366521,0.5205842692320197,0.32706208865994035,0.4745424915917732,0.2197275874270013
39.233,38.89,0.72,0.463043946603311,0.44038897029961144,0.5181781352274787,0.3265607318866496,0.47110810166468997,0.2176042875370842
39.273,38.95,0.71,0.4615555614517413,0.43412746557644516,0.5158112436119818,0.3261243674854706,0.46771646237466924,0.2155059892581055
39.355,39.0,0.7,0.4600807203808961,0.42789219578136156,0.513484306677276,0.32575069555667757,0.46436889995040836,0.21343238939692788
39.375,39.06,0.72,0.45862136679229587,0.4216856936439628,0.5111980220219761,0.3254373521638339,0.46106670984582226,0.21138316739298266
39.437,39.11,0.72,0.4571794265143552,0.4155104851272374,0.5089530729866946,0.3251819122149359,0.4578111561693342,0.2093579858448169
39.5,39.17,0.71,0.4557568058610424,0.40936908731437877,0.5067501290759845,0.3249818924130972,0.45460347112202576,0.20735649104427786
39.542,39.22,0.72,0.4543553896981931,0.40326400626583986,0.5045898463646884,0.32483475427383723,0.4514448544443397,0.20537831351826014
39.603,39.28,0.73,0.45297703951964985,0.3971977348481101,0.5024728678863525,0.32473790720609236,0.44833647287109546,0.2034230685781938
39.666,39.33,0.71,0.4516235915354793,0.39117275053582024,0.5003998240014829,0.3246887116541329,0.4452794595946511,0.2014903568776712
39.746,39.39,0.69,0.45029685477456616,0.38519151318894973,0.4983713327435424,0.32468448229771313,0.442274913736116,0.19957976497878216
39.767,39.44,0.69,0.4489986092039188,0.37925646280710174,0.4963880001407041,0.3247224913079354,0.4393238998245839,0.1976908659278495
39.831,39.5,0.64,0.4477306038670824,0.3733700172629877,0.4944504205114877,0.3247999716563408,0.4364274472844041,0.1958232198413388
39.871,39.55,0.63,0.446494555044132,0.36753457001742834,0.49255917673252686,0.32491412047455354,0.4335865499305241,0.1939763745027664
39.934,39.61,0.65,0.4452921444357936,0.36175248781834407,0.4907148404768064,0.3250621024614402,0.43080216547192896,0.1921498659713915
39.996,39.66,0.66,0.4441250173743047,0.35602610838635945,0.48891797242081353,0.3252410533342124,0.428075215023169,0.19034321920332317
40.099,39.72,0.65,0.4429947810636735,0.350357738089805,0.48716912241913746,0.3254480833193349,0.42540658262394265,0.1885559486854149
40.12,39.77,0.67,0.4419030028520389,0.3447496496120552,0.4854688296451282,0.3256802806786742,0.4227971147667155,0.1867875590820187
40.182,39.83,0.69,0.4408512085388421,0.33920407961432836,0.4838176226963014,0.32593471526609424,0.4202476199324153,0.185037545894397
40.223,39.88,0.67,0.4398408807195271,0.33372322639727753,0.4822160196632994,0.32620844210961303,0.41775886813433943,0.18330539613240407
40.285,39.94,0.66,0.43887345717047266,0.32830924756491653,0.4806645281613815,0.32649850501423633,0.4153315904705265,0.18159058899795955
40.326,39.99,0.68,0.43795032927683886,0.32296425769464276,0.47916364532360706,0.3268019401806306,0.41296647868495745,0.17989259657977766
40.389,40.05,0.66,0.43707284050600687,0.31769032601731984,0.4777138577550884,0.32711577983475537,0.41066418473806593,0.17821088455875406
40.471,40.1,0.62,0.4362422849292918,0.3124894741115611,0.4763156414478897,0.3274370558633825,0.4084253203871247,0.1765449129233304
40.492,40.16,0.62,0.4354599057946126,0.30736367361650796,0.4749694616563323,0.3277628034501407,0.40625045677714733,0.17489413669403392
40.533,40.21,0.59,0.4347268941527911,0.3023148439675301,0.4736757727326205,0.3280900647063933,0.40414012404298894,0.17325800665622698
40.596,40.27,0.55,0.4340443875401106,0.2973448501593782,0.47243501792281456,0.32841589229097023,0.4020948109233435,0.17163597009994702
40.659,40.32,0.56,0.4334134687196465,0.2924555005414075,0.47124762912324103,0.32873735301265083,0.4001149643873158,0.1700274715655847
40.7,40.38,0.57,0.4328351644837088,0.28764854464954204,0.470114026597469,0.3290515314093425,0.3982009892742089,0.16843195359402657
40.762,40.43,0.56,0.43231044451955425,0.2829256710796778,0.46903461865401613,0.3293555332980639,0.39635324794712845,0.16684885747980038
40.823,40.49,0.55,0.4318402203403581,0.2782885054072423,0.4680098012849995,0.32964648929009344,0.394572059960982,0.16527762402573015
40.885,40.54,0.57,0.4314253442833298,0.27373860815764944,0.46703995776603763,0.32992155826591446,0.39285770174546913,0.1637176942976148
40.948,40.6,0.56,0.43106660857682316,0.2692774728324331,0.4661254582178558,0.3301779308047596,0.39121040630370624,0.1621685103774657
40.989,40.65,0.54,0.4307647444783257,0.264906523995922,0.46526665913024695,0.33041283256358106,0.3896303629271937,0.16062951611387397
41.03,40.71,0.55,0.43052042148526043,0.26062711542745,0.46446390284924843,0.33062352760020625,0.3881177169279013,0.15910015786810272
41.09,40.76,0.54,0.430334246620586,0.2564405283442596,0.46371751702860103,0.3308073216353456,0.3866725693883088,0.15757988525453334
41.215,40.82,0.5,0.43020676379519496,0.25234796970040985,0.4630278140467259,0.33096156524808956,0.3852949769302922,0.1560681518741596
41.234,40.87,0.48,0.430138453249089,0.24835057056710977,0.4623950903905755,0.33108365699969555,0.383984951503775,0.15456441603990398
41.276,40.93,0.46,0.4301297310732434,0.2444493845999749,0.46181962600779075,0.3311710464807818,0.38274246019608427,0.1530681414925957
41.338,40.98,0.44,0.43018094881397195,0.2406453865987292,0.46130168362864293,0.33122123727743746,0.38156742506293384,0.15157879810650324
41.358,41.04,0.44,0.43029239316146844,0.23693947116486466,0.4608415080592584,0.33123178985217044,0.38045972298191194,0.15009586258335975
41.421,41.09,0.48,0.4304642857240414,0.233332451462691,0.46043932544762367,0.3312003243360196,0.3794191855292957,0.1486188191338173
41.484,41.15,0.49,0.43069678288938223,0.2298250580890522,0.4600953425238948,0.3311245232284553,0.37844559888097223,0.14714716014521642
41.566,41.2,0.5,0.43098997577402415,0.22641793805672392,0.4598097458165974,0.33100213400190054,0.3775387037382544,0.14568038683450302
41.607,41.26,0.54,0.4313438902619802,0.2231116538961572,0.4595827008464538,0.3308309716078531,0.3766981952794493,0.14421800988511332
41.647,41.31,0.55,0.4317584871334042,0.21990668287983461,0.4594143512998044,0.3306089208817069,0.37592372313816436,0.1427595500666964
41.688,41.37,0.53,0.43223366228398363,0.21680341637307532,0.4593048181839116,0.3303339388434785,0.37521489140950093,0.1413045388366874
41.75,41.42,0.53,0.43276924703561137,0.21380215931470348,0.4592541989667658,0.3300040568918731,0.37457125868546154,0.13985251892295503
41.814,41.48,0.49,0.43336500853867976,0.21090312983055667,0.4592625667043383,0.3296173828894753,0.37399233812106314,0.1384030448869825
41.873,41.53,0.45,0.4340206502661067,0.20810645898236696,0.45932996915850954,0.3291721031372498,0.37347759753277093,0.13695568366727115
41.936,41.59,0.41,0.434735812598961,0.20541219065408461,0.45945642790912683,0.32866648423697037,0.3730264595309349,0.13551001510286828
41.978,41.64,0.38,0.4355100735032975,0.20282028157725066,0.45964193746379417,0.32809887484061967,0.37263830168789774,0.1340656324370957
42.039,41.7,0.32,0.43634294929755607,0.20033060149652848,0.4598864643690839,0.327467707286141,0.37231245674336777,0.13262214280169116
42.102,41.75,0.29,0.4372338955096198,0.19794293347597527,0.4601899463268647,0.32677149911911296,0.3720482128485126,0.13117916768165705
42.144,41.81,0.3,0.438182307822355,0.1956569743460686,0.46055229131938025,0.3260088544999703,0.3718448138500613,0.12973634336111867
42.206,41.86,0.3,0.4391875231061911,0.19347233529091745,0.4609733767466058,0.3251784654962948,0.37170145961551126,0.1282933213504386
42.307,41.92,0.28,0.44024882053701175,0.19138854257449586,0.4614530485792987,0.32427911325954917,0.37161730640035934,0.12684976879476112
42.329,41.97,0.28,0.44136542279733537,0.18940503840417447,0.4619911205310602,0.32330966908557907,0.37159146725814907,0.12540536886410109
42.369,42.03,0.28,0.44253649735845224,0.18752118192930503,0.4625873732526595,0.32226909535832177,0.3716230124940502,0.12395982112507131
42.43,42.08,0.25,0.4437611578409075,0.1857362503721509,0.4632415535518591,0.3211564463763668,0.37171097016265703,0.1225128418943848
42.471,42.14,0.23,0.4450384654504719,0.18404944028805897,0.46395337364198425,0.3199708690622566,0.37185432661066414,0.1210641645743598
42.533,42.19,0.23,0.4463674304865449,0.1824598689514309,0.4647225104225082,0.31871160355463757,0.3720520270650481,0.11961353997072897
42.574,42.25,0.2,0.4477470139197906,0.180966575863769,0.46554860479495624,0.31737798368346093,0.37230297626732656,0.11816073659307574
42.657,42.3,0.16,0.44917612903569254,0.1795685243798221,0.46643126101744325,0.3159694373284592,0.3726060391543906,0.11670554093819771
42.679,42.36,0.14,0.4506536431406308,0.17826460344762973,0.4673700461010734,0.314485486661277,0.3729600415863028,0.11524775775663422
42.74,42.41,0.1,0.4521783793270117,0.1770536294580587,0.46836448925124574,0.31292574827200614,0.37336377112133434,0.1137872103025055
42.822,42.47,0.07,0.45374911829392717,0.1759343481992453,0.4694140813566315,0.3112899331813776,0.3738159778383587,0.11232374056673909
42.842,42.52,0.07,0.4553646002197532,0.17490543691120902,0.4705182745282914,0.3095778467403338,0.3743153752065366,0.11085720949372313
42.904,42.58,0.09,0.45702352668306434,0.17396550643578754,0.4716764816911167,0.3077893884190332,0.37486064100202554,0.109387497181425
42.966,42.63,0.1,0.45872456262821754,0.17311310345695227,0.4728880762295362,0.30592455148751574,0.37545041827124465,0.10791450306503897
43.049,42.69,0.09,0.46046633837197765,0.17234671282650377,0.4741523916892467,0.30398342259035266,0.37608331634007375,0.10643814608425571
43.07,42.74,0.1,0.4622474516475784,0.17166475997010258,0.4754687215365986,0.30196618121763585,0.3767579118682698,0.10495836483423004
43.132,42.8,0.09,0.46406646968264714,0.17106561336854856,0.47683631897720835,0.2998730990745872,0.377472749948339,0.10347511770024502
43.174,42.85,0.07,0.46592193130744314,0.1705475871091794,0.4782543968353324,0.2977045393519228,0.37822634524807675,0.10198838297595414
43.236,42.91,0.08,0.4678123490898788,0.17010894350219735,0.47972212749546955,0.29546095589895166,0.37901718319594446,0.10049815896494761
43.298,42.96,0.07,0.4697362114938084,0.16974789575665447,0.48123864290756624,0.293142892301243,0.3798437212083932,0.09900446406525859
43.34,43.02,0.04,0.4716919850570918,0.16946261071074564,0.48280303465706664,0.2907509808646068,0.3807043899581617,0.09750733683632584
43.404,43.07,0.02,0.4736781165859368,0.16925121161099066,0.4844143541008698,0.2882859415071832,0.38159759468247545,0.09600683604786596
43.464,43.13,0.01,0.47569303536200896,0.1691117809348529,0.48607161257004805,0.28574858056161806,0.3825217165299605,0.0945030407100772
43.546,43.18,-0.01,0.47773515535877126,0.16904236325133976,0.48777378163996127,0.2831397894895495,0.3834751139449425,0.09299605008460389
43.567,43.24,-0.0,0.4798028774634809,0.16904096811416197,0.48951979346816044,0.28046054351089933,0.38445612408763546,0.09148598367572024
43.61,43.29,0.02,0.4818945917012355,0.1691055729820878,0.4913085412002328,0.2777119001507051,0.38546306428855104,0.08997298120119465
43.672,43.35,0.02,0.484008679457435,0.16923412616119354,0.4931388794434938,0.27489499770633136,0.3864942335352984,0.08845720254226466
43.798,43.4,0.03,0.4861435156950191,0.1694245497637632,0.4950096248082165,0.2720110536378558,0.3875479139898224,0.086938827672125
43.819,43.46,0.06,0.48829747116286415,0.16967474267862764,0.49691955651592096,0.2690613628842524,0.38862237253405196,0.08541805656235281
43.861,43.51,0.07,0.4904689145917733,0.1699825835477603,0.4988674170741422,0.2660472961076958,0.38971586234188926,0.08389510906679098
43.902,43.57,0.07,0.49265621487455674,0.17034593374397833,0.5008519130170394,0.26297029786800596,0.3908266244754503,0.08237022478257831
43.965,43.62,0.09,0.49485774322675957,0.17076264034466618,0.5028717157111567,0.25983188472911584,0.3919528895034632,0.08084366288819021
44.028,43.68,0.1,0.49707187532466357,0.1712305390965294,0.5049254622255757,0.25663364329954336,0.39309287913973556,0.07931570195850575
44.131,43.73,0.09,0.4992969934172551,0.17174745736650596,0.5070117562656266,0.25337722820910163,0.3942448078996135,0.07778663975708301
44.171,43.79,0.08,0.5015314884089139,0.17231121707411173,0.5091291691692507,0.250064360024423,0.3954068847723424,0.07625679300602904
44.193,43.84,0.09,0.5037737619096478,0.17291963760065646,0.5112762409650101,0.24669682310619426,0.3965773149072172,0.0747264971340359
44.233,43.9,0.09,0.5060222282497766,0.17357053867092703,0.5134514814906493,0.2432764634111883,0.3977543013113564,0.0731961060032526
44.295,43.95,0.1,0.5082753164561009,0.17426174320307908,0.5156533715709659,0.2398051862422222,0.3989360465568725,0.07166599161566739
44.356,44.01,0.15,0.5105314721867307,0.17499108012261413,0.5178803642535761,0.2362849539491718,0.40012075449513096,0.07013654379963985
44.398,44.06,0.18,0.5127891596219101,0.17575638713644948,0.5201308861009584,0.23271778358416387,0.4013066319757403,0.06860816987722597
44.522,44.12,0.19,0.5150468633083385,0.1765555134632256,0.5224033385369926,0.22910574451408564,0.40249189056789253,0.06708129431302139
44.544,44.17,0.22,0.5173030899546158,0.17738632251616662,0.5246960992460686,0.22545095599365972,0.40367474828171773,0.06555635834536284
44.585,44.23,0.28,0.5195563701755629,0.1782466945350143,0.527007523622758,0.22175558470250353,0.40485343128739393,0.06403381960082603
44.606,44.28,0.26,0.5218052601832852,0.17913452916379155,0.5293359462699949,0.21802184224977852,0.4060261756298714,0.06251415169304404
44.668,44.34,0.26,0.5240483434229813,0.1800477479713854,0.5316796825436899,0.21425198265023773,0.4071912289371865,0.06099784380692266
44.73,44.39,0.27,0.5262842321516352,0.18098429691216472,0.5340370301416699,0.21044829977568358,0.4083468521204545,0.05948540026929853
44.771,44.45,0.25,0.5285115689578929,0.18194214872404202,0.5364062707347953,0.20661312478595453,0.409491321063719,0.057977340106989975
44.875,44.5,0.21,0.5307290282215696,0.1829193052615399,0.5387856716380266,0.20274882354352078,0.41062292830186287,0.05647419659310411
44.895,44.56,0.22,0.5329353175113786,0.18391379976154246,0.5411734875190956,0.1988577940155917,0.41173998468476775,0.05497651678238171
44.936,44.61,0.24,0.5351291789195811,0.184923699039499,0.5435679621422793,0.19494246366735057,0.4128408210258431,0.053484861036248034
44.998,44.67,0.25,0.5373093903323487,0.18594710561389372,0.5459673301445882,0.19100528684966098,0.413923789732952,0.05199980253809444
45.081,44.72,0.29,0.5394747666346688,0.18698215975682456,0.5483698188414763,0.18704874218449083,0.4149872664196682,0.05052192679917255
45.1,44.78,0.31,0.5416241608486551,0.18802704146854243,0.5507736500590061,0.18307532995136683,0.416029651494746,0.049051831155362095
45.162,44.83,0.32,0.5437564652041452,0.18907997237381666,0.5531770419893016,0.1790875694782821,0.4170493717276988,0.04759012425502847
45.245,44.89,0.34,0.5458706121405136,0.19013921753802596,0.5555782110660993,0.1750879965405839,0.418044881788445,0.04613742553825271
45.266,44.94,0.38,0.5479655752386869,0.1912030872009291,0.5579753738572489,0.17107916077144344,0.41901466575908036,0.044694364707879686
45.326,45.0,0.38,0.5500403700824569,0.19226993842614454,0.5603667489710855,0.1670636230874964,0.41995723861593737,0.04326158119303344
45.388,45.05,0.37,0.5520940550483056,0.1933381766644548,0.5627505589736801,0.16304395313312312,0.420871147680202,0.041839723605920504
45.45,45.11,0.38,0.5541257320230932,0.19440625722914687,0.565125032314019,0.15902272674665732,0.4217549740354559,0.0404294491928407
45.491,45.16,0.37,0.5561345470490613,0.19547268668170623,0.567488405254159,0.15500252345161925,0.4226073339105996,0.039031423280366226
45.553,45.22,0.34,0.5581196908956941,0.1965360241262837,0.5698389238013317,0.15098592397596033,0.42342688002665774,0.037646318717692
45.614,45.27,0.36,0.5600803995580228,0.19759488241147238,0.5721748456388183,0.14697550780240773,0.42421230290597606,0.036274815316202635
45.677,45.33,0.39,0.5620159546810068,0.19864792923804045,0.574494442052249,0.14297385075324306,0.4249623321422906,0.03491759928730856
45.741,45.38,0.41,0.5639256839096722,0.19969388817139372,0.5767959998478478,0.13898352261309707,0.4256757376301147,0.03357536267957159
45.761,45.44,0.43,0.565808961164764,0.2007315395576689,0.579077823259064,0.13500708479350976,0.42635133075187115,0.03224880281609265
45.824,45.49,0.47,0.5676652068437447,0.20175972134251313,0.581338235838021,0.13104708804307846,0.42698796552123386,0.030938621733081
45.885,45.55,0.47,0.5694938879470763,0.20277732979176852,0.5835755823282662,0.1271060702069388,0.42758453968123,0.029645525620487057
45.989,45.6,0.47,0.5712945181298367,0.20378332011343614,0.585788230515413,0.12318655403907465,0.42813999575577477,0.028370224265574052
46.01,45.66,0.51,0.5730666576788523,0.2047767069804263,0.587974573052412,0.11929104507045285,0.4286533220534441,0.027113430500316855
46.03,45.71,0.52,0.5748099134156905,0.20575656495371514,0.5901330292563871,0.11542202953516802,0.4291235536224111,0.0258758596535436
46.093,45.77,0.5,0.5765239385260019,0.20672202880563262,0.5922620468741765,0.11158197235586509,0.4295497731555832,0.024658229008782055
46.155,45.82,0.5,0.5782084323158514,0.2076722937431312,0.5943601038138613,0.10777331518909788,0.4299311118450759,0.02346125726880673
46.216,45.88,0.49,0.5798631398958076,0.20860661553104248,0.5964257098396475,0.10399847453108478,0.43026675018525107,0.02228566402787497
46.257,45.93,0.47,0.5814878517936717,0.2095243105155036,0.5984574082275053,0.10025983988433816,0.43055591872360743,0.021132169252617572
46.339,45.99,0.48,0.5830824034968567,0.21042475554791581,0.6004537773789952,0.09655977198569858,0.4307978987588242,0.020001492772518233
46.401,46.04,0.51,0.5846466749255277,0.21130738780999372,0.6024134323907231,0.09290060109629592,0.4309920229852405,0.01889435378083292
46.422,46.1,0.52,0.586180589837735,0.21217170454066783,0.6043350265768861,0.08928462535379221,0.4311376760830256,0.01781147034664022
46.482,46.15,0.53,0.5876841151678789,0.21301726266583865,0.6062172529424168,0.08571410918692128,0.43123429525330054,0.016753558938483838
46.543,46.21,0.56,0.5891572602999582,0.21384367833222678,0.6080588456043083,0.08219128179189204,0.4312813706975219,0.015721333959802793
46.585,46.26,0.58,0.5906000762771803,0.21465062634681112,0.6098585811588402,0.07871833566969859,0.4312784460405465,0.014715507296089737
46.645,46.32,0.57,0.5920126549496403,0.2154378395235852,0.6116152799926048,0.07529742522285468,0.4312251186969127,0.013736787873521247
46.748,46.37,0.58,0.5933951280619022,0.21620510793960349,0.6133278075354204,0.07193066540969516,0.431121040180013,0.012785881228660567
46.768,46.43,0.58,0.5947476662823978,0.21695227810253795,0.6149950754533935,0.06862013045422788,0.4309659163539557,0.011863489088720813
46.809,46.48,0.56,0.5960704781766215,0.2176792520322066,0.6166160427805744,0.06536785260951791,0.4307595076280233,0.01097030896181798
46.873,46.54,0.54,0.5973638091261261,0.21838598625873862,0.6181897169878197,0.06217582097267999,0.43050162909370937,0.010107033736626176
46.956,46.59,0.53,0.5986279401953567,0.21907249074019547,0.6197151549876513,0.059045980349700614,0.43019215060436594,0.009274351290825112
46.976,46.65,0.52,0.5998631869483986,0.21973882770256664,0.6211914640740408,0.05598023016841619,0.4298309967975034,0.008472944107660122
47.079,46.7,0.52,0.601069898217752,0.22038511040512146,0.6226178027961374,0.052980423438034316,0.4294181470597624,0.0077034888998215615
47.1,46.76,0.56,0.6022484548272913,0.22101150183413262,0.6239933817649684,0.05004836575362262,0.4289536354345363,0.0069666562397055695
47.142,46.81,0.58,0.6033992682715981,0.22161821332800524,0.6253174643921335,0.04718581434399708,0.42843755047219795,0.006263110194979116
47.203,46.87,0.58,0.6045227793539196,0.22220550313683898,0.6265893675595068,0.04439447716146695,0.4278700350229021,0.005593507968294895
47.265,46.92,0.6,0.6056194567850399,0.2227736749194586,0.6278084622189988,0.04167601201205055,0.42725128597201123,0.004958499539998183
47.306,46.98,0.61,0.6066897957454069,0.22332307618097605,0.6289741739215174,0.03903202572505783,0.4265815539183194,0.004358727312737582
47.369,47.03,0.6,0.607734316412888,0.22385409665399877,0.6300859832744088,0.036464073361275356,0.42586114279538095,0.003794825757039989
47.452,47.09,0.59,0.6087535624585587,0.2243671666266797,0.631143426326831,0.03397365745938036,0.4250904094363808,0.003267421057105179
47.472,47.14,0.6,0.6097480995129598,0.22486275522089014,0.6321460948826964,0.03156222732060319,0.4242697630830955,0.0027771307562600798
47.514,47.2,0.57,0.6107185136053007,0.22534136862386067,0.6330936367410012,0.02923117833193786,0.42339966483958086,0.0023245634016687564
47.576,47.25,0.54,0.6116654095781503,0.22580354827667776,0.6339857558635392,0.026981851328320216,0.4224806270712845,0.0019103181880403784
47.639,47.31,0.56,0.6125894094802149,0.22624986902304658,0.6348222124701149,0.024815531994193875,0.4215132127503032,0.0015349846001918475
47.722,47.36,0.56,0.6134911509398526,0.22668093722173022,0.6356028230614513,0.02273345030478949,0.4204980347475098,0.0011991420543777268
47.743,47.42,0.56,0.6143712855220084,0.2270973888260638,0.6363274603700152,0.020736780007305788,0.41943575507225545,0.0009033595383074409
47.805,47.47,0.59,0.6152304770712743,0.22749988743393945,0.6369960532389873,0.01882663814212782,0.4183270840603397,0.0006481952497416816
47.868,47.53,0.61,0.6160694000437802,0.22788912231167935,0.637608586429618,0.01700408460429399,0.41717277951097237,0.00043419623351942344
47.93,47.58,0.61,0.6168887378306017,0.22826580639526947,0.6381651003572837,0.015270121745587433,0.41597364577351953,0.0002618980168658265
48.034,47.64,0.61,0.6176891810753499,0.22863067427250483,0.6386656907566731,0.013625694017865503,0.4147305327849427,0.00013182424289092819
48.056,47.69,0.62,0.6184714259885716,0.22898448014967435,0.6391105082767025,0.012071687658498616,0.41344433505897693,4.4486302276254924e-05
48.096,47.75,0.61,0.6192361726615793,0.22932799580645682,0.6394997580059445,0.010608930418954603,0.4121159906282233,3.829632435272116e-07
48.182,47.8,0.6,0.6199841233823106,0.2296620085426772,0.6398336989295513,0.009238191337622813,0.4107464799404493,0.0
48.202,47.86,0.6,0.620715980955809,0.22998731912050174,0.6401126433187989,0.00796018055797958,0.40933682471048366,4.380981991580864e-05
48.243,47.91,0.58,0.6214324470318932,0.23030473970554466,0.6403369560545022,0.006775549193147905,0.40788808672916355,0.00013227108967833753
48.306,47.97,0.53,0.6221342204425585,0.23061509181026071,0.6405070538856231,0.005684889237814066,0.40640136663084475,0.0002658283605881759
48.346,48.02,0.54,0.6228219955516192,0.23091920424291504,0.6406234046244426,0.004688733528347039,0.40487780262100886,0.00044491169304551495
48.408,48.08,0.55,0.6234964606190454,0.23121791106536616,0.6406865262797082,0.0037875557517521403,0.40331856916549674,0.0006699362801557626
48.469,48.13,0.53,0.6241582961824034,0.23151204956284263,0.640696986129222,0.0029817705036976837,0.4017248756428661,0.0009413020702888152
48.55,48.19,0.54,0.6248081734577451,0.23180245822885212,0.6406553997333845,0.002271733395442524,0.4000979649613377,0.001259393388364389
48.572,48.24,0.56,0.6254467527622186,0.23208997476832174,0.640562429891255,0.001657741209245822,0.3984391121417929,0.0016245785556041736
48.652,48.3,0.54,0.6260746819606051,0.2323754341220316,0.6404187855407476,0.0011400321017791147,0.39674962286832105,0.0020372095075302404
48.674,48.35,0.53,0.6266925949379197,0.23265966651536032,0.6402252206046526,0.0007187858550981674,0.39503083200788036,0.002497621410125425
48.736,48.41,0.55,0.6273011101001578,0.23294349553429836,0.6399825327842549,0.0003941241747505796,0.393284102100708,0.00300613227427065
48.798,48.46,0.55,0.6279008289052265,0.23322773623158666,0.6396915623024064,0.00016611103451106844,0.3915108218231862,0.003563042568789224
48.841,48.52,0.52,0.628492334426042,0.23351319326572403,0.639353190597989,3.4753067081354005e-05,0.3897124044249344,0.004168634832620511
48.923,48.57,0.51,0.6290761899477153,0.23380065907544995,0.6389683389737719,0.0,0.3878902861419608,0.004823173286769072
48.963,48.63,0.48,0.6296529376006837,0.23409091209216715,0.638537967199729,6.174513598489687e-05,0.38604592458775794,0.0055269034467245615
49.005,48.68,0.43,0.6302230970316361,0.23438471499260322,0.6380630720739411,0.00021982587694987734,0.38418079712425834,0.006280051736092306
49.068,48.74,0.41,0.6307871641140622,0.23468281299384586,0.6375446859432405,0.00047402429101724717,0.3822963992145499,0.007082825102257842
49.128,48.79,0.43,0.6313456097002482,0.23498593219275452,0.6369838751857353,0.0008240677220088016,0.38039424275918876,0.007935410635006652
49.191,48.85,0.44,0.6318988784164947,0.23529477795165338,0.6363817386572986,0.0012696294410615332,0.37847585441784815,0.008837975189103028
49.335,48.9,0.44,0.6324473875032814,0.23561003333213512,0.6357394061040404,0.0018103293401094671,0.3765427739179539,0.009790665011868881
49.356,48.96,0.47,0.6329915257020468,0.23593235757874023,0.6350580365427166,0.002445734666979366,0.37459655235192457,0.010793605376774163
49.376,49.01,0.47,0.6335316521902247,0.23626238465421168,0.634338816611018,0.0031753608017235373,0.3726387504646722,0.011846900223968082
49.417,49.07,0.46,0.6340680955661459,0.23660072182795344,0.6335829588897136,0.003998672073590496,0.37067093693310704,0.012950631808606899
49.458,49.12,0.47,0.6346011528853838,0.23694794831926866,0.6327917001986925,0.004915082617785943,0.3686946866395028,0.014104860357795061
49.522,49.18,0.47,0.6351310887500948,0.23730461399690395,0.6319662998690587,0.0059239572709077915,0.36671157894069156,0.015309623736947109
49.582,49.23,0.43,0.6356581344528576,0.2376712381363771,0.631108037993586,0.007024612503687104,0.3647231959351609,0.016564937126397304
49.643,49.29,0.41,0.6361824871764651,0.23804830823651368,0.6302182136579619,0.008216317389555043,0.36273112073020386,0.017870792709117907
49.663,49.34,0.39,0.6367043092510546,0.23843627889654795,0.6292981431553661,0.00949829460760732,0.3607369357113272,0.019227159370444124
49.725,49.4,0.33,0.63722372746988,0.23883557075506293,0.628349158186982,0.010869721478621903,0.35874222081612406,0.020633982410761316
49.788,49.45,0.31,0.6377408324649246,0.2392465694919423,0.6273726040510755,0.012329731032823272,0.3567485518147654,0.02209118327218598
49.828,49.51,0.32,0.6382556781434376,0.23966962489441118,0.6263698378232294,0.01387741310809235,0.35475749859916117,0.023598659280307417
49.891,49.56,0.32,0.6387682811863458,0.24010504998812443,0.6253422265302208,0.015511815477287747,0.35277062348272004,0.025156283402024044
49.951,49.62,0.31,0.6392786206093864,0.2405531202341305,0.6242911453198886,0.017231945003292427,0.3507894795125143,0.026763904020427186
50.014,49.67,0.32,0.6397866373876938,0.24101407279239162,0.6232179756292184,0.01903676882037026,0.34881560879559337,0.028421344727581732
50.075,49.73,0.33,0.6402922341444713,0.24148810585239058,0.6221241033528165,0.020925215540371796,0.3468505408411722,0.030128404135957406
50.117,49.78,0.31,0.6407952749042986,0.24197537803119973,0.6210109170140049,0.0228961764822647,0.34489579092045347,0.03188485570922958
50.178,49.84,0.3,0.6412955849115133,0.2424760078392523,0.6198798059408417,0.02494850692349511,0.3429528584458853,0.03369044761319437
50.24,49.89,0.3,0.6417929505139919,0.24299007321394292,0.6187321584494626,0.02708102737183443,0.3410232253717022,0.03554490258759755
50.304,49.95,0.27,0.6422871191125252,0.24351761112109818,0.6175693600372107,0.029292524856549297,0.33910835461762945,0.03744791783975793
50.323,50.0,0.25,0.6427777991758392,0.24405861722429034,0.616392791588063,0.0315817542378818,0.3372096885176383,0.039399164960970026
50.384,50.06,0.24,0.643264660321188,0.2446130456219145,0.6152038275928724,0.0339474395339083,0.3353286472956239,0.041398289866744035
50.445,50.11,0.2,0.6437473334603341,0.24518080865188963,0.6140038343869179,0.03638827526379535,0.33346662756984535,0.04344491276193885
50.508,50.17,0.18,0.6442254110106928,0.24576177676377145,0.6127941684071974,0.03890292780631828,0.33162500088790914,0.045538628131780626
50.591,50.22,0.19,0.6446984471713715,0.24635577845798584,0.6115761744717966,0.041490036772360316,0.3298051122939984,0.04767900475967262
