Time_Host,Time_Arduino,easingdata,CH1_Oxy,CH1_Deoxy,CH2_Oxy,CH2_Deoxy,CH3_Oxy,CH3_Deoxy
1.213,0.04,0.0,0.019129216530772746,0.12458591081691671,0.06941123266467512,0.032645929861373296,0.0,0.3322359161214788
1.233,0.1,0.0,0.01998590346814976,0.12329410327780084,0.0684688401573921,0.03249532473289694,0.0030389538405065537,0.32595597822314054
1.253,0.15,0.0,0.02082399898605922,0.12200206396100516,0.06752187457880417,0.0323393831050237,0.0060416247155420984,0.3196981419425689
1.273,0.21,0.0,0.021643052692518896,0.12071018365862045,0.06657066056269502,0.03217811074604552,0.00900673460637914,0.31346458017230305
1.294,0.26,0.0,0.022442629124968833,0.11941885155036852,0.06561552575817979,0.032011517419917056,0.011933038043270162,0.30725743933833033
1.315,0.32,0.0,0.023222308194528522,0.11812845495302016,0.06465680056695454,0.03183961690890268,0.014819323269953432,0.30107883770994953
1.335,1.06,0.0,0.023981685611819493,0.11683937907509671,0.06369481787980207,0.03166242703105989,0.01766441336178483,0.2949308637619888
1.355,1.11,0.0,0.024720373294011985,0.1155520067768499,0.0627299128128308,0.03147996965249125,0.020467167296545217,0.28881557459070234
1.375,1.17,0.0,0.025437999752796807,0.11426671833549579,0.06176242244392466,0.03129227069431111,0.023226480977090295,0.2827349943845203
1.457,1.22,0.0,0.02613421046302507,0.11298389121566038,0.06079268554988385,0.031099360134286564,0.02594128820512497,0.2766911129506812
1.497,1.28,-0.18,0.026808668211798923,0.11170389984497932,0.05982104234473875,0.030901272003125986,0.028610561605495036,0.2706858842986434
1.559,1.33,-0.05,0.02746105342783253,0.1104271153947828,0.0588478342197205,0.030698044375402203,0.03123331350048888,0.26472122528105085
1.6,1.39,0.05,0.028091064490927766,0.10915390556580191,0.057873403485362754,0.030489719355112636,0.0338085967337174,0.2587990142929461
1.662,1.44,-0.24,0.028698418021420126,0.10788463437885779,0.056898093116175226,0.030276343055902447,0.036335505443197476,0.25292109002987495
1.722,1.5,-0.19,0.02928284914945627,0.10661966197053573,0.05592224649827113,0.030057965576011057,0.038813175783325826,0.24708925030548629
1.825,1.55,-0.0,0.029844111763980604,0.10535934439388248,0.05494620718027237,0.029834640968038798,0.04124078659550064,0.24130525092916402
1.847,1.61,-0.21,0.030381978741332406,0.10410403342419088,0.0539703186277779,0.02960642720365582,0.0436175600272041,0.23557080464415256
1.886,1.66,-0.32,0.030896242153373596,0.10285407636996172,0.052994923981648935,0.029373386133390737,0.04594276209939513,0.2298875801265557
1.948,1.72,-0.12,0.03138671345507552,0.10160981588915607,0.052020365820326916,0.029135583441646903,0.04821570322210242,0.22425720104547345
2.009,1.77,-0.11,0.031853223651497085,0.1003715898108567,0.051046985926367965,0.028893088597094902,0.05043573865814982,0.21868124518440185
2.05,1.83,-0.33,0.03229562344408685,0.0991397309624436,0.050075125057352135,0.028645974798581074,0.05260226893497474,0.21316124362388367
2.114,1.88,-0.18,0.03271378335624584,0.09791456700236054,0.04910512272130062,0.0283943189166839,0.05471474020453592,0.20769867998527733
2.196,1.94,-0.01,0.03310759383811129,0.0966964202585044,0.04813731695671025,0.0281382014310469,0.05677264455136696,0.20229498973539747
2.217,1.99,-0.27,0.03347696535056726,0.09548560757221797,0.04717204411729939,0.027877706363617985,0.05877552024889636,0.1969515595517016
2.26,2.05,-0.28,0.03382182842853883,0.09428244014783528,0.04620963866153627,0.02761292120793636,0.06072295196422149,0.1916697267476415
2.322,2.1,-0.06,0.03414213372367808,0.09308722340772696,0.045250432946988876,0.027343936854628517,0.0626145709116016,0.18645077875775104
2.384,2.16,-0.18,0.034437852026598284,0.0919002568528036,0.0442947570295141,0.027070847513290384,0.0644500549550038,0.18129595268198476
2.425,2.21,-0.35,0.0347089742688519,0.09072183392845616,0.04334293846730038,0.026793750630936548,0.06622912866008075,0.17620643488876547
2.486,2.27,-0.19,0.03495551150487235,0.08955224189593097,0.04239530212978714,0.026512746807193562,0.06795156329599812,0.17118336067612439
2.568,2.32,-0.12,0.035177494874114236,0.08839176170914088,0.04145217001150276,0.026227939706404607,0.06961717678757248,0.166227813990216
2.589,2.38,-0.43,0.03537497554363157,0.08724066789690339,0.04051386105087729,0.02593943596680169,0.0712258336182058,0.1613408272004098
2.651,2.43,-0.32,0.03554802463132534,0.08609922845059546,0.03958069095407369,0.025647345106900997,0.07277744468411611,0.1565233809301063
2.714,2.49,-0.13,0.03569673311008216,0.0849677047172229,0.03865297202385006,0.025351779429287177,0.07427196710037975,0.15177640394238948
2.776,2.54,-0.3,0.03582121169301848,0.08384635129791453,0.0377310129934325,0.02505285392196256,0.07570940395930338,0.1471007730796038
2.816,2.6,-0.31,0.03592159070003894,0.08273541595186701,0.03681511886534851,0.024750686157445106,0.07708980404164405,0.14249731325592374
2.878,2.65,-0.06,0.03599801990591614,0.08163513950577882,0.0359055907551402,0.024445396189804618,0.07841326148122314,0.13796679750192561
2.939,2.71,-0.11,0.036050668370107515,0.08054575576881369,0.035002725739861434,0.024137106449823247,0.07967991538353913,0.13350994706007263
2.98,2.76,-0.3,0.03607972424853924,0.07946749145312086,0.03410681671126173,0.023825941638453682,0.08088994939905397,0.1291274315299176
3.063,2.82,-0.14,0.03608539458760556,0.07840056609991648,0.03321815223356446,0.023512028618733628,0.0820435912519134,0.12481986906172737
3.104,2.87,-0.01,0.036067905100660866,0.07734519201109367,0.0323370164057605,0.023195496306302264,0.0831411122249497,0.1205878265971562
3.165,2.93,-0.3,0.03602749992731593,0.0763015741862892,0.0314636887283561,0.022876475558654973,0.0841828266018788,0.11643182015556713
3.206,2.98,-0.27,0.03596444137588035,0.07526991026531503,0.030598443974518007,0.022555099063276497,0.08516909106764661,0.11235231516462416
3.309,3.04,-0.09,0.035879009649320504,0.07425039047586372,0.029741552065547218,0.02223150122480784,0.08610030406791908,0.10834972683380727
3.329,3.09,-0.28,0.0357715025551278,0.07324319758640883,0.028893277950602272,0.021905818051417163,0.08697690512873192,0.1044244205695343
3.371,3.15,-0.39,0.03564223519950123,0.07224850686424501,0.02805388149057861,0.021578187040554607,0.08779937413731025,0.10057671243059767
3.412,3.2,-0.2,0.03549153966623936,0.07126648603864083,0.027223617346026015,0.021248747064278182,0.08856823058505779,0.09680686962262025
3.473,3.26,-0.14,0.03531976468071869,0.07029729526909205,0.026402734868965886,0.020917638254334944,0.08928403277370632,0.09311511103019394
3.535,3.31,-0.35,0.03512727525931641,0.06934108711865439,0.02559147799846176,0.020585001887168056,0.08994737698560054,0.08950160778532003
3.597,3.37,-0.18,0.03491445234462489,0.06839800653231122,0.024790085159792353,0.020250980269005583,0.09055889661909405,0.08596648387073284
3.66,3.42,0.02,0.03468169242681446,0.06746819082029583,0.02399878916708652,0.019915716621170667,0.09111926129006878,0.08250981675665565
3.699,3.48,-0.21,0.034429407151528445,0.06655176964624959,0.023217817129315015,0.019579354965729674,0.0916291759006457,0.07913163806952808
3.761,3.53,-0.23,0.03415802291472615,0.06564886502008618,0.02244739035957701,0.019242040011572512,0.09208937967622227,0.07583193429125654
3.822,3.59,0.02,0.03386798044491973,0.06475959129544673,0.021687724287650464,0.018903917041008064,0.09250064517205879,0.07261064748754416
3.882,3.64,-0.11,0.03355973437328451,0.06388405517164963,0.020939028375802193,0.018565131796950816,0.09286377725071575,0.06946767606385017
3.924,3.7,-0.27,0.03323375279215363,0.06302235570005012,0.020201506037878923,0.018225830370764688,0.09317961203169582,0.0664028755475221
3.965,3.75,-0.13,0.032890516802431595,0.062174584294726505,0.019475354561719307,0.017886159090818265,0.09344901581468325,0.06341605939462978
4.028,3.81,-0.06,0.03253052005047769,0.06134082474739946,0.018760765034942468,0.01754626441179365,0.09367288397780722,0.060506999820009864
4.088,3.86,-0.34,0.03215426825501334,0.06052115324647735,0.01805792227417662,0.017206292804782797,0.09385213985236633,0.05767542864904219
4.15,3.92,-0.27,0.031762278724595194,0.059715638400122686,0.01736700475777831,0.016866390648210283,0.09398773357544454,0.054921038189731125
4.192,3.97,-0.08,0.03135507986617783,0.05892434126324955,0.016688184562064622,0.0165267041196383,0.09408064092184676,0.05224348212372765
4.254,4.03,-0.28,0.030933210685274805,0.058147315368378465,0.01602162730105419,0.016187379088527288,0.09413186211676784,0.04964237641498859
4.335,4.08,-0.31,0.030497220278214294,0.057384606760289475,0.015367492069689037,0.01584856101004019,0.09414242063059051,0.04711730023481762
4.397,4.14,-0.07,0.030047667316977018,0.056636254034424946,0.014725931390487298,0.015510394819987195,0.09411336195720621,0.044667796902038155
4.417,4.19,-0.11,0.029585119527103763,0.05590228837899287,0.014097091163572996,0.015173024831004418,0.09404575237727272,0.042293374837010546
4.478,4.25,-0.29,0.029110153159164775,0.05518273362071226,0.013481110620043408,0.014836594630043424,0.093940677707849,0.03999350852815949
4.539,4.3,-0.16,0.028623352454295023,0.05447760627412679,0.012878122278654872,0.014501246977229258,0.09379924203988949,0.03776763950963372
4.579,4.36,-0.01,0.02812530910432426,0.053786915594388626,0.012288251905834862,0.014167123706128805,0.09362256646513689,0.03561517734869465
4.62,4.41,-0.31,0.027616621707061292,0.053110663633394464,0.011711618479059417,0.013834365625459862,0.0934117877939945,0.0335355006414514
4.683,4.47,-0.29,0.027097895217315086,0.05244884529916325,0.011148334153653608,0.013503112422272683,0.09316805726598479,0.03152795801562417
4.764,4.52,-0.12,0.02656974039424946,0.05180144841837871,0.010598504233078865,0.013173502566648024,0.09289253925442742,0.0295918691390888
4.785,4.58,-0.31,0.026032773245677404,0.05116845380206593,0.010062227142776882,0.012845673217967849,0.09258640996697363,0.02772652573302213
4.846,4.63,-0.44,0.025487614469896867,0.05054983531442064,0.009539594407642097,0.01251976013282244,0.09225085614360988,0.025931192588529283
4.908,4.69,-0.27,0.02493488889565152,0.04994555994485175,0.009030690633186563,0.012195897574621709,0.0918870737537096,0.024205108585669877
4.99,4.74,-0.21,0.024375224920774194,0.049355587883313914,0.008535593490455157,0.01187421822497423,0.09149626669367922,0.02254748771380636
5.011,4.8,-0.46,0.023809253950040056,0.0487798725989962,0.008054373704748641,0.011554853096886045,0.09107964548670106,0.020957520092202288
5.073,4.85,-0.35,0.02323760983272632,0.048218360922412114,0.007587095048203228,0.01123793144982394,0.09063842598604445,0.019434372989807283
5.133,4.91,-0.16,0.022660928300359498,0.0476709931309056,0.0071338143362619484,0.010923580706689452,0.09017382808341298,0.017977191843174423
5.196,4.96,-0.39,0.022079846405135238,0.047137703037558834,0.006694581428062712,0.010611926372755761,0.08968707442379846,0.016585101271485513
5.258,5.02,-0.41,0.021495001959509468,0.04661841808347658,0.006269439230753783,0.010303091956631838,0.08917938912831522,0.015257206087715231
5.279,5.07,-0.19,0.020907032977479367,0.04611305943342972,0.005858423707731722,0.009997198893332785,0.08865199652650536,0.01399259230501556
5.342,5.13,-0.31,0.020316577118100233,0.045621542074844625,0.005461563890799994,0.009694366469540076,0.08810611989962475,0.012790328137437542
5.404,5.18,-0.54,0.019724271131814,0.04514377492011437,0.005078881896266311,0.009394711751125799,0.08754298023642737,0.011649464994138763
5.487,5.24,-0.41,0.01913075031018895,0.044679660912184574,0.0047103929450190455,0.009098349512999523,0.08696379500297045,0.010569038466241756
5.507,5.29,-0.33,0.018536647939686166,0.044229097133335366,0.00435610538664379,0.00880539217131959,0.08636977692795673,0.009548069305522378
5.57,5.35,-0.61,0.017942594760069052,0.04379197491705749,0.004016020727655604,0.008515949718096426,0.08576213280509037,0.008585564394154675
5.632,5.4,-0.56,0.017349218428055438,0.04336817996292055,0.0036901336639154573,0.00823012965821536,0.08514206231385786,0.007680517704820861
5.694,5.46,-0.39,0.016757142986789993,0.042957592454351864,0.0033784321172747314,0.007948036948919735,0.08451075686008795,0.006831911250577808
5.756,5.51,-0.61,0.01616698834169425,0.04256008717926915,0.0030808972764669665,0.007669773941810979,0.08386939843758918,0.006038716023940651
5.777,5.57,-0.67,0.015579369743230974,0.04217553365353405,0.0027975036422436214,0.007395440327433835,0.08321915851210374,0.005299892924699116
5.879,5.62,-0.46,0.014994897277100058,0.04180379624720869,0.0025282190767326232,0.007125133082520977,0.0825611969287689,0.004614393676002179
5.899,5.68,-0.52,0.014414175362368439,0.041444734313592926,0.002273004856995696,0.006858946419965185,0.08189666084424056,0.003981161728232661
5.941,5.73,-0.72,0.013837802258025816,0.04109820232099977,0.0020318157327701616,0.006596971741570919,0.0812266836845958,0.003399133150171883
6.003,5.79,-0.59,0.013266369578451717,0.040764049987198694,0.001804599988392218,0.006339297593619841,0.08055238413010436,0.0028672375069373045
6.064,5.84,-0.48,0.012700461818283682,0.040442122416421096,0.00159129950891427,0.006086009625270477,0.07987486512794433,0.002384398724173835
6.125,5.9,-0.77,0.012140655887187376,0.04013226023878957,0.0013918498504502138,0.005837190549800808,0.0791952129339105,0.0019495359380193695
6.166,5.95,-0.75,0.011587520655033882,0.03983429975202492,0.0012061803147912478,0.005592920108702121,0.07851449618412727,0.0015615643304404828
6.268,6.01,-0.57,0.01104161650798568,0.03954807306530315,0.001034214028328306,0.005353275038642685,0.07783376499774182,0.0012193959496124898
6.289,6.06,-0.77,0.010503494915977742,0.03927340824516834,0.0008758680253093278,0.005118329041329491,0.07715405011152472,0.0009219405150860154
6.329,6.12,-0.88,0.009973698012042138,0.03901012946345338,0.0007310533354486861,0.004888152756300168,0.07647636204723572,0.0006681062075392617
6.393,6.17,-0.71,0.009452758183865402,0.038758057147208584,0.000599675075887946,0.004662813736677361,0.0758016903125448,0.00045680044294148226
6.453,6.23,-0.68,0.008941197677902584,0.03851700813066822,0.0004816325474936112,0.004442376427908827,0.07513100263623579,0.0002869306309423372
6.494,6.28,-0.94,0.008439528216308473,0.03828679580928857,0.00037681933547100316,0.004226902149500331,0.07446524423835031,0.00015740491728234604
6.598,6.34,-0.89,0.007948250626892752,0.03806723029587657,0.00028512341425911207,0.004016449079736961,0.073805337135868,6.71329099965809e-05
6.618,6.39,-0.71,0.007467854486274103,0.03785811857879016,0.0002064272566517665,0.003811072243387016,0.07315217948447332,1.5026389166826767e-05
6.66,6.45,-0.95,0.006998817776399892,0.03765926468213744,0.00014060794707360994,0.0036108235023870785,0.07250664495690332,0.0
6.723,6.5,-0.99,0.0065416065546011325,0.03747046982785554,8.753729891787629e-05,0.003415751549517299,0.07186958215829616,2.0971929075588272e-05
6.785,6.56,-0.78,0.006096674637358657,0.03729153259952668,4.708197582866543e-05,0.0032259019050890265,0.0712418140788951,7.686456367043143e-05
6.826,6.61,-0.91,0.005664463297965648,0.037122249107775215,1.9103616800104515e-05,0.0030413169166705624,0.0706241375844042,0.0001666051341088109
6.909,6.67,-1.06,0.005245400978280242,0.03696241315707179,3.4589649704519573e-06,0.002862035761865215,0.07001732294423012,0.0002891263391051549
6.97,6.72,-0.94,0.004839903014766424,0.03681181641374686,0.0,0.0026880944541365455,0.0694221133977879,0.00044336695406591476
6.99,6.78,-0.84,0.0044483713790191845,0.03667024857498316,8.574073936168914e-06,0.0025195258516529017,0.06883922475899627,0.0006282724223052456
7.071,6.83,-1.12,0.004071194432953599,0.03653749753853272,2.9024050481994367e-05,0.002356359669103893,0.06826934505902386,0.0008427954291385738
7.092,6.89,-1.05,0.0037087466988014605,0.03641334957290618,6.118844757832725e-05,0.0021986224924360545,0.06771313422727945,0.0010858964588475095
7.153,6.94,-0.89,0.003361388644017252,0.03629758948780574,0.00010490158318808732,0.002046337796463393,0.06717122381058434,0.0013565443345366775
7.215,7.0,-1.09,0.0030294664811558567,0.03619000080460145,0.00015999372414626935,0.0018995259653207118,0.06664421673040412,0.0016537167409258018
7.278,7.05,-1.16,0.002713311982744956,0.03609036592667971,0.0002262912379114394,0.001758204315738158,0.06613268707794397,0.001976400730138256
7.339,7.11,-0.94,0.0024132423111346223,0.035998466309519736,0.0003036167470238712,0.0016223871231222002,0.06563717994684401,0.0023235932105389913
7.402,7.16,-0.97,0.002129559863268706,0.03591408263036646,0.0003917892860579832,0.0014920856504221545,0.06515821130314947,0.0026943014186353097
7.443,7.22,-1.16,0.0018625521302898412,0.03583699495736353,0.0004906244608549827,0.001367308179742518,0.06469626789216897,0.003087543374010024
7.505,7.27,-1.02,0.0016124915718687173,0.03576698291798582,0.0005999346098241799,0.0012480600466399522,0.06425180718178915,0.003502348317216577
7.546,7.33,-0.88,0.0013796355051490527,0.03570382586656754,0.0007195289671113206,0.001134343677025247,0.06382525734178883,0.003937757130540049
7.608,7.38,-1.16,0.0011642260082162191,0.03564730305067701,0.0008492138274489434,0.0010261586265775688,0.06341701725866607,0.004392822741543383
7.65,7.44,-1.14,0.0009664898380110069,0.035597193776073476,0.0009887927125106783,0.0009235016225765841,0.06302745658545465,0.004866610509371312
7.712,7.49,-0.94,0.0007866383626164164,0.035553277569998855,0.001138066538586642,0.0008263666080680376,0.06265691582597431,0.005358198593839526
7.754,7.55,-1.13,0.0006248675078449323,0.03551533434259366,0.0012968337853931917,0.0007347447882880058,0.06230570645291575,0.005866678307385322
7.817,7.6,-1.23,0.0004813577180396941,0.03548314454627333,0.001464890665824399,0.0006486246792766306,0.061974111059094526,0.006391154450001049
7.878,7.66,-1.05,0.0003562739309733042,0.03545648933294909,0.0016420312964382426,0.0005679921586145585,0.06166238354114017,0.006930745627290362
7.939,7.71,-1.01,0.00024976556669156264,0.035435150709006574,0.0018280478684602841,0.0004928305182091651,0.06137074931482388,0.0074845845517721174
8.002,7.77,-1.24,0.00016196653010761033,0.03541891168796435,0.002022730819084443,0.0004231205190428777,0.06109940556115923,0.008051818327531995
8.084,7.82,-1.11,9.299522710946299e-05,0.03540755644073102,0.0022258690028407013,0.0003588404477848156,0.06084852150235217,0.008631608718296878
8.106,7.88,-0.91,4.29545939128705e-05,0.03540087044336425,0.002437249862786463,0.00029996617516328636,0.060618238706640286,0.009223132398980987
8.145,7.93,-1.13,1.1932139377480762e-05,0.03539864062221662,0.002656659601272398,0.0002464712159961004,0.060408671421030256,0.00982558119074978
8.207,7.99,-1.14,0.0,0.03540065549634958,0.0028838833500281222,0.00019832679077975838,0.06021990693091284,0.010438162279669441
8.248,8.04,-0.89,7.215007303911752e-06,0.035406705317108315,0.0031187053393084857,0.0001555018887459508,0.06005200594552699,0.011060098419023142
8.31,8.1,-1.01,3.361876736263218e-05,0.03541658220475833,0.003360909065852624,0.00011796333229328488,0.05990500300824409,0.011690628115377456
8.392,8.15,-1.15,7.923775221303427e-05,0.035430080282083845,0.0036102774594338723,8.567584269072443e-05,0.059778906930632814,0.012329005798486076
8.453,8.21,-0.98,0.00014408340292947885,0.03544699580484172,0.0038665930478068125,5.860210693268881e-05,0.05967370124925631,0.012974501975114724
8.475,8.26,-0.87,0.0002281522441326941,0.03546712728895433,0.004129638119887591,3.670284560831306e-05,0.059589344704148756,0.013626403366867225
8.536,8.32,-1.13,0.00033142600969967575,0.03549027563432091,0.004399194887032004,1.9936881633161353e-05,0.059525771737898726,0.014284013032117338
8.597,8.37,-1.03,0.00045387177942061654,0.035516244245142145,0.004675045642287546,8.261209690583378e-06,0.059482893014245176,0.014946650472210376
8.639,8.43,-0.84,0.0005954421263286887,0.03554483914668084,0.00495697291749204,1.6310662440839961e-06,0.0594605959550835,0.015613651722159436
8.699,8.48,-1.03,0.0007560752744163625,0.03557586909840715,0.005244759638083171,0.0,0.05945874529476758,0.016284369426114498
8.761,8.54,-1.07,0.0009356952664418284,0.035609145703500024,0.005538189275467179,3.3199427187095234e-06,0.05947718365057263,0.016958172897919906
8.842,8.59,-0.83,0.0011342121415154982,0.035644483514696235,0.005837045996775515,1.1541280287730563e-05,0.05951573210817172,0.017634448167071392
8.863,8.65,-0.88,0.001351522122144534,0.0356817001364847,0.006141114811836288,2.461292397208154e-05,0.05957419082097331,0.01831259801034423
8.925,8.7,-1.05,0.001587507810403071,0.035720616323634186,0.006450181717202948,4.248238174556236e-05,0.059652339622157664,0.01899204196932055
8.965,8.76,-0.88,0.0018420383928970112,0.03576105607601496,0.006764033837099664,6.509582959347103e-05,0.05974993864825178,0.019672216354009123
9.027,8.81,-0.71,0.0021149698542098365,0.03580284672963331,0.0070824595611612634,9.239818266765997e-05,0.05986672897309734,0.020352574232736412
9.09,8.87,-0.97,0.0024061451985424647,0.035845819043760684,0.007405248678865209,0.00012433316617105694,0.06000243325107563,0.02103258540852039
9.213,8.92,-0.88,0.0027153946792772246,0.03588980728403535,0.007732192510561066,0.0001608433858576105,0.06015675636846479,0.021711736382208253
9.234,8.98,-0.66,0.003042536036206351,0.03593464930144325,0.00806308403500151,0.0002018703980525442,0.06032938610183394,0.022389530302724083
9.275,9.03,-0.85,0.0033873747401724553,0.03598018660712964,0.008397718013283121,0.00024735477911318166,0.06051999378241075,0.023065486904820954
9.315,9.09,-0.91,0.0037497042448674657,0.036026264443044284,0.008735891109112893,0.00029723619425947476,0.06072823496537836,0.02373914243476537
9.378,9.14,-0.7,0.004129306245523993,0.036072731848473566,0.009077402005317635,0.0003514534657065893,0.06095375010307972,0.02441004956438264
9.46,9.2,-0.66,0.004525950944214705,0.03611944172254609,0.009422051516516892,0.00040994464002870183,0.06119616522112805,0.02507777729386233
9.481,9.25,-0.87,0.00493939732145074,0.03616625088281205,0.00976964269788749,0.00047264705467338575,0.06145509259642921,0.025741910843687425
9.543,9.31,-0.73,0.00536939341374368,0.03621302011999226,0.010119980949950261,0.0005394974035390348,0.06173013143613642,0.026402051536012022
9.606,9.36,-0.54,0.005815676596779413,0.03625961424896926,0.010472874119313467,0.000610431801525164,0.06202086855659378,0.027057816665771398
9.668,9.42,-0.76,0.00627797387384982,0.036305902156060284,0.010828132595319883,0.0006853858479648531,0.06232687906136067,0.027708839361792463
9.69,9.47,-0.74,0.00675600216919164,0.036351756842597706,0.011185569402553778,0.000764294688853442,0.06264772701743865,0.02835476843818963
9.749,9.53,-0.48,0.007249468625893198,0.03639705546484784,0.011545000289167889,0.0008470930777997771,0.06298296612886418,0.028995268236351675
9.811,9.58,-0.6,0.007758070908053395,0.03644167937030906,0.01190624381100272,0.000933715435632832,0.06333214040687608,0.02963001845783543
9.913,9.64,-0.71,0.008281497506905624,0.03648551413043433,0.012269121411490535,0.001024095908595759,0.06369478483590538,0.03025871398848668
9.933,9.69,-0.53,0.008819428050641547,0.036528449569822825,0.01263345749735427,0.0011181684250541545,0.06407042603468267,0.030881064714090276
9.975,9.75,-0.44,0.009371533617685028,0.03657037979191372,0.012999079510131418,0.001215866750637037,0.06445858291181175,0.03149679532781678
10.037,9.8,-0.72,0.009937477053170258,0.03661120320119897,0.013365817993571167,0.0013171245417216964,0.06485876731519863,0.03210564512971692
10.098,9.86,-0.62,0.010516913288373507,0.03665082252196573,0.01373350665695353,0.0014218753971785279,0.06527048467475993,0.03270736781852312
10.12,9.91,-0.46,0.011109489662845837,0.036689144813582326,0.014101982434365841,0.0015300529083109673,0.06569323463787181,0.0333017312760335
10.181,9.97,-0.66,0.011714846248998404,0.036726081482349106,0.014471085539958817,0.0016415907069469047,0.06612651169704009,0.033888517344381086
10.285,10.02,-0.69,0.012332616178893877,0.03676154828994766,0.014840659519190167,0.001756422511656842,0.06656980580926702,0.034467521596528085
10.306,10.08,-0.45,0.012962425972993328,0.036795465358536415,0.015210551296047635,0.0018744821720883128,0.06702260300658794,0.03503855310033353
10.347,10.13,-0.5,0.013603895870601257,0.03682775717254209,0.015580611216237841,0.0019957037114088985,0.06748438599725641,0.035601434176510245
10.408,10.19,-0.65,0.014256640161742091,0.036858352577183874,0.015950693086333335,0.0021200213668410768,0.06795463475706513,0.036156000150735876
10.448,10.24,-0.5,0.014920267520196312,0.03688718477374063,0.016320654208881454,0.0022473696282590333,0.06843282711031694,0.03670209910012134
10.509,10.3,-0.34,0.01559438133743046,0.03691419131153344,0.016690355413498545,0.0023776832748044923,0.0689184393000081,0.03723959159418936
10.572,10.35,-0.59,0.01627858005716764,0.03693931407656469,0.01705966108400151,0.0025108974094679697,0.0694109465468281,0.03776835043051019
10.655,10.41,-0.49,0.016972457510354685,0.03696249927675513,0.017428439181646396,0.002646947491584688,0.06990982359662021,0.03828826036517972
10.697,10.46,-0.45,0.0176756032502933,0.03698369742374804,0.01779656126454674,0.0027857693672107657,0.07041454525600141,0.03879921783837153
10.739,10.52,-0.63,0.018387602887719255,0.03700286331128742,0.018163902503344362,0.0029272992973665077,0.0709245869158859,0.039301130695244324
10.8,10.57,-0.68,0.019108038425627194,0.03701995599021752,0.01853034169319818,0.0030714739841530333,0.07143942506266898,0.03979391790256397
10.861,10.63,-0.46,0.019836488593644057,0.03703493874018889,0.0188957612621421,0.003218230594766038,0.07195853777680947,0.04027750926149281
10.903,10.68,-0.45,0.020572529181753747,0.037047779038176853,0.019260047275856212,0.003367506783436174,0.07248140521850953,0.04075184511708285
11.026,10.74,-0.66,0.02131573337316687,0.037058448523917695,0.019623089438899465,0.003519240711319286,0.07300751010015266,0.04121687606505229
11.046,10.79,-0.5,0.0220656720761132,0.037066922962349355,0.019984781092455942,0.0036733710643517964,0.07353633814515868,0.04167256265641028
11.087,10.85,-0.31,0.022821914254324175,0.037073182203102524,0.02034501920865361,0.0038298370690809757,0.0740673785329491,0.04211887510044215
11.127,10.9,-0.55,0.023584027255972383,0.037077210137038026,0.02070370438152666,0.003988578506477749,0.07460012432975319,0.042555792966528984
11.189,10.96,-0.53,0.02435157714083859,0.03707899464979468,0.02106074081469468,0.004149535723748119,0.07513407290502153,0.04298330488526349
11.25,11.01,-0.27,0.02512412900548458,0.03707852757230793,0.0214160363058236,0.004312649644177525,0.07566872633326649,0.043401408249313954
11.291,11.07,-0.4,0.02590124730622243,0.037075804628273444,0.021769502227933293,0.004477861775055429,0.07620359178120395,0.04381010891447556
11.412,11.12,-0.51,0.026682496179680968,0.03707082537855739,0.022121053507627792,0.004645114213730521,0.07673818188011439,0.04420942090133806
11.433,11.18,-0.32,0.027467439760774127,0.037063593162585465,0.022470608600336808,0.004814349651844704,0.07727201508339179,0.044599366097971604
11.454,11.23,-0.25,0.028255642497879808,0.03705411503675935,0.022818089462675148,0.004985511377787735,0.07780461600930476,0.0449799739639881
11.495,11.29,-0.49,0.029046669465041464,0.03704240170995266,0.023163421522044345,0.005158543277406778,0.07833551576903768,0.04535128123630743
11.557,11.34,-0.39,0.029840086671004847,0.03702846747614704,0.02350653364359863,0.005333389833008511,0.0788642522801178,0.04571333163695214
11.619,11.4,-0.22,0.03063546136490433,0.03701233014428731,0.023847358094679288,0.005509996120707934,0.07939037056538094,0.046066175583193925
11.679,11.45,-0.46,0.031432362338417084,0.03699401096545918,0.02418583050680455,0.005688307806198059,0.07991342303766409,0.04640986990038435
11.781,11.51,-0.49,0.03223036022420202,0.036973534557525826,0.02452188983528558,0.0058682711390347425,0.08043296977043174,0.046744477537817256
11.802,11.56,-0.27,0.0330290277904337,0.03695092882739188,0.024855478316522434,0.006049832945547195,0.08094857875455827,0.04707006728795356
11.842,11.62,-0.36,0.033827940231234005,0.03692622489107713,0.025186541423030794,0.006232940620486508,0.08145982614149902,0.04738671350928748
11.904,11.67,-0.52,0.03462667545279496,0.03689945699177122,0.02551502781625941,0.006417542117510466,0.08196629647307795,0.04769449585306882
11.945,11.73,-0.35,0.03542481435497737,0.036870662416011155,0.025840889297269888,0.006603585938583227,0.08246758289812245,0.04799349899402659
12.025,11.78,-0.22,0.036221941108167975,0.03683988140808132,0.026164080755364378,0.006791021122350052,0.0829632873761914,0.04828381236518161
12.046,11.84,-0.48,0.03701764342518224,0.036807157082700416,0.026484560114762055,0.006979797231534583,0.08345302086865311,0.04856552989682189
12.106,11.89,-0.4,0.03781151282800724,0.03677253533605212,0.02680228827942748,0.007169864339409034,0.08393640351738631,0.048838749759744456
12.166,11.95,-0.22,0.038603144909194566,0.036736064755235,0.027117229076146297,0.007361173015404354,0.08441306481141102,0.04910357411290772
12.228,12.0,-0.43,0.03939213958773841,0.036697796526239175,0.027429349195939624,0.007553674309947237,0.08488264374178989,0.04936010885567971
12.29,12.06,-0.48,0.04017810135929709,0.036657784340594614,0.027738618133902014,0.007747319738629561,0.0853447889451562,0.04960846338490662
12.352,12.11,-0.27,0.040960639540633864,0.03661608430086991,0.02804500812753327,0.007942061265833033,0.08579915883623904,0.049848750357034025
12.415,12.17,-0.31,0.041739368508166896,0.03657275482521316,0.028348494093628662,0.008137851287937424,0.08624542172976621,0.0500810854554804
12.477,12.22,-0.55,0.04251390793052479,0.03652785655111605,0.0286490535637981,0.008334642616233087,0.08668325595212312,0.05030558716341468
12.498,12.28,-0.44,0.0432838829950054,0.03648145223855268,0.028946666618691084,0.008532388459646567,0.08711234994314895,0.05052237654203242
12.54,12.33,-0.29,0.044048924627841254,0.036433606672593426,0.029241315821011922,0.008731042407376384,0.08753240234845742,0.05073157701436952
12.6,12.39,-0.57,0.0448086697081861,0.036384386565536886,0.029532986147421503,0.008930558411525133,0.08794312210265343,0.050933314154672234
12.662,12.44,-0.54,0.04556276127574188,0.03633386045856541,0.029821664919425252,0.009130890769808895,0.08834422850378222,0.05112771548335959
12.723,12.5,-0.29,0.04631084873194694,0.036282098622920804,0.03010734173334442,0.009331994108425121,0.08873545127932182,0.05131491026763625
12.786,12.55,-0.43,0.04705258803465146,0.0362291729606022,0.030390008389474987,0.009533823365154391,0.08911653064401007,0.05149502932782444
12.846,12.61,-0.54,0.04778764188621174,0.03617515690460369,0.030669658820552684,0.009736333772759658,0.08948721734978198,0.05166820484948782
12.887,12.66,-0.37,0.048515679914941184,0.03612012531872561,0.03094628901965185,0.009939480842734496,0.08984727272809698,0.0518345702013988
12.929,12.72,-0.3,0.04923637884986507,0.03606415439699739,0.03121989696765686,0.01014322034943877,0.09019646872495936,0.05199425975936092
12.99,12.77,-0.56,0.04994942268873848,0.03600732156274576,0.031490482560456695,0.01034750831464786,0.09053458792894864,0.0521474087358797
13.072,12.83,-0.45,0.050654502859295465,0.03594970536734673,0.03175804753600995,0.010552300992540826,0.09086142359258538,0.05229415301568466
13.113,12.88,-0.29,0.05135131837370871,0.03589138538871605,0.03202259540141293,0.010757554855165106,0.09117677964737365,0.052434628997126684
13.215,12.94,-0.53,0.05203957597625543,0.03583244212961262,0.03228413136009089,0.010963226578430373,0.09148047071286453,0.052568973439506075
13.236,12.99,-0.57,0.05271899028419775,0.035772956915852534,0.032542662239218374,0.011169273028699675,0.09177232210007172,0.05269732331642011
13.297,13.05,-0.35,0.05338928392189637,0.0357130117945515,0.03279819641746053,0.011375651250057501,0.0920521698095588,0.05281981567522089
13.318,13.1,-0.45,0.05405018764818473,0.035652689432512555,0.033050743753127,0.011582318452331592,0.09231986052450097,0.05293658750263719
13.379,13.16,-0.61,0.054701440477033306,0.03559207301485203,0.03330031551284243,0.011789231999926769,0.09257525159899428,0.053047775596559404
13.441,13.21,-0.46,0.05534278979152813,0.03553124614391831,0.03354692430084733,0.011996349401505709,0.09281821104186001,0.05315351644391497
13.483,13.27,-0.31,0.05597399145117843,0.035470292738513515,0.03379058398905158,0.012203628300528567,0.09304861749617985,0.05325394610448635
13.587,13.32,-0.57,0.05659480989255672,0.03540929693339436,0.034031309647970805,0.012411026466645653,0.09326636021478096,0.053349200100485376
13.608,13.38,-0.47,0.057205018223263536,0.03534834297902278,0.0342691174786716,0.012618501787934012,0.09347133903188026,0.053439413311702925
13.648,13.43,-0.27,0.057804398309208686,0.03528751514155419,0.03450402474583806,0.012826012263980566,0.09366346433110896,0.05352471987607018
13.71,13.49,-0.46,0.05839274085521519,0.035226897603078386,0.03473604971206089,0.013033515999830545,0.0938426570101609,0.05360525309548721
13.751,13.54,-0.5,0.05896984547897129,0.035166574362160086,0.0349652115734383,0.01324097120083466,0.09400884844232359,0.05368114534678883
13.811,13.6,-0.31,0.05953552077837293,0.03510662913475812,0.035191530396562413,0.013448336168439962,0.0941619804351767,0.05375252799770282
13.872,13.65,-0.35,0.060089584392312816,0.035047145255622164,0.03541502705695724,0.013655569296970014,0.0943020051867673,0.05381953132760668
13.994,13.71,-0.59,0.060631863054977045,0.0349882055802698,0.03563572317903463,0.013862629071430621,0.09442888523958097,0.05388228445282902
14.014,13.76,-0.64,0.06116219264370844,0.03492989238763351,0.03585364107762983,0.014069474066367021,0.09454259343262944,0.05394091525618245
14.056,13.82,-0.49,0.06168041822050104,0.034872287283429934,0.036068803701177314,0.014276062945788776,0.09464311285195902,0.05399555032037631
14.098,13.87,-0.77,0.062186394067198794,0.03481547110425446,0.03628123457659594,0.014482354464167521,0.0947304367798166,0.05404631486498724
14.159,13.93,-0.73,0.06267998371447217,0.03475952382237222,0.036490957755953964,0.014688307468506372,0.09480456864258786,0.05409333268677448
14.22,13.98,-0.49,0.06316105996463622,0.03470452445116954,0.03669799776497747,0.014893880901481039,0.09486552195749065,0.05413672610325728
14.322,14.04,-0.7,0.06362950490836052,0.03465055095123865,0.036902379553461796,0.01509903380565209,0.09491332027789696,0.054176615899573545
14.342,14.09,-0.75,0.06408520993530331,0.03459768013708998,0.03710412844764524,0.015303725328743415,0.09494799713707748,0.054213121278692857
14.362,14.15,-0.52,0.06452807573868355,0.0345459875845137,0.037303270104599974,0.015507914729976608,0.09496959599012623,0.05424635981505647
14.423,14.2,-0.45,0.06495801231379249,0.03449554753862586,0.03749983046869556,0.015711561387440585,0.09497817015380647,0.05427644741168047
14.465,14.26,-0.68,0.06537493895044587,0.03444643282263209,0.037693835730195885,0.015914624806461254,0.09497378274404579,0.054303498260725266
14.528,14.31,-0.56,0.0657787842193836,0.034398714747336794,0.03788531228604763,0.016117064628929003,0.09495650661081871,0.054327624807511764
14.59,14.37,-0.37,0.06616948595264423,0.034352463021415265,0.03807428670290779,0.01631884064354619,0.09492642427019121,0.05434893771794678
14.674,14.42,-0.62,0.06654699121797081,0.034307745662453065,0.03826078568244992,0.01651991279696687,0.09488362783333593,0.054367545849323705
14.695,14.48,-0.65,0.06691125628733033,0.03426462890875562,0.03844483602897292,0.01672024120581511,0.09482821893233914,0.054383556224486956
14.757,14.53,-0.44,0.0672622465996402,0.03422317713194306,0.038626464619317916,0.01691978616958239,0.09476030864262869,0.05439707400935223
14.8,14.59,-0.57,0.06759993671779757,0.03418345275035512,0.03880569837508952,0.017118508184405745,0.09468001740184702,0.05440820249374849
14.86,14.64,-0.71,0.06792431028009716,0.03414551614328752,0.0389825642371806,0.01731636795771353,0.0945874749249623,0.054417043075506974
14.941,14.7,-0.55,0.06823535994610111,0.03410942556606457,0.03915708914259897,0.0175133264237044,0.09448282011537407,0.0544236952476649
14.963,14.75,-0.39,0.06853308733699612,0.03407523706592491,0.03932930000359276,0.01770934475960292,0.09436620097173687,0.054428256588590004
15.065,14.81,-0.69,0.06881750297043779,0.03404300439867653,0.03949922368906836,0.017904384402616557,0.09423777449019048,0.054430822754807394
15.086,14.86,-0.56,0.06908862618984736,0.03401277894608123,0.039666887008277966,0.01809840706751433,0.09409770656166051,0.05443148747632887
15.126,14.92,-0.33,0.06934648508810431,0.03398460963395468,0.039832316696730395,0.0182913747647559,0.09394617186390015,0.05443034255432848
15.187,14.97,-0.52,0.06959111642558231,0.033958542850998426,0.039995539404262655,0.018483249819111484,0.09378335374795772,0.054427477861073395
15.249,15.03,-0.54,0.06982256554249786,0.03393462236840884,0.040156581685198964,0.01867399488872529,0.09360944411876712,0.0544229813420927
15.289,15.08,-0.3,0.07004088626557647,0.033912889260330856,0.04031546999051249,0.01886357298458647,0.09342464330959005,0.05441693902060231
15.351,15.14,-0.37,0.07024614080907962,0.0338933818252334,0.04047223066190594,0.019051947490374064,0.09322915995008096,0.0544094350041877
15.433,15.19,-0.56,0.0704383996702625,0.033876135508282904,0.04062688992773767,0.019239082182634343,0.09302321082778081,0.05440055149370678
15.474,15.25,-0.44,0.07061774151934483,0.033861182824782295,0.04077947390072527,0.019424941251240772,0.09280702074287704,0.05439036879432855
15.534,15.3,-0.31,0.07078425308408136,0.033848553284722596,0.04093000857736226,0.019609489320081462,0.09258082235609666,0.05437896532858086
15.596,15.36,-0.61,0.07093802902901648,0.03383827331847281,0.041078519838989365,0.01979269146791523,0.09234485602959984,0.05436641765127761
15.637,15.41,-0.54,0.07107917182949319,0.03383036620363497,0.04122503345445625,0.01997451324934197,0.09209936966072041,0.0543528004662277
15.678,15.47,-0.31,0.07120779164046587,0.03382485199311177,0.04136957508429175,0.020154920715844748,0.0918446185083774,0.0543381866446652
15.74,15.52,-0.46,0.07132400616014795,0.03382174744446006,0.041512170286282214,0.02033388043687181,0.09158086501195596,0.05432264724537312
15.784,15.58,-0.51,0.07142794048850443,0.03382106595062996,0.04165284452233964,0.020511359520932956,0.09130837860242977,0.05430625153649972
15.866,15.63,-0.26,0.07151972698057925,0.03382281747221617,0.04179162316652247,0.020687325636688268,0.091027435505502,0.054289067019059944
15.929,15.69,-0.2,0.07159950509463381,0.03382700847136462,0.04192853151406748,0.020861747034002724,0.09073831853657781,0.054271159452076126
15.97,15.74,-0.39,0.07166742123506821,0.033833641847481694,0.042063594791304296,0.021034592564927138,0.09044131688742912,0.054252592879274614
16.032,15.8,-0.24,0.07172362859010369,0.03384271687488438,0.042196838166340934,0.021205831704555148,0.09013672590448361,0.05423342965722937
16.094,15.85,-0.06,0.07176828696423196,0.03385422914250137,0.04232828676043038,0.021375434571700703,0.08982484685876443,0.05421373048482369
16.155,15.91,-0.33,0.07180156260547882,0.03386817049569963,0.04245796565995606,0.02154337194933961,0.08950598670759792,0.05419355443390488
16.175,15.96,-0.34,0.0718236280275717,0.03388452898029219,0.04258589992899204,0.021709615304766262,0.08918045784828077,0.054172958981034164
16.257,16.02,-0.13,0.07183466182713644,0.03390328878878613,0.04271211462239449,0.021874136809431836,0.08884857786396279,0.05415200004025892
16.317,16.07,-0.31,0.07183484849607495,0.0339244302089436,0.04283663479938578,0.02203690935844032,0.08851066926204117,0.054130731996850166
16.358,16.13,-0.43,0.07182437822928431,0.033947929574749805,0.04295948553759722,0.02219790658968024,0.0881670592053661,0.05410920774196246
16.42,16.18,-0.25,0.07180344672786973,0.03397375921990281,0.043080691947540314,0.022357102902565144,0.08781807923654796,0.05408747870816357
16.461,16.24,-0.21,0.0717722549979895,0.034001887433944805,0.0432002791874805,0.02251447347634395,0.0874640649956457,0.05406559490574707
16.543,16.29,-0.44,0.07173100914545262,0.03403227842114573,0.04331827247869316,0.02266999428792682,0.08710535593149617,0.054043604959710875
16.563,16.35,-0.31,0.07167992016617067,0.034064892262246634,0.04343469712107264,0.022823642129167557,0.08674229500693227,0.0540215561472683
16.625,16.4,-0.11,0.07161920373255494,0.034099684879175515,0.04354957850904639,0.02297539462355249,0.08637522839814814,0.05399949443575025
16.665,16.46,-0.33,0.0715490799759568,0.03413660800285713,0.04366294214773445,0.02312523024226066,0.08600450518848787,0.053977464520772865
16.728,16.51,-0.34,0.07146977326527139,0.03417560914425524,0.043774813669286664,0.02327312831957788,0.08563047705695925,0.05395550986458352
16.79,16.57,-0.1,0.07138151198185885,0.03421663156880187,0.04388521884932257,0.0234190690676652,0.08525349796182063,0.05393367273452249
16.831,16.62,-0.2,0.07128452829098293,0.03425961427437155,0.04399418362340545,0.023563033590691326,0.08487392381964452,0.05391199424153846
16.893,16.68,-0.37,0.07117905791001009,0.034304491972945717,0.04410173410349724,0.02370500389833549,0.08449211218030217,0.0538905143786842
16.975,16.73,-0.25,0.07106533987364518,0.03435119507609305,0.0442078965943546,0.023844962918660624,0.08410842189835756,0.0538692720594896
16.996,16.79,-0.16,0.07094361629649996,0.03439964968436629,0.044312697609840336,0.023982894510348553,0.08372321280140195,0.05384830515606958
17.059,16.84,-0.46,0.07081413213329577,0.034449777580696894,0.0444161638891387,0.024118783474282354,0.08333684535587758,0.05382765053682187
17.12,16.9,-0.39,0.07067713493699242,0.034501496227870736,0.044518322412860994,0.024252615564464987,0.08294968033093317,0.053807344103612896
17.162,16.95,-0.21,0.07053287461512146,0.03455471877018691,0.04461920041901069,0.024384377498278965,0.08256207846084218,0.05378742082841214
17.264,17.01,-0.43,0.0703816031845916,0.03460935403942313,0.044718825418757636,0.024514056966109504,0.08217440010649023,0.05376791478939591
17.284,17.06,-0.46,0.07022357452522628,0.034665306565249916,0.04481722521194935,0.024641642640369214,0.08178700491640271,0.05374885920658833
17.326,17.12,-0.24,0.0700590441322864,0.034722476590247825,0.04491442790226712,0.024767124183974247,0.08140025148776425,0.0537302864771116
17.388,17.17,-0.3,0.06988826886823002,0.03478076008967994,0.04501046191193229,0.024890492258320938,0.08101449702787912,0.05371222821007795
17.451,17.23,-0.49,0.06971150671395958,0.034840048796157645,0.045105355995885554,0.02501173853079913,0.08063009701652371,0.053694715261104434
17.513,17.28,-0.34,0.06952901651981101,0.03490023022931573,0.04519913925537935,0.025130855681864694,0.08024740486966174,0.0536777777663788
17.575,17.34,-0.21,0.06934105775654911,0.03496118773058094,0.04529184115093744,0.02524783741168526,0.07986677160502405,0.05366144517616575
17.636,17.39,-0.52,0.06914789026665197,0.035022800503089584,0.04538349151464926,0.025362678446368254,0.07948854551007412,0.053645746287649815
17.657,17.45,-0.46,0.06894977401618196,0.03508494365680257,0.04547412056177499,0.0254753745437835,0.07911307181288796,0.053630709277063836
17.72,17.5,-0.28,0.06874696884755677,0.03514748825888043,0.04556375890164513,0.02558592249900237,0.07874069235648741,0.053616361731115864
17.782,17.56,-0.5,0.06853973423355078,0.03521030138940537,0.04565243754785262,0.02569432014938416,0.07837174527716417,0.05360273067779023
17.842,17.61,-0.59,0.06832832903286584,0.0352732462025696,0.045740187927746374,0.025800566379346256,0.07800656468730799,0.05358984261665492
17.905,17.67,-0.4,0.06811301124760472,0.035336181993481125,0.04582704189123354,0.025904661124858754,0.07764548036322749,0.05357772354882985
17.986,17.72,-0.43,0.06789403778296906,0.03539896427075379,0.04591303171890121,0.026006605377698184,0.07728881743842694,0.053566399006752696
18.007,17.78,-0.66,0.06767166420948213,0.0354614448350451,0.04599819012948028,0.02610640118947763,0.07693689610276594,0.05355589408384619
18.048,17.83,-0.54,0.06744614452800908,0.035523471863689,0.04608255028668843,0.0262040516754507,0.07659003130789789,0.05354623346414821
18.11,17.89,-0.38,0.06721773093782647,0.03558489000154154,0.046166145805507416,0.026299561018069344,0.07624853247936746,0.05353744145192219
18.171,17.94,-0.65,0.06698667360798398,0.035645540458121065,0.046249010757971915,0.026392934470263252,0.07591270323572454,0.05352954200125036
18.212,18.0,-0.62,0.0667532204521966,0.035705261111105835,0.04633117967854794,0.026484178358414844,0.07558284111498507,0.05352255874563049
18.292,18.05,-0.4,0.06651761690750703,0.035763886616253814,0.04641268756915284,0.02657330008503026,0.0752592373087574,0.053516515027615
18.373,18.11,-0.58,0.06628010571696026,0.035821248523827266,0.046493569903840015,0.026660308131136696,0.07494217640434506,0.05351143392854039
18.394,18.16,-0.6,0.06604092671653201,0.035877175401633016,0.046573862633155584,0.026745212058455238,0.07463193613512328,0.0535073382984005
18.435,18.22,-0.39,0.06580031662654344,0.03593149296481859,0.046653602188168816,0.026828022511404665,0.07432878713948644,0.053504250785898856
18.498,18.27,-0.34,0.06555850884778892,0.035984024212573976,0.04673282548418881,0.026908751218985182,0.07403299272868444,0.053502193868671194
18.538,18.33,-0.6,0.06531573326260157,0.03603458957186832,0.04681156992419917,0.02698741099657634,0.07374480866389958,0.05350118988361586
18.6,18.38,-0.51,0.06507221604108801,0.03608300704830479,0.0468898734020563,0.027064015747673396,0.07346448294296837,0.053501261057214686
18.661,18.44,-0.44,0.06482817945278208,0.03612909238411136,0.04696777430550609,0.02713858046558369,0.07319225559721251,0.05350242953567472
18.722,18.49,-0.72,0.06458384168398848,0.03617265922322282,0.04704531151908505,0.02721112123510577,0.07292835849886888,0.053504717414708816
18.784,18.55,-0.77,0.06433941666109387,0.03621351928337736,0.0471225244269729,0.02728165523422027,0.07267301517958043,0.05350814676881803
18.866,18.6,-0.56,0.06409511388011137,0.03625148253514783,0.04719945291585622,0.027350200735829954,0.07242644066034948,0.053512739680008005
18.887,18.66,-0.72,0.06385113824270361,0.03628635738782744,0.047276137377862265,0.02741677710958493,0.07218884129326528,0.053518518265939584
18.928,18.71,-0.84,0.06360768989890299,0.03631795088207651,0.04735261871362909,0.02748140482381569,0.07196041461521428,0.053525504707556945
19.012,18.77,-0.64,0.06336496409672093,0.03634606888920524,0.04742893833558246,0.027544105447578328,0.07174134921370026,0.053533721276234604
19.114,18.82,-0.55,0.0631231510388216,0.03637051631691851,0.047505138171496084,0.027604901652796124,0.07153182460485083,0.05354319036045013
19.134,18.88,-0.81,0.06288243574642514,0.03639109732130074,0.04758126066842033,0.027663817216463046,0.07133201112365292,0.05355393449196695
19.176,18.93,-0.71,0.06264299793059985,0.036407615524794684,0.047657348797064056,0.02772087702286934,0.07114206982644915,0.05356597637151311
19.196,18.99,-0.51,0.0624050118711078,0.03641987423992139,0.04773344605670971,0.027776107065817325,0.07096215240574281,0.05357933889395504
19.257,19.04,-0.76,0.06216864630298822,0.03642767669848694,0.047809596480744725,0.02782953445080766,0.07079240111737345,0.05359404517299886
19.319,19.1,-0.8,0.06193406431108653,0.036430826286026924,0.04788584464289211,0.02788118739719184,0.07063294872012191,0.053610118565502046
19.361,19.15,-0.57,0.061701423232755924,0.03642912678125023,0.0479622356642173,0.02793109524030242,0.07048391842780315,0.05362758269550616
19.463,19.21,-0.72,0.06147087456897317,0.03642238260024757,0.04803881522099428,0.02797928843357587,0.07034542387389854,0.053646461478094744
19.484,19.26,-0.9,0.06124256390411346,0.03641039904522074,0.04811562955353229,0.0280257985506701,0.07021756908875451,0.05366677914315554
19.545,19.32,-0.78,0.06101663083461849,0.03639298255746845,0.048192725476080084,0.028070658287558378,0.07010044848934341,0.05368856025908334
19.585,19.37,-0.69,0.06079320890676845,0.036369940974332444,0.048270150387934495,0.02811390146455992,0.06999414688154508,0.0537118297564077
19.646,19.43,-0.98,0.0605724255637286,0.036341083789777774,0.048347952285879146,0.028155563028250008,0.0698987394748449,0.05373661295130759
19.707,19.48,-0.87,0.06035440210198941,0.03630622241826957,0.04842617977805471,0.0281956790531912,0.06981429190926913,0.053762935568988625
19.769,19.54,-0.64,0.060139253637271683,0.03626517046161243,0.04850488209931681,0.02823428674344511,0.06974086029431649,0.053790823766932096
19.83,19.59,-0.85,0.05992708907993561,0.03621774397843119,0.04858410912808624,0.028271424433854758,0.06967849125959176,0.05382030415807403
19.871,19.65,-0.87,0.05971801111991598,0.03616376175599344,0.04866391140464018,0.028307131591122615,0.06962722201680774,0.05385140383402944
19.912,19.7,-0.64,0.059512116221199646,0.03610304558409755,0.048744340150746156,0.028341448814740412,0.06958708043281699,0.05388415038850143
19.972,19.76,-0.73,0.0593094946258703,0.036035420530760254,0.04882544729052284,0.028374417837837233,0.06955808511335246,0.05391857194099915
20.034,19.81,-0.89,0.05911023036775794,0.03596071521942603,0.048907285472422325,0.028406081528001934,0.06954024549717,0.053954697160956556
20.075,19.87,-0.76,0.058914401295742026,0.03587876210739084,0.04898990809224703,0.028436483888116322,0.06953356196029702,0.05399255529230682
20.195,19.92,-0.63,0.05872207910676439,0.035789397765090505,0.0490733693171343,0.028465670057216105,0.0695380259301002,0.05403217617853515
20.215,19.98,-0.91,0.05853332938860481,0.03569246315586859,0.04915772411045579,0.02849368631138274,0.06955362000887205,0.05407359028824023
20.278,20.03,-0.84,0.05834821167245438,0.03558780391582807,0.04924302825757161,0.02852058006467109,0.06958031810661026,0.05411682874128034
20.298,20.09,-0.65,0.058166779495300726,0.03547527063338125,0.04932933839235484,0.0285463998700936,0.06961808558264573,0.05416192333562874
20.361,20.14,-0.86,0.05798908047211938,0.03535471912812938,0.04941671202437771,0.028571195420699233,0.06966687939575297,0.054208906575102044
20.421,20.2,-0.9,0.05781515637784293,0.03522601072872278,0.049505207566624576,0.02859501755079923,0.06972664826234261,0.054257811698152095
20.463,20.25,-0.67,0.05764504323905146,0.035089012549369594,0.049594884363570284,0.02861791823739966,0.06979733282230961,0.05430867270790023
20.564,20.31,-0.72,0.05747877143529785,0.0349435977646652,0.04968580271944806,0.02863995060189437,0.0698788658120905,0.05436152440354417
20.584,20.36,-0.88,0.057316365809944494,0.03478964588241779,0.04977802392653301,0.028661168912050696,0.06997117224446224,0.0544164024132034
20.626,20.42,-0.73,0.05715784579034457,0.03462704301416054,0.04987161029327181,0.028681628584295273,0.07007416959460837,0.05447334322820155
20.687,20.47,-0.57,0.057003225517162776,0.034455682143058476,0.04996662517210029,0.028701386186283952,0.07018776799199128,0.05453238423872616
20.749,20.53,-0.82,0.05685251398260074,0.03427546338892964,0.050063132986806085,0.028720499439723306,0.07031187041757928,0.05459356377079012
20.811,20.58,-0.73,0.05670571517727012,0.03408629427011629,0.050161199259299724,0.028739027223409007,0.07044637290598878,0.05465692112444799
20.934,20.64,-0.56,0.05656282824544056,0.03388808996197444,0.05026089063565297,0.02875702957645794,0.07059116475212823,0.05472249661326002
20.954,20.69,-0.75,0.056423847648382444,0.033680773551794975,0.05036227491126214,0.028774567701725016,0.07074612872195679,0.054790331605036824
20.995,20.75,-0.78,0.056288763335519236,0.03346427629002244,0.050465421054989454,0.028791703969407927,0.07091114126698056,0.054860468563931696
21.015,20.8,-0.56,0.056157560923101806,0.03323853783768122,0.050570399232124925,0.02880850192085258,0.07108607274211606,0.054932951093949196
21.077,20.86,-0.62,0.05603022188011677,0.03300350650993853,0.050677280826008655,0.028825026272569377,0.07127078762655734,0.055007823983898724
21.138,20.91,-0.83,0.05590672372113447,0.03275913951572814,0.05078613845816167,0.02884134292045435,0.07146514474728237,0.055085133253764115
21.179,20.97,-0.71,0.055787040205786405,0.032505403193336176,0.050897046006780744,0.028857518944189635,0.07166899750484165,0.05516492620239554
21.241,21.02,-0.56,0.05567114154454336,0.032242273241809886,0.051010078623459874,0.028873622611779334,0.07188219410107699,0.055247251456371785
21.302,21.08,-0.83,0.05555899461044431,0.03196973494800921,0.051125312748007766,0.028889723384163003,0.07210457776840008,0.055332159019863984
21.364,21.13,-0.74,0.055450563156397896,0.03168778340910512,0.051242826121223044,0.028905891919848364,0.07233598700022556,0.05541970032535899
21.426,21.19,-0.51,0.05534580803765295,0.03139642375034115,0.05136269779546894,0.02892220007951753,0.07257625578213422,0.05550992828514151
21.489,21.24,-0.69,0.05524468743902217,0.03109567133789946,0.05148500814287658,0.028938720930573557,0.07282521382333317,0.05560289734347437
21.51,21.3,-0.71,0.055147157106442336,0.03078555198674129,0.051609838861003766,0.0289555287515984,0.07308268678797768,0.05569866352945217
21.572,21.35,-0.47,0.05505317058246173,0.030466102163312442,0.05173727297578333,0.028972699036687588,0.07334849652594104,0.05579728451050677
21.675,21.41,-0.51,0.05496267944526116,0.03013736918300468,0.05186739484161916,0.02899030849960871,0.07362246130265691,0.05589881964650788
21.696,21.46,-0.7,0.054875633550830014,0.029799411402241453,0.05200029013852097,0.02900843507770651,0.07390439602769945,0.05600333004435386
21.737,21.52,-0.58,0.05479198127793436,0.029452298405018996,0.05213604586619612,0.029027157935459385,0.07419411248181162,0.05611087861290249
21.8,21.57,-0.44,0.05471166977553805,0.029096111183681033,0.052274750335041024,0.029046557467582498,0.07449141954213961,0.05622153011805854
21.841,21.63,-0.74,0.05463464521236621,0.028730942313649414,0.052416493153998475,0.029066715301568114,0.07479612340545257,0.05633535123784351
21.901,21.68,-0.7,0.05456085302832029,0.02835689612179879,0.05256136521525658,0.029087714299558903,0.07510802780912257,0.05645241061731883
21.963,21.74,-0.51,0.05449023818746046,0.027974088848155155,0.05270945867575868,0.029109638559462893,0.07542693424962876,0.05657277892328056
22.045,21.79,-0.7,0.05442274543226543,0.02758264880060583,0.052860866935486694,0.029132573415229394,0.07575264219832396,0.056696528898677066
22.066,21.85,-0.73,0.0543583195388572,0.027182716502326305,0.053015684612466925,0.029156605436211326,0.07608494931415884,0.05682373541672382
22.127,21.9,-0.48,0.054296905572840365,0.02677444483165112,0.05317400751442667,0.02918182242554242,0.07642365165302366,0.05695447553467904
22.188,21.96,-0.47,0.05423844914536594,0.02635799915412917,0.05333593260701902,0.029208313417450605,0.07676854387335287,0.05708882854719623
22.271,22.01,-0.67,0.05418289666899409,0.025933557446510772,0.05350155797853809,0.029236168673411278,0.07711941943764046,0.05722687603910703
22.292,22.07,-0.5,0.05413019561290647,0.025501310412419997,0.05367098280105784,0.029265479677027816,0.07747607080954852,0.05736870193742463
22.334,22.12,-0.26,0.05408029475702029,0.025061461589460345,0.05384430728794641,0.029296339127516342,0.07783828964635324,0.057514392562306116
22.396,22.18,-0.57,0.05403314444458319,0.024614227447482248,0.054021632647734984,0.029328840931667995,0.07820586698653077,0.05766403667670677
22.457,22.23,-0.52,0.05398869683286668,0.024159837477725574,0.05420306103434073,0.029363080194168934,0.07857859343234135,0.057817725534493075
22.518,22.29,-0.29,0.05394690614161394,0.023698534272553834,0.054388695493649344,0.02939915320617667,0.07895625932733805,0.057975552926818476
22.58,22.34,-0.47,0.05390772889892824,0.02323057359551866,0.05457863990646628,0.029437157432069847,0.07933865492878678,0.05813761522659607
22.64,22.4,-0.56,0.05387112418430121,0.022756224441530873,0.0547729989278439,0.029477191494302717,0.0797255705750134,0.05830401143092972
22.68,22.45,-0.35,0.05383705386847305,0.022275769086958754,0.05497187792278096,0.02951935515630532,0.08011679684771528,0.05847484320136083
22.804,22.51,-0.36,0.053805482849802105,0.021789503129500724,0.05517538289828616,0.029563749303369764,0.08051212472929592,0.05865021490174685
22.826,22.56,-0.67,0.05377637928680314,0.021297735517682177,0.05538362043180182,0.029610475921452818,0.08091134575529081,0.058830233633538245
22.846,22.62,-0.55,0.053749714826497694,0.020800788569809478,0.05559669759598486,0.02965963807381537,0.08131425216195806,0.05901500926817747
22.909,22.67,-0.37,0.05372546482821654,0.020298997982178754,0.055814721879845916,0.029711339875413974,0.08172063702910305,0.05920465447631594
22.969,22.73,-0.63,0.05370360858250068,0.019792712826296244,0.05603780110625814,0.029765686464956042,0.08213029441817157,0.05939928475355788
23.01,22.78,-0.59,0.053684129524756666,0.019282295534846495,0.05626604334585311,0.029822783974534993,0.08254301950559131,0.059599018442494815
23.071,22.84,-0.33,0.05366701544333425,0.018768121876149967,0.056499556827315896,0.029882739496775817,0.08295860871131097,0.05980397675085306
23.133,22.89,-0.48,0.053652258681714936,0.018250580916873767,0.05673844984408954,0.029945661049436047,0.08337685982248118,0.06001428376562177
23.175,22.95,-0.54,0.05363985633452037,0.017730074972791547,0.05698283065750095,0.03001165753741698,0.08379757211222895,0.06023006646306363
23.215,23.0,-0.32,0.053629810437064905,0.017207019547422677,0.05723280739632206,0.030080838712146896,0.08422054645350746,0.060451454714512944
23.276,23.06,-0.28,0.053622128148188286,0.016681843258398936,0.057488487952796624,0.030153315128295242,0.08464558542805091,0.06067858128783344
23.338,23.11,-0.51,0.05361682192611331,0.016154987751406485,0.057749979875192925,0.030229198097765447,0.08507249343051271,0.06091158184437336
23.379,23.17,-0.4,0.05361390969708312,0.0156269076015397,0.05801739025697042,0.030308599640906767,0.08550107676791756,0.061150594931227285
23.441,23.22,-0.24,0.05361341501655624,0.015098070201878087,0.05829082562266983,0.030391632434886965,0.08593114375461743,0.0613957619685973
23.565,23.28,-0.56,0.05361536722277433,0.01456895563906508,0.0585703918106589,0.030478409759174346,0.086362504802977,0.06164722723206088
23.585,23.33,-0.56,0.053619801582549545,0.014040056555652077,0.05885619385287798,0.03056904543809182,0.08679497251002471,0.06190513782959954
23.625,23.39,-0.34,0.05362675942913765,0.01351187799897972,0.05914833585172703,0.030663653780425876,0.08722836174029872,0.06216964367328681
23.667,23.44,-0.52,0.0536362882920698,0.012984937256389474,0.0594469208542324,0.03076234951609017,0.0876624897050912,0.06244089744556724
23.73,23.5,-0.59,0.053648442018806475,0.012459763676586362,0.05975205072362322,0.030865247729852593,0.08809717603824058,0.06271905456008167
23.793,23.55,-0.36,0.05366328088805943,0.011936898476999674,0.06006382600843144,0.030972463792141285,0.08853224286857776,0.06300427311699046
23.877,23.61,-0.28,0.05368087171461035,0.011416894537001268,0.06038234580921705,0.031084113286944194,0.08896751488911327,0.06329671385271401
23.896,23.66,-0.51,0.05370128794544738,0.010900316176841297,0.06070770764302086,0.03120031193681041,0.0894028194230521,0.06359654008397717
23.936,23.72,-0.36,0.053724609747048145,0.010387738922157691,0.06104000730565013,0.03132117552495846,0.08983798648675609,0.0639039176460221
23.998,23.77,-0.19,0.05375092408367004,0.0098797492539014,0.06137933873191466,0.03144681981450053,0.09027284884983641,0.06421901482484245
24.059,23.83,-0.48,0.0537803247865639,0.009376944343499652,0.06172579385395266,0.03157736046479969,0.09070724209262268,0.06454200228331096
24.12,23.88,-0.48,0.053812912614086904,0.0088799317730728,0.06207946245780662,0.03171291294499233,0.09114100466129993,0.06487305298112842
24.243,23.94,-0.27,0.0538487953027437,0.008389329240536135,0.06244043203841968,0.03185359244473037,0.091573977921038,0.06521234208857966
24.264,23.99,-0.46,0.0538880876092259,0.0079057642494457,0.06280878765323546,0.03199951378221689,0.09200600620744792,0.06556004689413117
24.284,24.05,-0.57,0.05393091134354089,0.007429873783486415,0.06318461177459285,0.03215079130962124,0.0924369368766749,0.0659163467059479
24.327,24.1,-0.36,0.05397739539331867,0.006962303965544814,0.06356798414110433,0.03230753881596953,0.09286662035440664,0.06628142274742195
24.368,24.16,-0.33,0.05402767573936977,0.006503709701339587,0.06395898160820185,0.03246986942760894,0.0932949101840456,0.06665545804678809
24.431,24.21,-0.57,0.054081895462545757,0.006054754307595901,0.06435767799803414,0.03263789550634073,0.0937216630742639,0.06703863732087931
24.493,24.27,-0.44,0.054140204741932714,0.0056161091247475484,0.0647641439488923,0.03281172854531525,0.09414673894614153,0.06743114685305342
24.555,24.32,-0.26,0.054202760844396305,0.005188453114142382,0.06517844676433424,0.032991479062785725,0.09457000098009437,0.06783317436530363
24.616,24.38,-0.53,0.054269728105490606,0.0047724724397359254,0.06560065026217941,0.03317725649382393,0.09499131566280164,0.06824490888457085
24.657,24.43,-0.52,0.0543412779017273,0.004368860034315932,0.06603081462354438,0.03336916908011278,0.09541055283434098,0.06866654060330969
24.697,24.49,-0.28,0.05441758861418387,0.003978315150396686,0.06646899624208456,0.033567323757949095,0.0958275857357448,0.06909826073439625
24.78,24.54,-0.42,0.05449884558342245,0.0036015428960159443,0.06691524757361247,0.03377182604460036,0.09624229105719484,0.06954026136049692
24.821,24.6,-0.53,0.05458524105569555,0.003239253755736779,0.06736961698627421,0.033982779923160865,0.09665454898706113,0.0699927352780447
24.881,24.65,-0.32,0.05467697412042545,0.002892163097201672,0.06783214861147517,0.03420028772604852,0.09706424326198952,0.07045587583597482
24.985,24.71,-0.27,0.054774250638957196,0.0025609906636048,0.06830288219575811,0.03442445001727378,0.09747126121825327,0.07092987676934907
25.005,24.76,-0.53,0.054877283164600776,0.0022464600524466543,0.06878185295386212,0.034655365473594435,0.09787549384459465,0.07141493202798556
25.047,24.82,-0.43,0.05498629085399279,0.001949298180928522,0.06926909142321841,0.034893130764652926,0.09827683583679671,0.07191123560021105
25.087,24.87,-0.29,0.05510149936983101,0.0016702347383353564,0.06976462332016586,0.03513784043218296,0.09867518565424722,0.07241898133186275
25.15,24.93,-0.61,0.055223140775063774,0.001410001625745463,0.07026846939819033,0.03538958676837057,0.09907044557875858,0.07293836274069865
25.211,24.98,-0.63,0.055351453418640596,0.0011693323834092,0.07078064530849508,0.03564845969346416,0.09946252177587717,0.07346957282643153
25.254,25.04,-0.4,0.0554866818129441,0.0009489616061576765,0.07130116146319762,0.03591454663274365,0.09985132435886783,0.07401280387665352
25.358,25.09,-0.55,0.055629076503026724,0.0007496243472254259,0.07183002290144014,0.03618793239296686,0.10023676745548765,0.07456824726895839
25.379,25.15,-0.65,0.05577889392776503,0.0005720555108957762,0.07236722915869648,0.03646869903840955,0.10061876927757513,0.0751360932695986
25.44,25.2,-0.44,0.055936396273022895,0.00041698923440133985,0.07291277413955055,0.03675692576661005,0.10099725219341027,0.07571653082901206
25.481,25.26,-0.36,0.05610185131689604,0.00028515825952520085,0.07346664599421462,0.037052688783922524,0.10137214280276557,0.07630974737452152
25.543,25.31,-0.58,0.05627553226709566,0.00017729329435307346,0.07402882699905156,0.0373560611809767,0.1017433720145492,0.07691592860048489
25.584,25.37,-0.44,0.05645771759052385,9.41223656379206e-05,0.07459929344135029,0.0376671128081493,0.10211087512694665,0.07753525825616953
25.646,25.42,-0.25,0.056648690835101274,3.6370162255138937e-05,0.07517801550858196,0.03798591015117268,0.10247459190999762,0.07816791793162618
25.727,25.48,-0.53,0.056848740443928125,4.757370248667771e-06,0.07576495718235376,0.03831251620702945,0.10283446669057787,0.07881408684185749
25.748,25.53,-0.55,0.05705815956187899,0.0,0.07636007613727042,0.03864699036030708,0.10319044843977915,0.07947394160960665
25.809,25.59,-0.32,0.057277245834750724,2.2808706090517177e-05,0.07696332364490895,0.03898938826020799,0.10354249086270156,0.08014765604710768
25.87,25.64,-0.5,0.05750630120109701,7.388810045816375e-05,0.0775746444831234,0.03933976169841817,0.10389055249067194,0.08083540093713748
25.91,25.7,-0.69,0.057745631676889016,0.00015393605947273918,0.07819397685091306,0.03969815848802974,0.10423459677586998,0.08153734381370371
25.972,25.75,-0.5,0.05799554713313203,0.0002636430255683605,0.07882125228910114,0.04006462234369671,0.10457459218829795,0.08225364874268105
26.034,25.81,-0.44,0.05825636106654971,0.0004036913040684917,0.07945639560707725,0.04043919276318549,0.10491051231497735,0.08298447610267656
26.139,25.86,-0.68,0.05852839036342034,0.0005747543558276667,0.08009932481585685,0.040821904910464106,0.10524233596118084,0.08372998236639621
26.158,25.92,-0.53,0.0588119550566159,0.000777496086311002,0.080749951067692,0.04121278950047041,0.10557004725343741,0.08449031988279661
26.199,25.97,-0.32,0.05910737807586999,0.0010125701317420343,0.08140817860243703,0.041611872685709955,0.10589363574400554,0.08526563666031502
26.26,26.03,-0.56,0.05941498499129235,0.0012806191429693794,0.08207390470084634,0.042019175944850856,0.10621309651649033,0.08605607615148465
26.322,26.08,-0.56,0.05973510375015246,0.001582274067736561,0.08274701964495498,0.04243471597350387,0.1065284302922752,0.08686177703926445
26.384,26.14,-0.32,0.06006806440696906,0.0019181534320815564,0.0834274066856698,0.04285850457739597,0.10683964353745597,0.08768287302542094
26.446,26.19,-0.45,0.06041419884696641,0.0022888626216260636,0.08411494201769312,0.04329054856815527,0.10714674856998375,0.0885194926212962
26.467,26.25,-0.56,0.060773840502983116,0.0026949931635378765,0.08480949476191024,0.04373084966192083,0.10744976366672578,0.089371758941292
26.508,26.3,-0.37,0.06114732406594051,0.003137122009964702,0.08551092695538662,0.04417940438098,0.10774871317015358,0.09023978949938279
26.569,26.36,-0.27,0.06153498518899491,0.0036158108237401357,0.08621909354913879,0.044636203958621036,0.10804362759437654,0.09112369600893587
26.631,26.41,-0.54,0.06193716018551146,0.00413160526715903,0.08693384241385928,0.04510123424737402,0.108334543730239,0.09202358418609231
26.692,26.47,-0.44,0.06235418572100399,0.004685034294622238,0.08765501435376954,0.04557447563081143,0.108621504749204,0.09293955355695192
26.753,26.52,-0.27,0.0627863984991936,0.0052766094499624785,0.08838244312875201,0.046055902939092196,0.10890456030576508,0.09387169726879474
26.814,26.58,-0.53,0.06323413494235101,0.005906824169275121,0.08911595548488442,0.04654548536844989,0.10918376663813034,0.09482010190557115
26.854,26.63,-0.54,0.06369773086609662,0.006576153090092875,0.08985537119347185,0.04704318640484119,0.10945918666690314,0.09578484730790748
26.896,26.69,-0.3,0.0641775211488367,0.0072850513677531386,0.09060050309864291,0.04754896375198087,0.10973089009145467,0.09676600639787504
26.958,26.74,-0.41,0.06467383939602026,0.008033953999801485,0.091351157173565,0.04806276926398433,0.10999895348365078,0.09776364500874993
27.019,26.8,-0.52,0.06518701759940708,0.008823275159255383,0.09210713258533772,0.04858454888281805,0.11026346037855461,0.09877782171995965
27.082,26.85,-0.3,0.06571738579154651,0.009653407537526745,0.09286822176862909,0.0491142425807321,0.1105245013617075,0.099808587697365
27.125,26.91,-0.21,0.06626527169568386,0.010524721697769128,0.09363421050812881,0.04965178430782281,0.11078217415259585,0.10085598653897222
27.187,26.96,-0.45,0.06683100037133277,0.011437565439387643,0.09440487802990268,0.05019710194485201,0.11103658368392838,0.10192005412614596
27.227,27.02,-0.31,0.06741489385577534,0.012392263174441384,0.09517999710172771,0.05075011726144466,0.1112878421763745,0.10300081848040364
27.289,27.07,-0.11,0.06801727080178009,0.01338911531667964,0.09595933414246556,0.051310745879799495,0.11153606920846114,0.10409829962589905
27.371,27.13,-0.35,0.0686384461118643,0.014428397683977084,0.09674264934050182,0.05187889724406915,0.1117813917813628,0.10521250945774369
27.392,27.18,-0.36,0.06927873056945846,0.015510360914967521,0.09752969678123462,0.05245447459559106,0.11202394437834809,0.10634345161636197
27.454,27.24,-0.14,0.06993843046735616,0.016635229900711576,0.09832022458354639,0.053037374954172524,0.11226386901867667,0.10749112136809391
27.558,27.29,-0.28,0.0706178472338539,0.017803203232257193,0.09911397504516281,0.05362748910563953,0.11250131530576354,0.10865550549224219
27.578,27.35,-0.42,0.07131727705699747,0.01901445266495494,0.09991068479679817,0.054224701595844214,0.11273644046942914,0.10983658217472554
27.62,27.4,-0.23,0.07203701050735263,0.020269122600379417,0.10071008496498697,0.054828890731302045,0.11296940940204886,0.11103432090844584
27.68,27.46,-0.13,0.07277733215970883,0.021567329586683462,0.10151190134350452,0.05543992858660022,0.11320039468841125,0.11224868240041193
27.721,27.51,-0.38,0.07353852021410644,0.022909161838188564,0.10231585457327927,0.05605768101869182,0.11342957662908147,0.11347961848562399
27.783,27.57,-0.23,0.07432084611655712,0.02429467877500705,0.10312166033068151,0.05668200768817773,0.11365714325705925,0.11472707204771425
27.846,27.62,-0.01,0.07512457417982045,0.02572391058349579,0.10392902952404165,0.05731276208768185,0.11388329034754113,0.1159909769463471
27.928,27.68,-0.24,0.07594996120461588,0.02719685779834874,0.10473766849822046,0.05794979157743597,0.11410822142062495,0.11727125795140377
27.948,27.73,-0.26,0.07679725610168017,0.02871349090714727,0.1055472792470259,0.05859293742820434,0.11433214773682751,0.1185678306840084
28.05,27.79,-0.03,0.07766669951512133,0.03027374997819523,0.10635755963324704,0.05924203487168866,0.11455528828533534,0.11988060156445826
28.07,27.84,-0.18,0.07855852344756914,0.031877544312455576,0.10716820361607447,0.05989691315855131,0.11477786976495596,0.12120946776710347
28.132,27.9,-0.34,0.07947295088766773,0.03352475212037569,0.10797890148569332,0.06055739562417373,0.11500012655775896,0.12255431718219961
28.172,27.95,-0.2,0.08041019544049102,0.03521522022434629,0.10878934010485518,0.06122329976223897,0.11522230069540287,0.12391502838473539
28.234,28.01,-0.13,0.08137046096148591,0.03694876378748863,0.10959920315725437,0.06189443730619686,0.11544464181813427,0.1252914706102218
28.296,28.06,-0.41,0.08235394119455591,0.03872516606942209,0.11040817140254888,0.06257061431864282,0.11566740712641131,0.12668350373744752
28.357,28.12,-0.3,0.08336081941488505,0.04054417820965439,0.11121592293785765,0.0632516312886262,0.1158908613250598,0.12809097827826038
28.399,28.17,-0.12,0.08439126807707865,0.04240551903926121,0.11202213346554273,0.0639372832369019,0.11611527655983468,0.1295137353744931
28.461,28.23,-0.33,0.08544544846916921,0.044308874921563095,0.1128264765670613,0.06462735982913664,0.11634093234622785,0.13095160680220727
28.523,28.28,-0.33,0.08652351037301033,0.04625389962254458,0.11362862398265305,0.06532164549707548,0.11656811549032678,0.13240441498347064
28.564,28.34,-0.08,0.08762559173156254,0.04824021421177819,0.11442824589661352,0.06601991956766369,0.11679712000151636,0.13387197300588197
28.709,28.39,-0.16,0.08875181832357032,0.05026740699460548,0.11522501122790256,0.06672195640009873,0.11702824699682146,0.13535408465002094
28.73,28.45,-0.28,0.08990230344613453,0.05233503347629253,0.11601858792585118,0.06742752553075722,0.11726180459670012,0.1368505444249519
28.75,28.5,-0.1,0.09107714760569738,0.05444261635882811,0.11680864327074524,0.06813639182591179,0.11749810781212985,0.13836113761185947
28.771,28.56,0.03,0.09227643821797274,0.0565896455709746,0.11759484417908656,0.06884831564212712,0.11773747842287785,0.1398856403158497
28.834,28.61,-0.23,0.09350024931736965,0.058775578332129715,0.1183768575133497,0.06956305299420693,0.11798024484689086,0.14142381952594021
28.895,28.67,-0.11,0.09474864127646192,0.06099983925052582,0.11915435039605458,0.07028035573056295,0.11822674200078412,0.14297543318328584
28.936,28.72,0.08,0.09602166053606578,0.06326182045627483,0.11992699052796393,0.0709999717158912,0.11847731115146345,0.14454023025771584
29.038,28.78,-0.18,0.09731933934650351,0.0655608817697458,0.12069444651020607,0.07172164502105575,0.11873229975895991,0.14611795083269002
29.058,28.83,-0.22,0.09864169552064848,0.06789635090573778,0.12145638817011221,0.07244511612009433,0.11899206131058607,0.14770832619881732
29.099,28.89,-0.02,0.09998873219936111,0.07026752371387987,0.12221248689053663,0.07317012209427139,0.11925695514654644,0.14931107895609547
29.16,28.94,-0.14,0.10136043762993115,0.07267366445564659,0.1229624159424136,0.0738963968431018,0.11952734627714115,0.1509259231250219
29.222,29.0,-0.31,0.10275678495813549,0.07511400611831669,0.12370585082029739,0.07462367130224976,0.1198036051916799,0.15255256426671265
29.282,29.05,-0.16,0.10417773203449932,0.07758775076612678,0.12444246958061987,0.07535167366818163,0.12008610765919235,0.1541906996121357
29.323,29.11,-0.01,0.10562322123532167,0.08009406992878222,0.12517195318239013,0.07608012962942226,0.12037523452099372,0.15584001820052854
29.384,29.16,-0.28,0.10709317929899315,0.08263210502739816,0.12589398583005026,0.07680876260423752,0.12067137147512962,0.15750020102705542
29.446,29.22,-0.17,0.10858751717809852,0.08520096783787844,0.12660825531817774,0.07753729398455106,0.12097490885270157,0.1591709211997727
29.508,29.27,0.04,0.11010612990777302,0.08779974099169346,0.12731445337769057,0.07826544338590191,0.12128624138608031,0.16085184410598627
29.549,29.33,-0.14,0.11164889649077481,0.09042747851398333,0.12801227602318038,0.0789929289032511,0.12160576796903418,0.16254262758810128
29.611,29.38,-0.17,0.11321567979974088,0.09308320639888161,0.12870142390096936,0.07971946737244588,0.12193389140882016,0.16424292212908184
29.673,29.44,0.04,0.11480632649710588,0.0957659232219279,0.12938160263745965,0.08044477463714812,0.12227101817032149,0.1659523710476269
29.757,29.49,-0.05,0.11642066697317872,0.09847460078939338,0.13005252318733077,0.08116856582101806,0.12261755811235814,0.16767061070312023
29.778,29.55,-0.24,0.11805851530287867,0.10120818482428448,0.1307139021811394,0.0818905556049172,0.12297392421632701,0.1693972707103511
29.819,29.6,-0.1,0.11971966922162335,0.10396559568871587,0.13136546227187434,0.08261045850886119,0.12334053230734948,0.1711319741639443
29.88,29.66,-0.0,0.12140391012084017,0.10674572914226395,0.13200693248001974,0.0833279891784206,0.12371780076811426,0.17287433787239653
29.94,29.71,-0.28,0.12311100306353553,0.10954745713583461,0.13263804853668043,0.0840428626752369,0.12410615024558733,0.17462397260160886
29.982,29.77,-0.18,0.12484069682030195,0.11236962864052519,0.1332585532243071,0.08475479477129887,0.12450600335072891,0.17638048332782597
30.045,29.82,0.01,0.12659272392608553,0.11521107051092301,0.13386819671452607,0.0854635022466143,0.12491778435133544,0.17814346949990664
30.127,29.88,-0.17,0.12836680075798032,0.11807058838224543,0.13446673690254735,0.08616870318990076,0.12534191885810236,0.17991252531084345
30.148,29.93,-0.17,0.13016262763426073,0.12094696760068561,0.1350539397375954,0.08687011730190743,0.12577883350398655,0.18168723997842662
30.21,29.99,0.06,0.13197988893480941,0.12383897418627945,0.1356295795487873,0.08756746620096598,0.1262289556169502,0.18346719803488765
30.25,30.04,0.0,0.13381825324304614,0.12674535582754393,0.13619343936587788,0.08826047373034406,0.12669271288619613,0.1852519796252635
30.312,30.1,-0.17,0.13567737350941492,0.12966484290705513,0.13674531123430128,0.08894886626693642,0.1271705330220366,0.1870411608141237
30.375,30.15,0.0,0.13755688723644335,0.1325961495570351,0.13728499652393875,0.0896323730307857,0.12766284340958123,0.18883431390020644
30.436,30.21,0.14,0.1394564166853527,0.1355379747438987,0.13781230623104532,0.09031072639488245,0.12817007075647985,0.1906310077384286
30.499,30.26,-0.14,0.14137556910416665,0.13848900338058961,0.13832706127276884,0.09098366219465644,0.1286926407349858,0.1924308080686961
30.541,30.32,-0.04,0.14331393697722256,0.14144790746543648,0.1388290927736777,0.09165092003654836,0.12923097761862873,0.19423327785093802
30.581,30.37,0.1,0.14527109829593163,0.1444133472461883,0.13931824234367904,0.09231224360504413,0.12978550391381835,0.19603797760578515
30.643,30.43,-0.11,0.1472466168505682,0.14738397240782863,0.13979436234667247,0.09296738096754689,0.13035663998672098,0.19784446576031162
30.706,30.48,-0.16,0.14924004254279302,0.15035842328271304,0.1402573161592424,0.093616084876452,0.1309448036857518,0.19965229899825498
30.768,30.54,0.04,0.1512509117185293,0.15333533208150776,0.1407069784186422,0.09425811306777589,0.13155040996001427,0.2014610326141064
30.809,30.59,-0.01,0.15327874752072215,0.15631332414332444,0.14114323525927738,0.0948932285556631,0.13217387047400217,0.20327022087040603
30.87,30.65,-0.21,0.15532306026141446,0.15929101920333427,0.1415659845368577,0.09552119992205729,0.1328155932188496,0.2050794173575005
30.911,30.7,-0.04,0.15738334781247384,0.16226703267601192,0.14197513603935183,0.09614180160077831,0.13347598212039788,0.2068881753549257
30.971,30.76,0.12,0.1594590960142164,0.1652399769520083,0.14237061168385182,0.09675481415520622,0.13415543664434249,0.2086960481934913
31.031,30.81,-0.17,0.1615497791011002,0.1682084627064895,0.14275234569843767,0.09736002454873299,0.1348543513987148,0.21050258961709598
31.092,30.87,-0.06,0.16365486014359276,0.17117110021664333,0.14312028478811975,0.09795722640711464,0.13557311573394995,0.21230735414330346
31.134,30.92,0.22,0.1657737915052563,0.17412650068594718,0.14347438828392378,0.09854622027183975,0.13631211334081086,0.21410989742172007
31.296,30.98,0.09,0.1679060153140422,0.17707327757270772,0.14381462827418934,0.09912681384361816,0.13707172184646588,0.2159097765892376
31.317,31.03,0.04,0.17005096394674118,0.18001004792032016,0.14414098971718103,0.09969882221509034,0.13785231240905274,0.21770655062123706
31.337,31.09,0.29,0.17220806052550142,0.18293543368665469,0.14445347053417584,0.10026206809187119,0.1386542493111279,0.21949978067787035
31.358,31.14,0.28,0.17437671942531308,0.18584806306996138,0.144752081682325,0.10081638200108058,0.13947788955249704,0.22128903044455125
31.419,31.2,0.01,0.1765563467913612,0.18874657182870216,0.14503684720676993,0.1013616024865864,0.14032358244301632,0.2230738664658363
31.48,31.25,0.17,0.17874634106517187,0.19162960459277145,0.14530780427167594,0.10189757629029528,0.14119166919603587,0.22485385847195355
31.52,31.31,0.28,0.1809460935185215,0.19449581616363118,0.14556500316999743,0.10242415851894805,0.14208248252321995,0.22662857969733313
31.583,31.36,-0.03,0.18315498879413472,0.19734387280095653,0.14580850731191333,0.10294121279597823,0.1429963462315008,0.228397607190609
31.645,31.42,0.0,0.18537240545224454,0.20017245349347262,0.14603839319196896,0.10344861139807685,0.1439335748229103,0.23016052211569926
31.706,31.47,0.24,0.18759771652211985,0.20298025121177088,0.14625475033504756,0.10394623537618677,0.144894473098014,0.23191691004370282
31.768,31.53,0.09,0.18983029005768393,0.2057659741410143,0.1464576812213795,0.10443397466072328,0.1458793357636371,0.23366636123546075
31.81,31.58,0.01,0.1920694896963452,0.2085283468915775,0.14664730119087255,0.10491172815088343,0.14688844704553247,0.23540847091472678
31.871,31.64,0.29,0.19431467522015397,0.21126611168580245,0.14682373832709214,0.10537940378797238,0.14792208030662427,0.23714283953193815
31.953,31.69,0.32,0.19656520311839873,0.21397802951917147,0.14698713332126434,0.10583691861272755,0.14898049767147953,0.23886907301858154
31.973,31.75,0.05,0.1988204271507674,0.21666288129429292,0.14713763931672236,0.10628419880666753,0.15006394965769745,0.24058678303212971
32.035,31.8,0.2,0.20107969891022578,0.2193194689261715,0.14727542173426578,0.1067211797175389,0.1511726748149617,0.24229558719151278
32.096,31.86,0.3,0.20334236838481126,0.22194661641728797,0.14740065807894834,0.10714780586898437,0.15230689937256875,0.24399510930307447
32.137,31.91,0.0,0.20560778451760311,0.22454317090105605,0.14751353772886122,0.10756403095460558,0.15346683689628354,0.24568497957699442
32.199,31.97,-0.02,0.2078752957641881,0.22710800365228134,0.14761426170651568,0.10796981781664743,0.15465268795536863,0.24736483483422492
32.26,32.02,0.15,0.21014425064697884,0.22964001106333398,0.147703042433446,0.10836513840959135,0.15586463980060375,0.24903431870406093
32.342,32.08,0.0,0.2124139983057646,0.23213811558484443,0.14778010346867224,0.10874997374899566,0.15710286605405444,0.25069308181251754
32.362,32.13,-0.16,0.2146838890438679,0.2346012666298421,0.1478456792316729,0.10912431384595594,0.15836752641125815,0.2523407819617259
32.403,32.19,0.08,0.2169532748692566,0.2370284414403547,0.14790001471052225,0.10948815762758006,0.15965876635640935,0.25397708430054944
32.464,32.24,0.13,0.21922151002992912,0.23941864591556777,0.14794336515584566,0.10984151284387783,0.16097671689105475,0.2556016614865695
32.505,32.3,-0.14,0.22148795154286424,0.2417709154006979,0.1479759957612566,0.11018439596146273,0.16232149427674827,0.25721419383952615
32.586,32.35,0.08,0.22375195971580963,0.24408431543578174,0.14799818133093562,0.11051683204446287,0.1636931997920801,0.25881436948625075
32.628,32.41,0.22,0.22601289866118854,0.2463579424636326,0.14801020593500894,0.11083885462304688,0.16509191950448954,0.26040188449708934
32.71,32.46,-0.01,0.22827013680143657,0.24859092449626133,0.1480123625533835,0.11115050554998415,0.16651772405727205,0.2619764430138161
32.751,32.52,0.02,0.23052304736512425,0.2507824217391214,0.1480049527086942,0.1114518348456769,0.1679706684721964,0.2635377573690662
32.813,32.57,0.26,0.23277100887327024,0.2529316271726128,0.14798828608901654,0.11174290053212484,0.16945079196816262,0.2650855481973515
32.874,32.63,0.17,0.23501340561530193,0.2550377670903619,0.14796268016101666,0.11202376845629819,0.1709581177963487,0.2666195445377536
32.916,32.68,-0.01,0.23724962811416303,0.2571001015938795,0.14792845977425179,0.11229451210340242,0.17249265309229417,0.2681394839284228
32.979,32.74,0.21,0.23947907358010137,0.25911792504329245,0.1478859567573778,0.11255521240052536,0.17405438874537965,0.2696451124930277
33.06,32.79,0.23,0.24170114635270273,0.2610905664639313,0.14783550950708466,0.11280595751116781,0.175643299286176,0.27113618501929987
33.081,32.85,-0.09,0.24391525833076144,0.26301738990864154,0.1477774625706329,0.11304684262117122,0.17725934279213557,0.27261246502982517
33.143,32.9,0.08,0.24612082938959876,0.26489779477578573,0.1477121662228918,0.1132779697165832,0.1789024608120748,0.274073724845256
33.163,32.96,0.21,0.24831728778545537,0.26673121608301537,0.14763997603876422,0.11349944735403968,0.18057257830986462,0.27551974564013776
33.226,33.01,0.01,0.250504070546604,0.2685171246970066,0.1475612524618603,0.11371139042427546,0.182269603627691,0.27695031749157345
33.288,33.07,-0.0,0.2526806238508514,0.27025502751946634,0.14747636037024053,0.11391391990940115,0.18399342846918051,0.2783652394209818
33.37,33.12,0.22,0.25484640338913095,0.27194446762981966,0.1473856686400093,0.11410716263459902,0.18574392790263763,0.27976431942920976
33.452,33.18,0.14,0.25700087471493843,0.27358502438506666,0.14728954970751754,0.11429125101488129,0.18752096038460786,0.28114737452523536
33.473,33.23,-0.05,0.2591435135794204,0.2751763134773503,0.14718837913094676,0.11446632279751894,0.18932436780394374,0.2825142307486718
33.536,33.29,0.19,0.2612738062519838,0.2767179869498162,0.14708253515206793,0.11463252080070119,0.19115397554652555,0.28386472318624406
33.578,33.34,0.25,0.2633912498263468,0.27820973317137715,0.1469723982589983,0.11478999264894083,0.19300959258076913,0.28519869598237035
33.64,33.4,-0.05,0.2654953525119898,0.2796512767710347,0.1468583507507913,0.11493889050570957,0.19489101156402253,0.2865160023439668
33.661,33.45,0.12,0.26758563391099743,0.2810423785324694,0.14674077630467516,0.11507937080378101,0.19679800896992072,0.2878165045396055
33.721,33.51,0.25,0.2696616252803038,0.28238283524969093,0.1466200595467134,0.11521159397377283,0.19873034523674352,0.2891000738931811
33.824,33.56,0.06,0.2717228697793801,0.2836724795446186,0.146496585626613,0.11533572417140182,0.20068776493678678,0.29036659077226906
33.844,33.62,0.01,0.2737689227034318,0.2849111796475538,0.14637073979736004,0.1154519290039852,0.20266999696670762,0.291615944571401
33.885,33.67,0.23,0.2757993517021917,0.28609883914158,0.14624290700031586,0.11556037925673728,0.20467675475875985,0.2928480336904784
33.946,33.73,0.19,0.27781373698442385,0.2872353966719781,0.14611347145638298,0.11566124861940864,0.20670773651279017,0.29406276550850835
34.007,33.78,-0.01,0.2798116715082684,0.2883208256217654,0.14598281626383908,0.11575471341379417,0.20876262544880858,0.2952600563527807
34.068,33.84,0.23,0.28179276115757446,0.2893551337544727,0.14585132300342643,0.11584095232261264,0.2108410900798985,0.2964398314635337
34.108,33.89,0.33,0.2837566249043785,0.2903383628252597,0.1457193713512699,0.11592014612023983,0.21294278450520093,0.29760202495408933
34.169,33.95,0.04,0.28570289495770673,0.2912705881614693,0.14558733870017818,0.1159924774057611,0.21506734872267558,0.29874657976640845
34.231,34.0,0.22,0.28763121689889093,0.29215191821374276,0.1454555997898567,0.11605813033880535,0.21721440896131392,0.2998734476220426
34.272,34.06,0.38,0.2895412498036111,0.2929824940788554,0.14532452634652318,0.11611729037862797,0.21938357803246078,0.3009825889685066
34.333,34.11,0.24,0.2914326663509218,0.2937624889954746,0.1451944867323853,0.11617014402691575,0.22157445569987874,0.30207397292115595
34.393,34.17,0.18,0.29330515291955744,0.2944921078140669,0.14506584560540076,0.11621687857479213,0.22378662906815971,0.3031475772007097
34.435,34.22,0.37,0.29515840967186047,0.2951715864422112,0.14493896358969707,0.11625768185450078,0.22601967298907388,0.304203388066568
34.538,34.28,0.33,0.2969921506257041,0.29580119126657506,0.14481419695699888,0.11629274199623012,0.22827315048543734,0.30524140024602386
34.559,34.33,0.07,0.29880610371480554,0.29638121855280297,0.14469189731939697,0.11632224719050988,0.23054661319205272,0.30626161685940934
34.599,34.39,0.28,0.30060001083782056,0.2969119938245445,0.1445724113337857,0.116346385456574,0.23283960181323274,0.30726404934115475
34.661,34.44,0.39,0.3023736278965946,0.2973938712228215,0.14445608041828886,0.11636534441705013,0.23515164659635496,0.30824871735669757
34.764,34.5,0.13,0.3041267248239133,0.29782723284691204,0.14434324048098693,0.11637931107930823,0.23748226782081405,0.3092156487151881
34.784,34.55,0.31,0.30585908560105013,0.29821248807792944,0.1442342216612288,0.11638847162378745,0.23983097630164862,0.3101648792779841
34.847,34.61,0.52,0.3075705082653701,0.2985500728862958,0.14412934808376054,0.11639301119961984,0.2421972739070642,0.31109645286298465
34.907,34.66,0.39,0.30926080490822677,0.29884044912432606,0.1440289376258539,0.11639311372786401,0.24458065408903495,0.31201042114490035
34.928,34.72,0.36,0.31092980166338463,0.2990841038051656,0.14393330169756882,0.11638896171265128,0.24698060242615247,0.31290684355159204
34.991,34.77,0.72,0.31257733868618964,0.29928154836934245,0.1438427450352345,0.11638073606052966,0.24939659717790053,0.31378578715660554
35.073,34.83,0.71,0.31420327012372073,0.29943331794019673,0.14375756550819632,0.11636861590826317,0.25182810984957293,0.3146473265679732
35.094,34.88,0.44,0.3158074640761528,0.29953997056942844,0.14367805393885777,0.11635277845930542,0.2542746057670893,0.31549154381328237
35.156,34.94,0.64,0.31738980254957416,0.2996020864739564,0.1436044939360255,0.11633339882912618,0.256735544661026,0.316318528220936
35.218,34.99,0.74,0.31895018140050896,0.29962026726522156,0.1435371617415581,0.11631064989953244,0.2592103812592366,0.3171283762974607
35.259,35.05,0.18,0.32048851027241354,0.2995951351720071,0.14347632609030359,0.11628470218209433,0.2616985658874521,0.3179211916007165
35.32,35.1,0.32,0.3220047125244124,0.2995273322578225,0.14342224808327897,0.11625572369076724,0.26419954507719123,0.31869708460891844
35.382,35.16,0.54,0.323498725152522,0.2994175196338996,0.1433751810739927,0.116223879823792,0.2667127621802039,0.31945617258550846
35.443,35.21,0.46,0.32497049870358324,0.29926637666885636,0.1433353705677616,0.11618933325494175,0.2692376579884898,0.320198579440114
35.483,35.27,0.42,0.3264199971820889,0.2990746001961002,0.1433030541338308,0.11615224383416287,0.2717736713587372,0.32092443558604555
35.544,35.32,0.74,0.3278471979500555,0.2988429037200415,0.14327846133006505,0.11611276849763076,0.2743202398398905,0.3216338777949183
35.648,35.38,0.8,0.3292520916200717,0.2985720166221754,0.14326181363996526,0.11607106118720358,0.27687680030251377,0.3223270490489825
35.669,35.43,0.56,0.33063468194165035,0.29826268336804806,0.14325332442177088,0.11602727277921018,0.2794427895686355,0.3230040983916797
35.71,35.49,0.85,0.33199498568101915,0.29791566271607967,0.14325319886941568,0.11598155102246868,0.28201764504081284,0.3236651807768588
35.771,35.54,1.01,0.33333303249450813,0.29753172692915736,0.1432616339851159,0.11593404048540265,0.28460080532922516,0.32431045691701854
35.812,35.6,0.74,0.3346488647957241,0.2971116609898587,0.14327881856338098,0.11588488251210291,0.28719171087566,0.3249400931309234
35.873,35.65,0.86,0.3359425376167277,0.2966562618201227,0.14330493318624343,0.11583421518717654,0.28978980457329756,0.32555426119095393
35.936,35.71,1.07,0.3372141184634446,0.29616633750616717,0.14334015022949495,0.11578217330922892,0.29239453238123697,0.3261531381705723
36.039,35.76,0.95,0.33846368716554426,0.29564270652944274,0.1433846338797125,0.11572888837282262,0.2950053439327358,0.3267369062922855
36.059,35.82,0.8,0.3396913357210039,0.2950861970044145,0.14343854016185434,0.11567448855874653,0.2976216931361317,0.32730575277648205
36.099,35.87,1.1,0.34089716813553456,0.29449764592396616,0.1435020169771946,0.11561909873240847,0.3002430387674164,0.327859869691478
36.16,35.93,1.19,0.3420813002570031,0.29387789841319967,0.14357520415136316,0.11556284045013572,0.3028688450534232,0.3283994538050353
36.221,35.98,0.97,0.34324385960493586,0.29322780699235884,0.14365823349226226,0.11550583197312979,0.30549858224457044,0.3289247064375528
36.262,36.04,1.24,0.34438498519515304,0.29254823084955117,0.14375122885763425,0.11544818828879008,0.3081317271761005,0.3294358333170824
36.303,36.09,1.39,0.34550482735956733,0.2918400351238776,0.14385430623205595,0.1153900211391009,0.31076776381678956,0.3299330444362845
36.385,36.15,1.15,0.34660354756118855,0.2911040901995081,0.14396757381313535,0.11533143905577009,0.3134061838041564,0.3304165539114296
36.425,36.2,1.23,0.3476813182044023,0.2903412710111918,0.14409113210666757,0.11527254740182226,0.31604648696525656,0.3308865798435843
36.467,36.26,1.48,0.34873832244061304,0.2895524563616649,0.1442250740304674,0.11521344841938208,0.3186881818222045,0.33134334418215383
36.529,36.31,1.38,0.34977475396936575,0.2887385282514147,0.144369485026551,0.11515424128341811,0.321330786081608,0.3317870725909922
36.59,36.37,1.25,0.35079081683506524,0.2879003712212631,0.14452444318129282,0.11509502216124333,0.323973827107112,0.33221799431731847
36.63,36.42,1.52,0.35178672521940674,0.2870388717082316,0.1446900193531366,0.11503588427758057,0.326616842374271,0.33263634206366377
36.732,36.48,1.59,0.35276270322961545,0.28615491741513016,0.14486627730741067,0.11497691798499118,0.329259379906998,0.3330423518630232
36.753,36.53,1.3,0.35371898468257534,0.2852493966942601,0.1450532738577832,0.11491821083943757,0.33190099869485584,0.33343626295732637
36.795,36.59,1.54,0.35465581288490694,0.28432319794555816,0.14525105901387647,0.11485984768072523,0.334541269090476,0.33381831767929443
36.856,36.64,1.72,0.3555734404090473,0.28337720902942043,0.14545967613453795,0.11480191071755262,0.337179773186416,0.3341887613377091
36.917,36.7,1.51,0.3564721288653939,0.28241231669433814,0.14567916208624965,0.11474447961688919,0.33981610517078537,0.33454784210610194
36.979,36.75,1.57,0.3573521486705906,0.28142940601937727,0.1459095474061406,0.1146876315974006,0.3424498716609857,0.334895810914879
37.04,36.81,1.85,0.3582137788120415,0.2804293598714738,0.14615085646904744,0.11463144152664631,0.345080692014943,0.33523292134689575
37.101,36.86,1.8,0.3590573066087498,0.27941305837748576,0.1464031076580681,0.11457598202177259,0.3477081986192554,0.3355594295364844
37.142,36.92,1.7,0.3598830274685792,0.2783813784109402,0.1466663135380619,0.11452132355341314,0.35033203715372113,0.33587559407192025
37.183,36.97,2.02,0.36069124464203745,0.2773351930934249,0.14694048103156335,0.11446753455249563,0.3529518668317742,0.3361816759012709
37.245,37.03,2.12,0.3614822689726842,0.27627537131057117,0.14722561159659905,0.1144146815196346,0.3555673606164424,0.3364779382414997
37.287,37.08,1.83,0.36225641864427244,0.275202777242562,0.14752170140592363,0.11436282913677343,0.3581782054115367,0.33676464649062365
37.37,37.14,2.06,0.36301401892473595,0.2741182699090905,0.1478287415272065,0.11431204038072984,0.3607841022278897,0.3370420681426692
37.474,37.19,2.21,0.36375540190714245,0.27302270272867785,0.14814671810370444,0.11426237663830453,0.36338476632456723,0.33731047270513487
37.495,37.25,1.94,0.3644809062477469,0.2719169230922485,0.14847561253495756,0.11421389782262117,0.3659799273250672,0.3375701316186764
37.515,37.3,1.94,0.36519087690128815,0.2708017719508535,0.14881540165704152,0.11416666249037945,0.36856932930856245,0.3378213181787638
37.576,37.36,2.2,0.3658856648536687,0.26967808341743277,0.149166057921897,0.11412072795971678,0.3711527308762832,0.3380643074590905
37.637,37.41,2.13,0.3665656268521541,0.2685466843825048,0.149527549575251,0.11407615042837749,0.3737299051931406,0.33829937623651846
37.678,37.47,1.97,0.36723112513320205,0.2674083941436592,0.14989984083265934,0.11403298509187716,0.3763006400046811,0.3385268029173412
37.74,37.52,2.28,0.367882527148003,0.2662640240487116,0.1502828920532119,0.11399128626133136,0.37886473762945916,0.3387468674646197
37.844,37.58,2.4,0.36852020528579316,0.26511437715234676,0.15067665991046983,0.11395110748059575,0.3814220149269412,0.3389598513262958
37.864,37.63,2.11,0.3691445365949826,0.263960247886038,0.1510810975602306,0.11391250164234748,0.38397230324110165,0.33916603736376016
37.904,37.69,2.36,0.3697559025021423,0.26280242174100327,0.15149615480473524,0.11387552110273703,0.38651544831992996,0.33936570978054836
37.966,37.74,2.52,0.3703546885289076,0.26164167496394325,0.15192177825293188,0.11384021779425962,0.38905131021115885,0.33955915405085174
38.007,37.8,2.3,0.37094128400688897,0.26047877426529636,0.15235791147641636,0.11380664333651867,0.39157976313460563,0.33974665684755556
38.068,37.85,2.31,0.3715160817907153,0.25931447653974277,0.15280449516067346,0.11377484914457768,0.39410069533158554,0.3399285059695589
38.13,37.91,2.53,0.3720794779693643,0.2581495285986958,0.1532614672512494,0.11374488653461268,0.39661400889192344,0.3401049902681386
38.211,37.96,2.43,0.3726318715759631,0.2569846669145034,0.15372876309450886,0.11371680682657385,0.3991196195591431,0.34027639957209327
38.232,38.02,2.22,0.37317366429625354,0.25582061737605466,0.1542063155726588,0.11369066144353922,0.4016174565144359,0.3404430246113594
38.294,38.07,2.48,0.3737052601759114,0.2546580950554368,0.15469405523274804,0.11366650200740455,0.40410746214002363,0.34060515693871724
38.335,38.13,2.57,0.37422706532687927,0.2534978039852332,0.15519191040936406,0.11364438043051048,0.4065895917625334,0.34076308884912504
38.397,38.18,2.24,0.37473948763283643,0.2523404369459955,0.1556998073407571,0.11362434900276769,0.40906381337699116,0.340917113296155
38.459,38.24,2.49,0.37524293645387885,0.2511866752633864,0.15621767027810335,0.11360646047382066,0.411530107352025,0.3410675238049757
38.501,38.29,2.69,0.3757378223304586,0.25003718861447316,0.15674542158758678,0.11359076812979114,0.413988466116882,0.3412146143813241
38.583,38.35,2.52,0.3762245566866209,0.2488926348426439,0.15728298184495887,0.11357732586415524,0.4164388938308764,0.3413586794159303
38.645,38.4,2.53,0.3767035515325801,0.24775365978062544,0.15783026992222524,0.11356618824232596,0.41888140603591684,0.34150001358390836
38.686,38.46,2.8,0.3771752191666995,0.24662089708108925,0.15838720306612955,0.11355741055953496,0.4213160292928221,0.3416389117386548
38.768,38.51,2.69,0.3776399718769627,0.24549496805433882,0.15895369696817063,0.1135510488916271,0.4237428008022122,0.3417756687998115
38.789,38.57,2.46,0.3780982216420667,0.24437648151257735,0.1595296658259916,0.1135471601384061,0.4261617680108354,0.34191057963489296
38.831,38.62,2.7,0.37855037983229756,0.24326603362027338,0.16011502239608144,0.11354580205920936,0.4285729882042353,0.3420439389342206
38.935,38.68,2.75,0.37899685691037005,0.24216420775016004,0.16070967803781075,0.11354703330043794,0.43097652808670894,0.34217604107886507
38.956,38.73,2.44,0.3794380621324238,0.24107157434443122,0.16131354274888085,0.11355091341481782,0.4333724633494867,0.342307180001376
39.019,38.79,2.66,0.37987440324935584,0.23998869078074692,0.16192652519229173,0.11355750287222885,0.43576087822804166,0.3424376490392047
39.102,38.84,2.84,0.38030628620865436,0.23891610124272017,0.16254853271494274,0.11356686306201202,0.4381418650494075,0.34256774078085056
39.122,38.9,2.65,0.3807341148568969,0.2378543365946191,0.16317947135799432,0.11357905628674324,0.4405155237703621,0.34269774690488924
39.162,38.95,2.63,0.38115829064306517,0.23680391426006878,0.1638192458591314,0.11359414574753783,0.44288196150732984,0.3428279580121406
39.223,39.01,2.93,0.3815792123228408,0.23576533810458533,0.1644677596468796,0.11361219552102007,0.4452412920588709,0.3429586634512896
39.304,39.06,2.87,0.38199727566406527,0.23473909832179388,0.1651249148271558,0.11363327052814057,0.44759363542167907,0.3430901511382705
39.326,39.12,2.63,0.38241287315356937,0.23372567132318733,0.16579061216228333,0.11365743649504985,0.4499391173010343,0.34322270736971366
39.387,39.17,2.89,0.382826393705614,0.23272551963127186,0.16646475104275288,0.1136847599062505,0.4522778686166989,0.3433566166307347
39.448,39.23,2.98,0.38323822237220023,0.231739091775927,0.1671472294520595,0.11371530795026195,0.45461002500528513,0.3434921613973357
39.488,39.28,2.63,0.38364874005552735,0.23076682219379868,0.1678379439249823,0.11374914845804794,0.45693572632013757,0.34362962193373014
39.55,39.34,2.82,0.38405832322288314,0.22980913113055096,0.16853678949968035,0.1137863498344876,0.4592551161297699,0.3437692760850002
39.612,39.39,2.96,0.3844673436242597,0.22886642454583414,0.16924365966396582,0.113826980983218,0.46156834121589163,0.3439113990656023
39.674,39.45,2.74,0.3848761680130035,0.2279390940208595,0.16995844629609766,0.11387111122522314,0.4638755510720445,0.34405626324434313
39.736,39.5,2.68,0.38528515786982476,0.2270275166685123,0.17068103960042,0.11391881021158626,0.4661768974038321,0.3442041379265338
39.798,39.56,2.93,0.38569466913050393,0.2261320550459687,0.17141132803814282,0.1139701478308546,0.46847253363169444,0.34435528913405117
39.839,39.61,2.86,0.38610505191763794,0.22525305706980472,0.17214919825354738,0.11402519411147281,0.4707626143971491,0.34450997938398786
39.902,39.67,2.63,0.3865166502767545,0.22439085593360028,0.1728945349958953,0.11408401911972356,0.47304729507336507,0.3446684674664934
39.964,39.72,2.89,0.38692980191709786,0.22354577002804485,0.1736472210373248,0.11414669285358688,0.4753267312808967,0.34483100822232443
40.067,39.78,3.01,0.3873448379573608,0.2227181028635441,0.1744071370870262,0.11421328513290414,0.4776010784093735,0.34499785232054736
40.087,39.83,2.68,0.3877620826766179,0.22190814299531814,0.17517416170199507,0.11428386548621489,0.47987049114590713,0.3451692460368131
40.108,39.89,2.85,0.38818185327069493,0.22111616395099426,0.17594817119464753,0.11435850303463621,0.4821351230109531,0.3453454310326517
40.189,39.94,3.03,0.38860445961420015,0.2203424241607309,0.1767290395375506,0.11443726637317217,0.4843951259023535,0.3455266441362777
40.209,40.0,2.83,0.3890302040284428,0.21958716688995822,0.1775166382654884,0.11452022344986407,0.4866506496482744,0.34571311712545955
40.27,40.05,2.82,0.3894593810554682,0.21885062017487567,0.1783108363750591,0.11460744144321412,0.48890184156971644,0.3459050765130603
40.331,40.11,3.07,0.38989227723844694,0.2181329967608971,0.17911150022197028,0.11469898663833095,0.49114884605326087,0.34610274333587465
40.414,40.16,2.99,0.39032917090866176,0.21743449404425583,0.1799184934161969,0.11479492430223867,0.4933918041346934,0.3463063329473356
40.434,40.22,2.77,0.39077033197934213,0.21675529401697452,0.1807316767151812,0.11489531855876303,0.4956308530941417,0.34651605481457504
40.496,40.27,2.99,0.39121602174658593,0.21609556321537318,0.18155090791528494,0.11500023226336313,0.49786612606333963,0.3467321123202063
40.538,40.33,3.11,0.3916664926975846,0.2154554526722436,0.18237604174174632,0.11510972687822629,0.5000977516456234,0.3469547025690833
40.601,40.38,2.79,0.39212198832633266,0.2148350978727793,0.18320692973744837,0.11522386234788548,0.5023258535492144,0.3471840162002183
40.662,40.44,3.03,0.3925827429569524,0.21423461871433735,0.18404342015084552,0.11534269697557852,0.5045505502343,0.347420237204024
40.723,40.49,3.22,0.3930489815747294,0.21365411947011895,0.1848853578234037,0.11546628730055314,0.5067719545743917,0.3476635427450528
40.785,40.55,3.04,0.39352091966493286,0.2130936887568773,0.18573258407690968,0.11559468797652893,0.5089901735324219,0.3479141029904382
40.826,40.6,3.02,0.39399876305950005,0.21255339950678806,0.18658493660099335,0.11572795165154566,0.5112053078520332,0.34817208094426827
40.886,40.66,3.27,0.3944827077916757,0.21203330894364367,0.18744224934120096,0.11586612884944691,0.513417451764534,0.3484376322881216
40.928,40.71,3.09,0.3949729399587266,0.21153345856354447,0.188304352387974,0.11600926785325136,0.5156266927120166,0.3487109052279434
40.99,40.77,2.84,0.39546963559286713,0.21105387412025703,0.18917107186692134,0.1161574145906506,0.5178331110871357,0.3489920403473986
41.051,40.82,3.08,0.39597296054053926,0.21059456561539439,0.19004222983080502,0.11631061252185182,0.5200367799900116,0.34928117046781465
41.153,40.88,3.17,0.39648307035018104,0.21015552729355522,0.19091764415369275,0.11646890252996059,0.5222377650026553,0.3495784205148643
41.173,40.93,2.84,0.39700011016859255,0.20973673764255366,0.1917971284277617,0.11663232281408058,0.5244361239812072,0.3498839073922411
41.214,40.99,3.04,0.39752421464596194,0.20933815939890504,0.19268049186324604,0.11680090878530158,0.5266319068661585,0.35019773986270974
41.275,41.04,3.24,0.3980555078495686,0.20895973955878663,0.1935675391920038,0.11697469296575896,0.5288251555106461,0.3505200184370065
41.336,41.1,3.09,0.39859410318614064,0.20860140939474067,0.19445807057515208,0.11715370489095979,0.5310159035268434,0.3508508352711094
41.377,41.15,3.05,0.3991401033328231,0.20826308447841643,0.19535188151519126,0.11733797101557854,0.5332041761504185,0.3511902740724076
41.458,41.21,3.34,0.3996936001767,0.20794466470966147,0.1962487627730134,0.11752751462292468,0.5353899901230142,0.35153841001526637
41.52,41.26,3.27,0.40025467476281285,0.20764603435226947,0.19714850029018743,0.11772235573827028,0.5375733535927085,0.3518953096664143
41.541,41.32,3.1,0.40082339725063915,0.20736706207667105,0.19805087511692424,0.11792251104619896,0.5397542660324115,0.3522610309205148
41.582,41.37,3.39,0.4013998268790041,0.20710760100982453,0.19895566334613776,0.11812799381210871,0.5419327181761613,0.35263562294622
41.644,41.43,3.46,0.4019840119394259,0.20686748879252145,0.19986263605402552,0.11833881380797348,0.5441086919732843,0.3530191261429462
41.704,41.48,3.16,0.4025759897579045,0.20664654764428872,0.20077155924759651,0.11855497724244715,0.546282160560386,0.353411572108583
41.765,41.54,3.35,0.403175786685162,0.2064445844360563,0.2016821938195513,0.11877648669538779,0.5484530882511339,0.3538129836183514
41.807,41.59,3.51,0.4037834180953383,0.20626139077077021,0.20259429551087763,0.11900334105689038,0.5506214305437918,0.3542233746150465
41.891,41.65,3.3,0.4043988883931375,0.2060967430721468,0.2035076148814846,0.11923553547092644,0.552787134146452,0.3546427502109327
41.932,41.7,3.25,0.40502219102940695,0.20595040268178275,0.20442189728915336,0.11947306128369767,0.554950137019871,0.35507110670158515
41.995,41.76,3.53,0.4056533085251238,0.2058221159648471,0.20533688287703594,0.1197159059968112,0.5571103684377826,0.35550843159194895
42.056,41.81,3.45,0.40629221250374636,0.20571161442457325,0.20625230656990048,0.11996405322537164,0.5592677490645303,0.3559547036348158
42.097,41.87,3.27,0.4069388637318768,0.2056186148257389,0.20716789807930164,0.12021748266105234,0.5614221910498085,0.3564098928818165
42.138,41.92,3.56,0.40759321216816535,0.20554281932727395,0.2080833819178388,0.12047617004016964,0.5635735981402633,0.356873960746914
42.199,41.98,3.67,0.4082551970203744,0.20548391562408308,0.20899847742265446,0.12074008711674498,0.5657218658076761,0.35734686008227273
42.26,42.03,3.34,0.4089247468105141,0.20544157709812289,0.20991289878831287,0.12100920164050716,0.5678668813934306,0.35782853526631236
42.302,42.09,3.58,0.4096017794479534,0.20541546297876154,0.21082635510917788,0.12128347733977196,0.5700085242689558,0.35831892230375556
42.362,42.14,3.77,0.4102862023104162,0.20540521851246385,0.21173855043137588,0.12156287390913817,0.5721466660118399,0.35881794893750407
42.424,42.2,3.55,0.4109779123327841,0.20541047514187236,0.21264918381440387,0.12184734700194315,0.5742811705973125,0.35932553477223284
42.485,42.25,3.53,0.41167679610364616,0.20543085069439032,0.21355794940241782,0.12213684822742671,0.5764118946047777,0.35984159140964156
42.526,42.31,3.77,0.4123827299695496,0.2054659495803997,0.21446453650521097,0.1224313251525536,0.5785386874390862,0.3603660225953117
42.627,42.36,3.65,0.4130955801469152,0.20551536300125495,0.21536862968887802,0.12273072130843353,0.5806613915662264,0.36089872437707243
42.648,42.42,3.45,0.41381520284157863,0.20557866916718215,0.21626990887616163,0.12303497620124829,0.5827798427630889,0.3614395852747089
42.769,42.47,3.73,0.4145414443758936,0.20565543352518575,0.21716804945647028,0.12334402532755924,0.5848938703809151,0.36198848646075793
42.79,42.53,3.83,0.4152741413233157,0.2057452089970174,0.21806272240555166,0.1236578001938321,0.587003297621992,0.3625453019520363
42.811,42.58,3.51,0.41601312065036034,0.20584753622720006,0.21895359441478895,0.12397622833998806,0.5891079418290937,0.36310989881147604
42.852,42.64,3.77,0.41675819986581325,0.20596194384105093,0.2198403280300543,0.12429923336678252,0.5912076147871199,0.3636821373598122
42.914,42.69,3.96,0.4175091871770656,0.20608794871261032,0.22072258180000562,0.12462673496682658,0.5933021230363571,0.3642618713966602
43.019,42.75,3.73,0.41826588165344597,0.20622505624236434,0.22160001043366706,0.12495864895908944,0.5953912681967714,0.36484894843055016
43.039,42.8,3.73,0.41902807339644066,0.20637276064463625,0.22247226496709924,0.12529488732674587,0.5974748473027366,0.36544320991752616
43.081,42.86,4.0,0.41979554371671285,0.20653054524451747,0.223338992938934,0.12563535825825317,0.5995526531476081,0.3660444915079455
43.142,42.91,3.89,0.4205680653178639,0.20669788278419346,0.2241998385745524,0.1259799661915457,0.6016244746375594,0.36665262330110343
43.182,42.97,3.7,0.42134540248690716,0.20687423573849412,0.2250544429787062,0.12632861186121916,0.6036900971540865,0.3672674301072966
43.244,43.02,3.98,0.42212731129143644,0.20705905663947016,0.22590244433640713,0.1266811923485556,0.6057493029245561,0.367888731716907
43.306,43.08,4.04,0.4229135397834728,0.20725178840976435,0.22674347812193416,0.12703760113421647,0.6078018714001591,0.3685163431760318
43.389,43.13,3.69,0.42370382820995195,0.207451864704524,0.22757717731582447,0.12739772815341158,0.6098475796405936,0.3691500750681557
43.409,43.19,3.93,0.42449790922977526,0.2076587102616083,0.22840317262971108,0.1277614598533494,0.6118862027047635,0.3697897338013454
43.449,43.24,4.11,0.425295508137296,0.20787174125986282,0.22922109273884872,0.12812867925279026,0.6139175140467481,0.3704351219004585
43.511,43.3,3.85,0.4260963430920787,0.20809036568525965,0.2300305645221457,0.12849926600355133,0.6159412859162471,0.37108603830388615
43.572,43.35,3.85,0.42690012535473926,0.2083139837047203,0.2308312133094907,0.128873096453849,0.6179572897626601,0.37174227866439713
43.613,43.41,4.15,0.42770655952865716,0.20854198804746044,0.2316226631361377,0.12925004371339746,0.6199652966419199,0.3724036356536774
43.716,43.46,4.08,0.4285153438073432,0.2087737643937065,0.23240453700390887,0.12962997772020401,0.6219650776251723,0.3730698992701665
43.736,43.52,3.9,0.42932617022724967,0.20900869177063772,0.23317645714899582,0.13001276530900066,0.6239564042083563,0.37374085714980154
43.798,43.57,4.23,0.43013872492581523,0.20924614295540175,0.23393804531616202,0.13039827028124235,0.6259390487217152,0.3744162948792604
43.839,43.63,4.33,0.43095268840454726,0.20948548488503307,0.23468892303918185,0.13078635347658774,0.6279127847382739,0.37509599631126234
43.9,43.68,4.02,0.43176773579695876,0.20972607907307428,0.235428711927382,0.13117687284576482,0.6298773874803244,0.3757797438814526
43.962,43.74,4.26,0.4325835371411815,0.20996728203268683,0.23615703395816962,0.1315696835247208,0.6318326342229853,0.37646731892639346
44.043,43.79,4.43,0.4333997576570882,0.21020844570603145,0.23687351177543628,0.13196463790996926,0.6337783046939341,0.3771585020021846
44.105,43.85,4.14,0.43421605802776303,0.2104489178997011,0.2375777689937273,0.13236158573506507,0.6357141814684402,0.3778530732032614
44.126,43.9,4.16,0.43503209468516196,0.21068804272600297,0.23826943050805774,0.1327603741481649,0.6376400503588291,0.37855081248096545
44.168,43.96,4.49,0.4358475200997911,0.21092516104990724,0.23894812280923447,0.13316084779065654,0.6395557007975061,0.37925149996151
44.23,44.01,4.37,0.43666198307420834,0.21115961094150232,0.23961347430452778,0.13356284887685865,0.6414609262126506,0.3799549162629772
44.292,44.07,4.25,0.4374751290401189,0.2113907281338056,0.24026511564353467,0.13396621727479288,0.6433555243956568,0.38066084281098445
44.333,44.12,4.64,0.4382866003587984,0.21161784648578533,0.24090268004906895,0.13437079058802312,0.6452392978593962,0.38136906215262
44.394,44.18,4.76,0.43909603662454144,0.21184029845043414,0.24152580365293067,0.1347764042385418,0.647112054186397,0.3820793582681939
44.457,44.23,4.49,0.4399030749708194,0.21205741554771382,0.2421341258364278,0.13518289155066643,0.6489736063661036,0.38279151688029317
44.519,44.29,4.79,0.44070735037883046,0.21226852884217295,0.24272728957554449,0.13559008383590526,0.6508237731204519,0.38350532575960544
44.561,44.34,4.96,0.4415084959881423,0.21247296942502314,0.24330494179066814,0.13599781047876341,0.6526623792171246,0.38422057502696294
44.623,44.4,4.64,0.4423061434091733,0.21267006890044501,0.24386673370080927,0.13640589902347788,0.6544892557699713,0.38493705745108
44.663,44.45,4.7,0.4430999230373004,0.21285915987590318,0.24441232118225967,0.13681417526170087,0.656304240526175,0.38565456874151394
44.723,44.51,4.97,0.4438894643684005,0.21303957645628568,0.24494136513162942,0.13722246332118318,0.6581071781398266,0.3863729078364456
44.825,44.56,4.82,0.44467439631565503,0.21321065474173947,0.2454535318331973,0.1376305857555396,0.6598979204316188,0.3870918771849353
44.846,44.62,4.65,0.44545434752742763,0.21337173332913592,0.24594849333050528,0.13803836363519328,0.6616763266343721,0.38781128302337675
44.887,44.67,4.99,0.44622894670601015,0.21352215381715345,0.2464259278021167,0.13844561663960528,0.6634422636241072,0.388530935645889
44.948,44.73,5.06,0.44699782292700463,0.21366126131498112,0.24688551994145863,0.13885216315089102,0.6651956061363961,0.3892506496683611
45.01,44.78,4.75,0.44776060595908684,0.21378840495463172,0.24732696134067933,0.13925782034891024,0.6669362369677322,0.3899702442858177
45.051,44.84,5.07,0.4485169265838744,0.21390293840682062,0.24774995087846213,0.13966240430790205,0.6686640471616834,0.39068954352274027
45.114,44.89,5.24,0.4492664169156279,0.21400422040032466,0.248154195111744,0.14006573009473178,0.6703789361796526,0.39140837647596316
45.197,44.95,4.92,0.4500087107205413,0.21409161524469153,0.2485394086713029,0.1404676118688123,0.6720808120561343,0.3921265775497922
45.217,45.0,5.06,0.4507434437354162,0.21416449335615492,0.24890531466117954,0.14086786298377582,0.6737695915384196,0.3928439866830738
45.3,45.06,5.33,0.4514702539855658,0.2142222317866211,0.24925164506189415,0.1412662960909908,0.6754452002107806,0.39356044956801867
45.321,45.11,5.18,0.45218878210183844,0.2142642147556215,0.2495781411374054,0.14166272324503804,0.6771075726032311,0.3942758178606579
45.403,45.17,5.05,0.45289867163668823,0.21428983418516456,0.2498845538457482,0.14205695601127172,0.6787566522850177,0.3949899493828642
45.445,45.22,5.39,0.4535995693792457,0.21429849023745506,0.25017064425326896,0.14244880557559683,0.6803923919430527,0.39570270831589344
45.508,45.28,5.39,0.45429112566935714,0.2142895918554664,0.25043618395236356,0.1428380828565883,0.6820147534455745,0.39641396538537516
45.59,45.33,5.01,0.45497299471057584,0.2142625573063356,0.2506809554826248,0.14322459862006912,0.6836237078913787,0.3971235980376552
45.611,45.39,5.28,0.45564483488210933,0.21421681472751852,0.2509047527552907,0.1436081635962606,0.6852192356450175,0.3978314906073814
45.652,45.44,5.39,0.45630630904974456,0.2141518026755889,0.2511073814808782,0.14398858859963015,0.6868013263584132,0.3985375344762284
45.713,45.5,5.04,0.456957084875799,0.21406697067751548,0.25128865959989255,0.14436568465156577,0.6883699789793493,0.39924162822271364
45.774,45.55,5.2,0.4575968351281599,0.21396177978422298,0.25144841771650894,0.14473926310601795,0.6899252017472738,0.39994367776315326
45.837,45.61,5.46,0.45822523798846965,0.2138357031262454,0.25158649953511264,0.14510913577826634,0.6914670121768334,0.4006435964839042
45.961,45.66,5.31,0.4588419773595173,0.21368822647129995,0.25170276229957916,0.1454751150769845,0.6929954370295494,0.40134130536511364
45.981,45.72,5.24,0.45944674317188844,0.21351884878364408,0.251797077235156,0.1458370141397933,0.6945105122740481,0.40203673309625965
46.001,45.77,5.56,0.4600392316899228,0.21332708278511542,0.25186932999278855,0.14619464697250745,0.6960122830353,0.40272981618379056
46.043,45.83,5.57,0.460619145817036,0.21311245551777622,0.25191942109572124,0.14654782859228593,0.697500803533399,0.4034204990511429
46.104,45.88,5.22,0.46118619540047556,0.21287450890807533,0.2519472663882204,0.146896375174887,0.6989761370124905,0.40410873413138904
46.144,45.94,5.46,0.46174009753560213,0.21261280033241364,0.2519527974862907,0.1472401042062176,0.7004383556605361,0.4047944819527333
46.206,45.99,5.56,0.4622805768698158,0.2123269031839548,0.25193596223028264,0.14757883463835503,0.7018875405206795,0.4054777112170686
46.287,46.05,5.17,0.4628073659062794,0.21201640744047656,0.2518967251393247,0.14791238705021592,0.7033237813950013,0.4061583988718617
46.328,46.1,5.31,0.4633202053076054,0.2116809202330375,0.2518350678675163,0.1482405838130526,0.7047471767414437,0.40683653017575067
46.37,46.16,5.47,0.46381884419967967,0.2113200664152339,0.2517509896617972,0.14856324926097575,0.706157833564648,0.40751209875834815
46.431,46.21,5.27,0.4643030404757892,0.21093348913282878,0.25164450782137626,0.1488802098667141,0.7075558673014034,0.40818510667483093
46.493,46.27,5.16,0.46477256110119686,0.2105208503935455,0.2515156581585597,0.14919129442282286,0.7089414017013435,0.40885556445593874
46.535,46.32,5.44,0.4652271824182804,0.21008183163682234,0.25136449546077394,0.1494963342285419,0.7103145687034812,0.4095234911539879
46.597,46.38,5.37,0.4656666904523097,0.2096161343033089,0.25119109395354217,0.14979516328248252,0.7116755083091371,0.41018891438543315
46.681,46.43,5.09,0.4660908812179015,0.20912348040385265,0.25099554776415123,0.15008761848128768,0.7130243684517721,0.4108518703704303
46.702,46.49,5.38,0.4664995610261547,0.20860361308767786,0.2507779713857218,0.15037353982437876,0.7143613048642082,0.4115124039697826
46.765,46.54,5.49,0.46689254679244624,0.2080562972094048,0.25053850014137247,0.1506527706248737,0.7156864809436966,0.41217056871960317
46.828,46.6,5.15,0.46726966634485734,0.20748131989451185,0.2502772906481587,0.15092515772673792,0.7170000676152658,0.41282642686402155
46.87,46.65,5.33,0.46763075873318305,0.2068784911028291,0.24999452128043523,0.15119055172822182,0.7183022431937606,0.41348004938629707
46.932,46.71,5.51,0.46797567453846256,0.20624764418966784,0.249690392632251,0.1514488072116448,0.719593193244977,0.41413151603873494
46.974,46.76,5.28,0.46830427618295833,0.20558863646421066,0.249365127978342,0.1516997829795967,0.7208731104463048,0.4147809153718343
47.035,46.82,5.18,0.46861643824050025,0.20490134974480442,0.2490189737332472,0.15194334229763196,0.7221421944472678,0.41542834476311247
47.096,46.87,5.44,0.4689120477471035,0.2041856909108053,0.24865219990802045,0.15217935314353168,0.7234006517303425,0.4160739104460278
47.137,46.93,5.34,0.46919100451174744,0.20344159245061208,0.24826510056397078,0.15240768846319633,0.7246486954724131,0.41671772753934905
47.218,46.98,5.06,0.469453221427173,0.20266901300548992,0.24785799426282343,0.1526282264332035,0.7258865454071719,0.41735992007723144
47.259,47.04,5.34,0.46969862478050917,0.20186793790873644,0.24743122451265434,0.15284085073003076,0.7271144276887157,0.41800062104015595
47.3,47.09,5.45,0.46992715456348405,0.20103837971968047,0.24698516020891093,0.15304545080590906,0.7283325747565333,0.4186399723867878
47.402,47.15,5.09,0.47013876478191696,0.20018037875194783,0.24652019606979406,0.15324192217124008,0.729541225202017,0.4192781250867545
47.424,47.2,5.3,0.47033342376412646,0.19929400359540383,0.24603675306522804,0.15343016668349388,0.7307406236365704,0.41991523915434065
47.464,47.26,5.5,0.47051111446785093,0.19837935163118392,0.24553527883859122,0.15361009284250543,0.7319310205613602,0.42055148368312795
47.525,47.31,5.31,0.4706718347852539,0.19743654953922865,0.2450162481203359,0.15378161609209726,0.7331126722387296,0.421187036881672
47.586,47.37,5.26,0.4708155978455935,0.19646575379774914,0.24448016313258955,0.15394465912795738,0.7342858405652722,0.42182208611037386
47.648,47.42,5.56,0.4709424323151424,0.19546715117404487,0.2439275539837902,0.15409915221169765,0.73545079294656,0.4224568279197205
47.689,47.48,5.44,0.47105238269396515,0.1944409592060797,0.2433589790523821,0.15424503349099078,0.7366078021735345,0.4230914680900184
47.77,47.53,5.16,0.47114550960916424,0.19338742667418302,0.24277502535858658,0.15438224932564285,0.73775714630058,0.4237262216726515
47.83,47.59,5.4,0.4712218901042048,0.19230683406219756,0.24217630892325656,0.15451075461941155,0.7388991085252821,0.4243613130328
47.871,47.64,5.44,0.47128161792390266,0.19119949400734076,0.24156347511281842,0.15463051315733972,0.7400339770698636,0.4249969758934607
47.933,47.7,5.06,0.47132480379462427,0.19006575173800183,0.24093719896929575,0.15474149794832953,0.7411620450642235,0.425633453380583
47.995,47.75,5.3,0.47135157569918856,0.18890598549867044,0.24029818552438248,0.15484369157265696,0.7422836104304154,0.42627099806914776
48.015,47.81,5.51,0.47136207914590816,0.18772060696118217,0.23964717009648942,0.15493708653410168,0.7433989757683145,0.4269098720300602
48.076,47.86,5.34,0.47135647743116826,0.18651006162144745,0.23898491856965867,0.15502168561635354,0.7445084482421327,0.42755034687777405
48.156,47.92,5.34,0.47133495189492275,0.18527482918081922,0.2383122276532092,0.15509750224333949,0.7456123394673757,0.4281927038185981
48.198,47.97,5.67,0.4712977021684767,0.18401542391123982,0.23762992512095585,0.15516456084310162,0.7467109653978312,0.4288372336996254
48.238,48.03,5.6,0.4712449464139396,0.18273239500329283,0.23693887002883757,0.1552228972148339,0.7478046462122085,0.4294842370581567
48.299,48.08,5.32,0.4711769215547513,0.18142632689626134,0.2362399529098084,0.15527255889864833,0.7488937062000972,0.4301340241713984
48.361,48.14,5.6,0.4710938834967042,0.18009783958926712,0.23553409594486555,0.15531360554760307,0.7499784736469685,0.4307869151061201
48.402,48.19,5.71,0.47099610733890196,0.17874758893253556,0.23482225310911883,0.1553461093014844,0.7510592807179871,0.43144323976787274
48.526,48.25,5.33,0.4708838875741089,0.1773762668978084,0.23410541029182325,0.15537015516180339,0.7521364633404041,0.4321033379493532
48.546,48.3,5.56,0.470757538277941,0.17598460182693113,0.23338458538929424,0.1553858413674506,0.7532103610842733,0.4327675593775412
48.587,48.36,5.72,0.4706173932863489,0.17457335865767032,0.23266082836960236,0.15539327977045625,0.7542813170412223,0.43343626375929906
48.65,48.41,5.47,0.4704638063608382,0.17314333912584795,0.23193522130792527,0.15539259621130933,0.7553496777009785,0.43410982082518024
48.69,48.47,5.45,0.4702971513408774,0.17169538194291994,0.231208878391421,0.1553839308932991,0.7564157928253274,0.43478861037124245
