Time_Host,Time_Arduino,easingdata,CH1_Oxy,CH1_Deoxy,CH2_Oxy,CH2_Deoxy,CH3_Oxy,CH3_Deoxy
1.161,0.04,0.0,0.0,0.9292402634471391,0.0,0.6518631475805687,0.0,1.0
1.182,0.1,0.0,0.006992576988816712,0.9088801154778722,0.005830639310683937,0.6497187566963639,0.004671297584112894,0.986947884027701
1.202,0.16,0.0,0.013942910236642538,0.8886925362536983,0.011619774877806993,0.6476608931741673,0.00933396625686391,0.9739724000319333
1.222,0.21,0.0,0.020848476392822505,0.8686853363637532,0.01736535906318957,0.6456901547036562,0.01398643572059682,0.9610785707973677
1.243,0.27,0.0,0.02770679865388039,0.8488661689710983,0.023065386858955546,0.6438070625572268,0.018627152361063496,0.9482713462009179
1.263,1.06,0.0,0.03451544897482912,0.8292425236680815,0.02871789745659805,0.6420120617483079,0.023254580640257132,0.9355555990469434
1.283,1.11,0.0,0.0412720502046898,0.8098217205870215,0.034320975743805965,0.6403055213091742,0.027867204455129968,0.9229361210250754
1.324,1.17,0.0,0.04797427814405716,0.7906109047698383,0.039872753728374864,0.6386877346843008,0.03246352846040132,0.9104176187941092
1.385,1.22,0.0,0.054619863522733215,0.7716170407995587,0.04537141188872716,0.6371589202349149,0.037042079353742874,0.8980047101950711
1.447,1.28,0.0,0.06120659389562895,0.7528469076959519,0.05081518045076178,0.6357192218499886,0.04160140712170476,0.8857019205962274
1.489,1.33,-0.26,0.06773231545530556,0.734307094076902,0.056202340590942444,0.634368709658532,0.04614008624481528,0.8735136793725086
1.551,1.39,0.34,0.07419493475968274,0.716003993586512,0.06153122556569282,0.6331073808376786,0.050656716860339665,0.8614443165215915
1.652,1.44,0.17,0.08059242037356927,0.6979438005904509,0.06680022176724468,0.631935160510852,0.05514992588121822,0.8494980594188176
1.673,1.5,-0.12,0.08692280442277235,0.6801325061387765,0.07200776970603344,0.6308519027304288,0.059618368069769216,0.8376790297131381
1.713,1.55,0.22,0.0931841840596583,0.6625758941963097,0.07715236491963516,0.6298573915397884,0.06406072706488783,0.8259912403661398
1.775,1.61,0.34,0.09937472283921428,0.6452795381404439,0.08223255880824057,0.6289513421101589,0.06847571636166074,0.8144385928359184
1.838,1.66,0.16,0.10549265200486016,0.6282487975260354,0.08724695939679392,0.6281334019479881,0.07286208024246034,0.8030248744072938
1.898,1.72,0.04,0.1115362716834167,0.611488815116935,0.0921942320240524,0.627403152168759,0.07721859465869717,0.7917537556696823
2.001,1.77,0.47,0.11750395198876702,0.5950045141837285,0.0970730999588959,0.6267601088333185,0.08154406806255178,0.7806287881436734
2.022,1.83,0.28,0.12339413403389536,0.5788005960671222,0.10188234494429296,0.6262037243428124,0.08583734218814995,0.7696534020570609
2.062,1.88,-0.06,0.12920533085113864,0.5628815380061977,0.10662080766942146,0.6257333888882611,0.09009729278174905,0.758830904270859
2.103,1.94,0.5,0.13493612822060763,0.54725159123055,0.11128738817053253,0.6253484319507363,0.09432283028059736,0.7481644763556572
2.168,1.99,0.33,0.14058518540682902,0.5319147793151091,0.11588104616124696,0.625048123848087,0.09851290044021767,0.7376571728184768
2.229,2.05,0.03,0.14615123580372463,0.5168748967961939,0.12040080129305038,0.6248316773242957,0.1026664849099269,0.7273119194801935
2.291,2.1,0.27,0.151633087488083,0.5021355080471213,0.12484573334676366,0.6246982491779337,0.1067826017564565,0.7171315120035127
2.374,2.16,0.41,0.15702962368172524,0.487699946411443,0.1292149823557718,0.6246469419266852,0.11086030593560442,0.707118614571332
2.396,2.21,0.27,0.1623398031226354,0.4735713135916161,0.13350774866186274,0.6246768055052189,0.11489868971188402,0.6972757587152086
2.458,2.27,0.12,0.16756266034538678,0.45975247929078744,0.1377232929046113,0.6247868389937734,0.11889688302615198,0.6876053422936015
2.479,2.32,0.6,0.17269730587127569,0.4462460811053642,0.14186093594530952,0.624975992374788,0.1228540538112562,0.6781096286194382
2.542,2.38,0.41,0.1777429263087017,0.4330545246659228,0.14592005872652314,0.6252431683147632,0.12676940825583505,0.6687907457363786
2.605,2.43,0.07,0.18269878436450013,0.42017998402372614,0.1499001020684443,0.625587223968351,0.13064219101648486,0.6596506858429972
2.648,2.49,0.64,0.18756421876710277,0.4076244022797815,0.15380056640328907,0.6260069728015393,0.13447168537860865,0.6506913048639724
2.732,2.54,0.52,0.19233864410256238,0.3953894924530036,0.15762101144908366,0.6265011864307466,0.13825721336635652,0.6419143221672133
2.793,2.6,0.25,0.19702155056461076,0.3834767385837249,0.16136105582425328,0.6270685964747638,0.14199813580213677,0.633321320425789
2.814,2.65,0.42,0.2016125036200167,0.3718873970685401,0.16502037660441826,0.6277078964168771,0.1456938523162454,0.6249137456234644
2.877,2.71,0.58,0.20611114359060623,0.36062249822216413,0.16859870882277575,0.6284177434750091,0.14934380130725455,0.6166929072024716
2.919,2.76,0.44,0.21051718515339873,0.34968284806149563,0.1720958449154857,0.6291967604779491,0.15294745985386343,0.6086599783519397
2.982,2.82,0.23,0.21483041676036457,0.3390690303066122,0.17551163411356255,0.6300435377456812,0.15650434357893694,0.6008159964352677
3.045,2.87,0.75,0.21905069997932664,0.32878140859303523,0.1788459817828467,0.6309566349715854,0.1600140064664889,0.5931618635545275
3.108,2.93,0.56,0.22317796875756346,0.3188201288892363,0.18209884871371002,0.6319345831040247,0.16347604063241286,0.5856983472497328
3.15,2.98,0.2,0.2272122286097392,0.3091851221129927,0.18527025036222122,0.6329758862246021,0.1668900760498004,0.5784260813305875
3.232,3.04,0.77,0.23115355573187263,0.2998761069399151,0.18836025604455794,0.6340790234202583,0.1702557802297493,0.5713455668381096
3.252,3.09,0.71,0.23500209604317038,0.29089259279723584,0.1913689880865305,0.6352424506463756,0.1735728578586377,0.564457173133326
3.315,3.15,0.48,0.23875806415766557,0.28223388303578534,0.19429662093014222,0.6364646025781897,0.1768410503928954,0.5577611391101385
3.376,3.2,0.6,0.2424217422877084,0.27389907827304893,0.19714338019907557,0.6377438944482496,0.1800601356123664,0.5512575745293908
3.458,3.26,0.84,0.24599347908147803,0.26588707990011257,0.19990954172490788,0.6390787238682003,0.18322992713347122,0.5449464614709537
3.478,3.31,0.68,0.24947368839683295,0.25819659374503295,0.20259543053583107,0.6404674726334938,0.18635027388348063,0.5388276559003702
3.538,3.37,0.43,0.25286284801394476,0.2508261338848639,0.20520141980966863,0.6419085085096544,0.18942105953728386,0.5329008893464208
3.62,3.42,0.94,0.2561614982892447,0.24377402659839384,0.20772792979301322,0.6434001869986055,0.19244220191810413,0.5271657706857862
3.661,3.48,0.71,0.25937024075328147,0.2370384144515239,0.21017542668836003,0.6449408530833778,0.19541365236367947,0.5216217880308092
3.743,3.53,0.32,0.26248973665513287,0.2306172605070917,0.21254442151116243,0.6465288429493705,0.19833539505945302,0.5162683107162588
3.764,3.59,0.81,0.2655207054560239,0.22450835265084254,0.2148354689187627,0.6481624856803194,0.20120744634033152,0.5111045913809283
3.825,3.64,0.79,0.2684639232747893,0.2187093080251183,0.21704916601318833,0.6498401049271928,0.2040298539625717,0.5061297681398448
3.866,3.7,0.57,0.27132022128779254,0.2132175775617113,0.21918615111983789,0.6515600205483733,0.20680269634731385,0.5013428668429
3.926,3.75,0.63,0.27409048408587783,0.20803045060535508,0.2212471025440467,0.6533205502197569,0.20952608179725044,0.4967428034157837
3.968,3.81,0.96,0.2767756479909341,0.20314505961938806,0.22323273730744728,0.6551200110137364,0.21220014768794565,0.49232838627898945
4.031,3.86,0.78,0.27937669933472153,0.19855838496508357,0.22514380986601068,0.6569567209461854,0.21482505963537343,0.4880983188404839
4.091,3.92,0.5,0.28189467270269913,0.19426725974610948,0.2269811108116539,0.6588290004905114,0.2174010106412831,0.4840512020575198
4.133,3.97,1.08,0.28433064914566036,0.19026837470969904,0.22874546555929595,0.6607351740577126,0.21992822021806635,0.4801855370629683
4.215,4.03,0.88,0.2866857543620375,0.18655828319630613,0.23043773302125503,0.6626735714412321,0.222406933494868,0.47649972785146466
4.256,4.08,0.48,0.28896115685377,0.18313340612970203,0.23205880427088563,0.6646425292253215,0.22483742030672538,0.4729920840206735
4.297,4.14,0.9,0.29115806605864947,0.17999003703963745,0.23360960119733282,0.6666403921557268,0.22721997426856133,0.4696608235630244
4.36,4.19,0.91,0.293277730462055,0.1771243471092913,0.23509107515327388,0.6686655144716835,0.22955491183589358,0.4665040757033033
4.421,4.25,0.68,0.2953214356909628,0.17453239023983438,0.23650420559752747,0.6707162611983845,0.23184257135410644,0.46351988377760245
4.462,4.3,0.63,0.29729050259301193,0.17221010812469814,0.23784999873436027,0.6727910093992779,0.2340833120980906,0.46070620814928376
4.565,4.36,0.96,0.2991862853032746,0.17015333532645965,0.239129486151206,0.6748881493877936,0.23627751330404087,0.45806092915762164
4.586,4.41,0.76,0.30101016930125407,0.16835780434943978,0.24034372345640628,0.6770060858981951,0.23842557319518812,0.45558185009470314
4.628,4.47,0.48,0.30276356946051747,0.16681915070126185,0.2414937889184967,0.6791432392152287,0.2405279080031948,0.4532667002061487
4.691,4.52,1.05,0.30444792809325744,0.1655329179368755,0.24258078210847164,0.6812980462621715,0.24258495098690383,0.4511131377112175
4.754,4.58,0.86,0.3060647129919944,0.1644945626788532,0.24360582254639854,0.6834689616468169,0.24459715145010374,0.44911875283787633
4.795,4.63,0.52,0.3076154154705898,0.1636994596080758,0.24457004835369955,0.6856544586649252,0.24656497375994665,0.4472810708684925
4.855,4.69,0.85,0.3091015484067274,0.16314290641927237,0.24547461491236364,0.6878530302608115,0.24848889636764657,0.445597555191923
4.958,4.74,0.93,0.31052464428802684,0.16282012873623478,0.24632069353234926,0.6900631899449379,0.2503694108330981,0.4440656103578527
4.979,4.8,0.75,0.31188625326395875,0.16272628498189304,0.24710947012848358,0.6922834726685007,0.2522070208550308,0.442682585129412
5.019,4.85,0.62,0.31318794120568105,0.1628564711989386,0.24784214390816572,0.6945124356550998,0.25400224130826515,0.4414457755303557
5.082,4.91,1.0,0.31443128777584156,0.16320572581725037,0.24851992607112064,0.6967486591896968,0.2557555972896276,0.4403524278832381
5.144,4.96,0.77,0.31561788451032896,0.16376903436481519,0.24914403852239425,0.6989907473650586,0.2574676231740706,0.4393997418351011
5.185,5.02,0.43,0.3167493329138897,0.16454133411915833,0.24971571259974729,0.7012373287857709,0.2591388616825064,0.43858487336733804
5.246,5.07,0.97,0.3178272425714422,0.16551751869662673,0.2502361878165783,0.703487057229758,0.2607698629627991,0.4379049377865658
5.307,5.13,0.78,0.31885322927681253,0.16669244257716312,0.2507067106214957,0.705738612267143,0.26236118368529276,0.4373570126935058
5.348,5.18,0.46,0.3198289131805008,0.1680609255624576,0.25112853317563827,0.7079906998362867,0.26391338615414583,0.4369381409270967
5.413,5.24,0.7,0.32075591695797057,0.16961775716560618,0.2515029121487676,0.7102420527770853,0.2654270374356522,0.4366453334812997
5.494,5.29,0.83,0.32163586399987626,0.17135770093059813,0.25183110753508237,0.7124914313219342,0.266902708504651,0.43647557239221174
5.515,5.35,0.66,0.32247037662559613,0.17327549868012018,0.2521143814896673,0.7147376235450034,0.2683409734100292,0.43642581359332117
5.575,5.4,0.51,0.3232610743213959,0.17536587469046747,0.2523539971864364,0.7169794457706088,0.26974240846021064,0.43649298973702405
5.658,5.46,0.97,0.3240095720045061,0.1776235397927773,0.252551217698336,0.719215742941572,0.2711075914294551,0.4366740129807429
5.679,5.51,0.77,0.3247174783143951,0.18004319540014127,0.25270730490050913,0.7214453889484386,0.2724371007857573,0.436965777736134
5.739,5.57,0.42,0.32538639393253715,0.1826195374603474,0.2528235183970922,0.7236672869202893,0.2737315149410881,0.43736516338005205
5.8,5.62,1.01,0.32601790993199403,0.1853472603341278,0.2529011144722961,0.7258803694777249,0.27499141152469536,0.4378690369261051
5.842,5.68,0.87,0.32661360615814217,0.18822106059883967,0.25294134506642485,0.7280835989485357,0.2762173666801557,0.43847425565579273
5.904,5.73,0.59,0.3271750496418773,0.19123564077755198,0.2529454567774596,0.730275967546666,0.27740995438682625,0.4391776697084508
5.965,5.79,0.76,0.3277037930466053,0.19438571299360183,0.2529146898887473,0.7324564975154756,0.2785697458063137,0.439976124629464
6.027,5.84,0.92,0.32820137315030745,0.19766600255070016,0.2528502774232409,0.7346242412367833,0.27969730865457043,0.4408664638763035
6.068,5.9,0.76,0.3286693093639605,0.20107125143851445,0.25275344422473245,0.7367782813074215,0.28079320660019497,0.441845531282031
6.13,5.95,0.56,0.3291091022875468,0.20459622176350012,0.2526254060665491,0.7389177305849711,0.2818579986894388,0.44291017347604184
6.213,6.01,1.09,0.3295222323048264,0.2082356991046879,0.2524673687881964,0.7410417322041499,0.28289223879836034,0.4440572422619089
6.233,6.06,0.87,0.329910158217997,0.2119844957940815,0.2522805274604587,0.7431494595650597,0.28389647511252525,0.44528359695218334
6.273,6.12,0.51,0.33027431592334716,0.21583745412125593,0.2520660655794859,0.7452401162942195,0.28487124963461113,0.44658610666002685
6.334,6.17,1.08,0.330616117128997,0.21978944946173684,0.25182515429040464,0.7473129361791351,0.28581709772025327,0.4479616525475434
6.397,6.23,0.99,0.33093694811582164,0.22383539332872954,0.25155895164100023,0.7493671830770776,0.28673454764245826,0.44940713003067684
6.459,6.28,0.75,0.3312381685426459,0.2279702363477942,0.2512686018660097,0.7514021507988188,0.2876241201848794,0.4509194509406248
6.519,6.34,0.87,0.33152111029678066,0.23218897115418383,0.25095523470246717,0.7534171629684137,0.2884863282642192,0.4524955456418196
6.581,6.39,1.08,0.3317870763909588,0.23648663521262828,0.2506199647364071,0.7554115728605749,0.28932167658203856,0.45413236510645927
6.642,6.45,0.91,0.33203733990774414,0.24085831355922746,0.2502638907811527,0.7573847632173978,0.29013066130625403,0.4558268829454408
6.662,6.5,0.66,0.332273142992484,0.24529914146493423,0.2498880952873888,0.759336146046115,0.29091376978257244,0.45757609739547234
6.766,6.56,1.15,0.3324956958958421,0.24980430702000556,0.24949364378518643,0.7612651623993292,0.29167148027608175,0.4593770332620556
6.808,6.61,0.91,0.33270617606690955,0.2543690536387004,0.2490815843581389,0.7631712821388872,0.2924042617431817,0.46122674381792406
6.83,6.67,0.51,0.3329057272978371,0.25898868248338286,0.24865294714976002,0.7650540036842925,0.2931125736339695,0.4631223126564687
6.89,6.72,1.0,0.3330954589208485,0.2636585548071023,0.2482087439022769,0.766912853746389,0.29379686572511476,0.4650608554996659
6.953,6.78,0.95,0.3332764450583985,0.2683740942136265,0.24774996752794934,0.7687473870469755,0.29445757798316385,0.4670395219600188
6.994,6.83,0.74,0.3334497239271457,0.27313078883383,0.2472775917130519,0.7705571860249966,0.2950951404580787,0.46905549725615353
7.056,6.89,0.8,0.33361629719631963,0.2779241934173899,0.24679257055458212,0.772341860530109,0.29570997320669884,0.471106003881859
7.157,6.94,1.1,0.33377712940101784,0.2827499313387554,0.24629583822964213,0.77410104750467,0.296302486245755,0.4731883032283418
7.178,7.0,0.9,0.3339331474109884,0.28760369651622014,0.2457883086973669,0.7758344106552423,0.29687307953403513,0.47529969715933806
7.218,7.05,0.65,0.334085239955476,0.29248125524275753,0.24527087543323597,0.7775416401145748,0.2974221429832664,0.4774375295386422
7.279,7.11,1.21,0.3342342572047033,0.2973784479272509,0.24474441119557008,0.7792224520947789,0.297950056497253,0.4795991877095261
7.32,7.16,0.99,0.3343810104085357,0.30229119074477284,0.2442097678239987,0.780876588532169,0.29845719003879684,0.4817821039254156
7.402,7.22,0.61,0.33452627159283116,0.30721547719458114,0.2436677760696754,0.7825038167240023,0.29894390372388946,0.4839837567311576
7.444,7.27,1.04,0.33467077331391476,0.31214737956450883,0.24311924545700347,0.7841039289572385,0.2994105479426264,0.48620167229418054
7.567,7.33,1.05,0.3348152084715394,0.3170830503003646,0.24256496417665202,0.7856767421293933,0.29985746350626563,0.4884334256848237
7.588,7.38,0.83,0.33496023018060395,0.32201872327888803,0.24200569900966956,0.7872220973615335,0.30028498181976815,0.49067664210518136
7.609,7.44,0.84,0.3351064517017568,0.3269507149828703,0.24144219528245187,0.7887398596035678,0.30069342507906793,0.49292899806590745
7.65,7.49,1.2,0.33525444643086316,0.33187542557721195,0.24087517685219717,0.7902299172321657,0.301083106492271,0.4951882225103787
7.731,7.55,1.01,0.33540474794720343,0.33678933988478515,0.2403053461223774,0.7916921816416691,0.3014543305239583,0.4974520978854684
7.794,7.6,0.73,0.33555785012017647,0.3416890282611181,0.2397333840876768,0.793126586828258,0.3018073931617411,0.499718461158085
7.876,7.66,1.33,0.33571420727418905,0.3465711473672032,0.23915995040777377,0.7945330889674695,0.30214258220420714,0.5019852047765325
7.895,7.71,1.14,0.3358742344113355,0.3514324408400602,0.23858568350928022,0.7959116659850325,0.30246017756941107,0.5042502775756481
7.936,7.77,0.78,0.3360383074913963,0.3562697398609544,0.2380112007151038,0.7972623171209173,0.3027604516230566,0.5065116856246609
7.998,7.82,1.15,0.33620676376860414,0.3610799636214384,0.2374370984004362,0.7985850624865868,0.30304366952552725,0.5087674930167435
8.039,7.88,1.19,0.3363799021845381,0.3658601196876094,0.23686395217455736,0.799879942615598,0.3033100895969347,0.5110158225992419
8.103,7.93,0.97,0.3365579838163947,0.3706073042632028,0.23629231708766316,0.8011470180078232,0.3035599636993232,0.5132548566436814
8.163,7.99,0.85,0.3367412323797174,0.37531870235248926,0.23572272786188436,0.8023863686676967,0.3037935376351056,0.515482837454835
8.245,8.04,1.21,0.3369298347844762,0.37999158782431847,0.23515569914554768,0.8035980936370574,0.3040110515607622,0.5176980679182203
8.265,8.1,0.98,0.3371239417432026,0.3846233233788922,0.2345917257896289,0.8047823105231775,0.30421274041478186,0.5198989119854117
8.327,8.15,0.68,0.3373236684296998,0.38921136041903315,0.23403128314527258,0.8059391550224337,0.3043988343587272,0.5220837950966444
8.367,8.21,1.31,0.3375290951866315,0.3937532388279816,0.23347482738118794,0.8070687804398963,0.30456955923020057,0.5242512045402878
8.471,8.26,1.12,0.3377402682801045,0.39824658665601315,0.23292279581968633,0.808171357204993,0.3047251370064004,0.5263996897488413
8.493,8.32,0.78,0.3379572006992269,0.4026891197183769,0.23237560729007398,0.8092470723834072,0.30486578627688005,0.5285278625312001
8.532,8.37,1.1,0.3381798729985426,0.40707864110724246,0.231833662498029,0.8102961291856557,0.30499172272409414,0.5306343972410448
8.616,8.43,1.22,0.33840823418122307,0.4114130406204999,0.23129734440953892,0.8113187464731748,0.3051031596103185,0.5327180308812506
8.678,8.48,1.03,0.33864220262089606,0.4156902941104118,0.230767018647995,0.8123151582629636,0.30520030826951,0.5347775631443619
8.698,8.54,0.92,0.33888166701994804,0.41990846275542837,0.23024303390306092,0.8132856132318955,0.3052833786026206,0.536811856389405
8.759,8.59,1.36,0.33912648740208434,0.42406569225888596,0.22972572234991373,0.8142303742217891,0.3053525795748718,0.5388198355554471
8.82,8.65,1.14,0.33937649613689186,0.4281602119785916,0.22921540007745222,0.8151497177461632,0.3054081197135085,0.5408004880123797
8.862,8.7,0.8,0.33963149899412626,0.43219033399145607,0.22871236752408614,0.816043933499348,0.3054502076045363,0.5427528633495287
8.923,8.76,1.41,0.3398912762253973,0.4361544520974753,0.22821690991974142,0.8169133238683528,0.30547905238694134,0.5446760731028268
8.985,8.81,1.22,0.34015558367086,0.4400510407674516,0.2277292977327569,0.8177582034476939,0.30549486424288624,0.5465692904213761
9.028,8.87,0.9,0.34042415388843567,0.44387865403890225,0.22724978712037222,0.8185788985573269,0.3054978548823424,0.5484317496743737
9.089,8.92,1.2,0.3406966973029845,0.4476359243646768,0.22677862038147834,0.8193757467640614,0.3054882380205985,0.5502627459995013
9.153,8.98,1.36,0.3409729033727773,0.4513215614188219,0.22631602641028883,0.8201490964071422,0.30546622984708266,0.5520616347939316
9.195,9.03,1.21,0.3412524417705766,0.4549343508641783,0.22586222114965382,0.8208993061288248,0.3054320494839148,0.5538278311491819
9.256,9.09,1.07,0.3415349635766106,0.4584731530862343,0.22541740804281485,0.8216267444106709,0.3053859194325814,0.5555608092311869
9.38,9.14,1.58,0.3418201024807176,0.46193690189790754,0.2249817784824448,0.8223317891160978,0.30532806600715773,0.557260101607013
9.4,9.2,1.37,0.34210747599097924,0.4653246032199927,0.22455551225587084,0.8230148270394355,0.3052587197525716,0.5589252985196294
9.442,9.25,1.01,0.34239668664623707,0.4686353337419516,0.22413877798544168,0.823676253461394,0.30517811584646787,0.5605560471122093
9.482,9.31,1.63,0.34268732322996814,0.4718682395675845,0.2237317335630712,0.8243164717105569,0.3050864944832988,0.5621520506035326
9.545,9.36,1.48,0.34297896198308325,0.4750225348499251,0.22333452657808497,0.8249358927302779,0.30498410123933645,0.5637130674161563
9.586,9.42,1.19,0.3432711678132801,0.47809750041951277,0.22294729473758726,0.8255349346502958,0.3048711874173389,0.5652389102592147
9.628,9.47,1.39,0.34356349549861215,0.4810924824101187,0.22257016627857884,0.8261140223626269,0.30474801036963667,0.5667294451679139
9.711,9.53,1.55,0.343855490882959,0.484006890885855,0.22220326037106367,0.8266735871016374,0.30461483379846516,0.5681845905018431
9.752,9.58,1.42,0.3441466920611179,0.48684019847326687,0.22184668751145895,0.8272140660283293,0.30447192803239703,0.5696043159042591
9.812,9.64,1.24,0.34443663055125145,0.4895919390016032,0.2215005499057246,0.827735901818708,0.3043195702777216,0.5709886412245677
9.873,9.69,1.79,0.34472483245244084,0.4922617061541148,0.22116494184170346,0.828239542255819,0.30415804484363684,0.5723376354062407
9.913,9.75,1.58,0.34501081958514457,0.49484915213286285,0.2208399500502413,0.8287254398246767,0.3039876433401795,0.5736514153423106
9.974,9.8,1.23,0.3452941106124586,0.49735398633918493,0.2205256540547333,0.8291940513089658,0.3038086648478811,0.5749301447005349
10.035,9.86,1.86,0.3455742221401795,0.49977597407173396,0.22022212650880632,0.8296458373881738,0.3036214160582388,0.5761740327202426
10.098,9.91,1.76,0.3458506697937956,0.5021149352438439,0.2199294335219112,0.830081262233742,0.303426211384201,0.5773833329828174
10.158,9.97,1.51,0.34612296927064423,0.504370743121926,0.2196476349726188,0.8305007931030423,0.3032233730399643,0.5785583421578367
10.178,10.02,1.68,0.3463906373655789,0.5065433230866613,0.21937678480932105,0.8309048999306011,0.30301323108947203,0.5796993987269472
10.239,10.08,1.87,0.3466531929686102,0.508632651418732,0.21911693133791968,0.8312940549167996,0.30279612346315965,0.58080688168749
10.3,10.13,1.72,0.34691015803314074,0.5106387541105971,0.21886811749607427,0.8316687321147048,0.30257239594260715,0.5818812092377449
10.36,10.19,1.48,0.3471610585135423,0.5125617057054929,0.21863038111365038,0.832029407015686,0.3023424021128562,0.5829228374455824
10.442,10.24,2.0,0.34740542527091883,0.5144016281646135,0.21840375515909807,0.8323765561341934,0.3021065032822318,0.5839322589021929
10.463,10.3,1.78,0.3476427949459775,0.5161586897631943,0.21818826797159388,0.8327106565917115,0.301865068369603,0.5849100013623929
10.524,10.35,1.4,0.3478727107980081,0.5178331040159213,0.21798394347887728,0.8330321856995744,0.30161847375907436,0.5858566263728847
10.605,10.41,1.99,0.34809472350904314,0.5194251286317615,0.2177908014007953,0.8333416205401177,0.3013671031221674,0.586772727889748
10.627,10.46,1.93,0.34830839195236035,0.5209350644979459,0.2176088574386612,0.8336394375455842,0.30111134720761235,0.5876589308863506
10.688,10.52,1.71,0.348513283924593,0.52236325469257,0.21743812345060365,0.8339261120743253,0.30085160359892343,0.5885158899529108
10.729,10.57,1.85,0.34870897684082264,0.5237100835251985,0.2172786076130403,0.8342021179843438,0.30058827644000724,0.5893442878889958
10.813,10.63,2.13,0.3488950583921731,0.5249759756047957,0.21713031456832005,0.8344679272048551,0.30032177612920175,0.5901448342901432
10.853,10.68,1.96,0.34907112716562355,0.5261613949340662,0.2169932455585687,0.834724009306897,0.30005251898231083,0.590918264129594
10.894,10.74,1.69,0.3492367932259442,0.5272668440290428,0.2168673985458394,0.8349708310739833,0.2997809268653537,0.591665336335987
10.957,10.79,2.26,0.34939167865982734,0.5282928630625816,0.21675276831875226,0.835208856073549,0.2995074267979078,0.5923868323676965
11.018,10.85,2.01,0.3495354180824406,0.5292400290302867,0.21664934658590695,0.835438544229622,0.2992324505280935,0.5930835547843446
11.06,10.9,1.46,0.34966765910676895,0.5301089549372028,0.2165571220564452,0.8356603513969036,0.2989564340803561,0.5937563258159521
11.121,10.96,1.96,0.34978806277621854,0.5309002890034635,0.2164760805082081,0.8358747289363159,0.2986798172772974,0.5944059859302177
11.182,11.01,1.92,0.349896303961035,0.5316147138869008,0.21640620484401374,0.8360821232920871,0.2984030432368482,0.5950333923985345
11.242,11.07,1.7,0.34999207171913227,0.5322529459204569,0.2163474751366531,0.8362829755705522,0.29812655784603054,0.5956394178617244
11.303,11.12,1.76,0.3500750696219416,0.5328157343622079,0.21629986866317336,0.8364777211211788,0.2978508092124881,0.5962249488969192
11.385,11.18,2.1,0.35014501604592996,0.5333038606557567,0.2162633599289256,0.8366667891207666,0.29757624709496006,0.5967908845872217
11.405,11.23,1.9,0.3502016444305504,0.5337181376985775,0.21623792068180797,0.8368506021619837,0.2973033223139425,0.5973381350957302
11.447,11.29,1.64,0.35024470350353487,0.5340594091157188,0.21622351991714314,0.8370295758473284,0.297032486143867,0.5978676202454113
11.552,11.34,2.23,0.35027395747456674,0.534328548536331,0.21622012387364373,0.8372041183894173,0.2967641896882568,0.5983802681061638
11.574,11.4,2.0,0.35028918619847743,0.5345264588706171,0.21622769602095238,0.8373746302182826,0.296498883239465,0.5988770135902729
11.614,11.45,1.57,0.3502901853091931,0.5346540715849516,0.21624619703927755,0.8375415035962067,0.2962370156247148,0.5993587970573759
11.675,11.51,1.99,0.35027676632572335,0.5347123459729778,0.21627558479166717,0.8377051222406481,0.29597903354027766,0.5998265629300363
11.757,11.56,1.99,0.3502487567315567,0.5347022684204806,0.21631581428952487,0.8378658609558924,0.295725380875729,0.6002812583209854
11.778,11.62,1.73,0.3502060000288839,0.5346248516618416,0.21636683765206127,0.8380240852741394,0.29547649803024884,0.6007238316732119
11.942,11.67,1.65,0.3501483557690569,0.5344811340261028,0.21642860406038705,0.8381801511068611,0.29523282122293915,0.6011552314142501
11.962,11.73,1.99,0.3500756995606398,0.534272178670995,0.21650105970687644,0.8383344044074591,0.2949947817991544,0.601576404626043
11.983,11.78,1.76,0.3499879230563526,0.5339990728034998,0.21658414774035764,0.8384871808462857,0.294762805534868,0.6019882957316584
12.024,11.84,1.43,0.34988493392013764,0.5336629268856746,0.21667780820763147,0.8386388054989744,0.29453731194109406,0.6023918452000812
12.065,11.89,2.0,0.3497666557754847,0.5332648738247365,0.21678197799177298,0.8387895925488618,0.2943187135703722,0.6027879882702335
12.127,11.95,1.77,0.3496330281360648,0.5328060681467041,0.2168965907476444,0.8389398450041345,0.29410741532733026,0.6031776536952813
12.19,12.0,1.4,0.34948400631967036,0.532287685153191,0.21702157683502413,0.8390898544303178,0.29390381378532904,0.6035617625082651
12.231,12.06,1.71,0.3493195613464409,0.5317109200612326,0.21715686324971337,0.8392399006989143,0.293708296511205,0.6039412268100828
12.312,12.11,1.76,0.349139679822379,0.5310769871262736,0.2173023735529838,0.8393902517532846,0.2935212414001471,0.604316948580821
12.333,12.17,1.53,0.3489443638091949,0.5303871187486712,0.21745802779979873,0.8395411633929933,0.2933430160227244,0.6046898185154722
12.395,12.22,1.37,0.34873363068152285,0.5296425645643844,0.2176237424662906,0.8396928790778478,0.2931739769860374,0.6050607148851809
12.437,12.28,1.74,0.3485075129725275,0.5288445905209004,0.21779943037696495,0.8398456297528073,0.2930144693109453,0.6054305024251667
12.518,12.33,1.49,0.34826605820890766,0.5279944779397013,0.21798500063208331,0.8399996336947768,0.2928648258273069,0.6058000312504085
12.558,12.39,1.11,0.34800932873627205,0.527093522566777,0.2181803585356665,0.8401550963820515,0.2927253665891184,0.6061701358001532
12.639,12.44,1.62,0.3477374015358037,0.5261430336129019,0.2183854055245373,0.8403122103869473,0.29259639831136447,0.606541633812297
12.66,12.5,1.39,0.34745036803304513,0.5251443327855643,0.21860003909881315,0.8404711552919865,0.29247821383032746,0.6069153253286362
12.722,12.55,1.02,0.34714833389954175,0.5240987533145148,0.2188241527542335,0.8406320976299696,0.2923710915889927,0.6072919917319979
12.763,12.61,1.24,0.34683141884796803,0.5230076389729958,0.21905763591663646,0.8407951908484925,0.2922752951490744,0.6076723948162932
12.825,12.66,1.34,0.3464997564212601,0.5218723430967498,0.21930037387883863,0.8409605752997819,0.2921910727310771,0.6080572758905253
12.887,12.72,1.13,0.3461534937762037,0.5206942276029163,0.21955224774017962,0.8411283782568468,0.29211865678367077,0.608447354917784
12.929,12.77,0.92,0.34579279146184944,0.5194746620110312,0.21981313434900304,0.8412987139568593,0.2920582635835053,0.6088433296903267
13.011,12.83,1.35,0.3454178231930666,0.5182150224685341,0.22008290624833027,0.8414716836724737,0.29201009286647767,0.6092458750418106
13.053,12.88,1.1,0.3450287756195327,0.516916690783266,0.2203614316249753,0.8416473758115058,0.2919743274913829,0.6096556420976494
13.094,12.94,0.72,0.3446258480904786,0.5155810534653666,0.22064857426235923,0.8418258660450185,0.2919511331367711,0.6100732575644682
13.176,12.99,1.26,0.34420925241552963,0.5142095007808161,0.22094419349728694,0.8420072174635537,0.2919406580317341,0.6104993230596504
13.238,13.05,1.07,0.34377921262200645,0.5128034258186549,0.22124814418097355,0.8421914807610031,0.2919430327212446,0.6109344144819875
13.279,13.1,0.76,0.34333596470903094,0.5113642235737492,0.22156027664461247,0.8423786944455337,0.29195836986655155,0.6113790814245048
13.383,13.16,0.91,0.34287975639873114,0.5098932900469327,0.22188043666971385,0.842568885077165,0.29198676408101665,0.6118338466305939
13.404,13.21,1.03,0.34241084688477463,0.5083920213643028,0.22220846546337192,0.8427620675318799,0.29202829180168494,0.6122992054945112
13.445,13.27,0.85,0.3419295065784122,0.5068618129172527,0.22254419963861855,0.8429582452921965,0.2920830111967535,0.612775625607201
13.548,13.32,0.62,0.3414360168521317,0.5053040585245638,0.22288747120004132,0.8431574107639348,0.29215096210895136,0.6132635463483469
13.569,13.38,1.11,0.3409306697809336,0.5037201496176394,0.22323810753484769,0.8433595456185834,0.2922321660347042,0.6137633785254154
13.61,13.43,0.89,0.34041376788116817,0.5021114744496792,0.22359593140956746,0.843564621160301,0.29232662613884386,0.6142755040602327
13.672,13.49,0.49,0.33988562384684445,0.5004794173292816,0.22396076097260895,0.8437725987161839,0.2924343273045069,0.6148002757234358
13.755,13.54,1.07,0.3393465602833122,0.49882535787872123,0.22433240976290048,0.8439834300481511,0.29255523621777424,0.6153380169169466
13.775,13.6,0.97,0.3387969094382399,0.4971506703169587,0.22471068672489206,0.8441970577845789,0.2926893014865217,0.6158890215044504
13.817,13.65,0.73,0.33823701292984787,0.49545672276731395,0.22509539623021602,0.8444134158698023,0.2928364537928604,0.6164535536898093
13.88,13.71,0.83,0.3376672214723901,0.49374487658971783,0.22548633810624802,0.8446324300298389,0.2929966060784634,0.6170318479433042
13.92,13.76,1.05,0.33708789459893534,0.49201648573738666,0.2258833076717195,0.8448540182530774,0.29316965376206017,0.6176241089754141
13.983,13.82,0.88,0.3364994003815903,0.49027289613751357,0.22628609577950973,0.8450780912848096,0.2933554749883518,0.6182305117575908
14.044,13.87,0.63,0.33590211514937535,0.4885154450952979,0.22669448886677013,0.8453045531343457,0.29355393090754767,0.6188512015893237
14.106,13.93,1.16,0.3352964232039959,0.48674546072046126,0.22710826901255698,0.8455333015931537,0.29376486598467316,0.6194862942105989
14.146,13.98,0.92,0.3346827165337718,0.4849642613752381,0.22752721400318954,0.8457642287621435,0.2939881083377533,0.6201358759586549
14.208,14.04,0.51,0.3340613945259924,0.4831731551426143,0.22795109740558467,0.845997221585915,0.2942234701039106,0.6208000039677756
14.248,14.09,1.01,0.33343286367794284,0.48137343931336113,0.2283796886488337,0.8462321623916459,0.2944707478323521,0.6214787064107314
14.309,14.15,0.99,0.3327975373068139,0.4795663998901748,0.22881275311430857,0.8464689294302709,0.29472972290315275,0.6221719827803764
14.37,14.2,0.79,0.3321558352586452,0.4777533111070435,0.229250052234604,0.8467073974176492,0.2950001619706281,0.6228798042099223
14.493,14.26,0.84,0.33150818361638207,0.4759354349619728,0.22969134360155516,0.8469474380736643,0.29528181742999077,0.6236021138304718
14.513,14.31,1.2,0.33085501440708875,0.4741140207612473,0.23013638108344617,0.8471889206575323,0.2955744279059503,0.6243388271642706
14.554,14.37,1.02,0.33019676530840886,0.4722903046733256,0.23058491495145775,0.8474317124977068,0.295877718761927,0.6250898325519365
14.595,14.42,0.75,0.32953387935443074,0.4704655092903986,0.23103669201537852,0.8476756795146604,0.29619140262855614,0.6258549916117914
14.636,14.48,1.37,0.32886680464117146,0.46864084319574406,0.23149145576859598,0.8479206867346004,0.296515179950195,0.6266341397292939
14.698,14.53,1.17,0.328195994031927,0.4668175005352104,0.2319489465423794,0.8481665987920247,0.29684873954819535,0.6274270865744664
14.759,14.59,0.75,0.32752190486276095,0.464996660591383,0.23240890166942632,0.8484132804190773,0.29719175919973184,0.6282336166451875
14.841,14.64,1.15,0.32684499864840566,0.46317948735922165,0.23287105565652422,0.8486605969201186,0.29754390623101223,0.6290534898342478
14.862,14.7,1.22,0.32616574078884963,0.46136712912215266,0.2333351403660733,0.8489084146305544,0.29790483812372026,0.6298864420181068
14.925,14.75,0.99,0.32548460027686377,0.45956071802776255,0.23380088520616488,0.849156601359459,0.29827420313350766,0.6307321856654753
14.985,14.81,0.89,0.3248020494066402,0.45776136966249215,0.23426801732885394,0.849405026815848,0.2986516409192797,0.631590410464118
15.025,14.86,1.29,0.32411856348361673,0.4559701826250116,0.23473626183616092,0.8496535630186683,0.29903678318198446,0.6324607839643802
15.086,14.92,1.06,0.32343462053546007,0.4541882380980796,0.23520534199325452,0.8499020846905985,0.29942925431159007,0.6333429522379205
15.148,14.97,0.73,0.32275070102408415,0.4524165994187502,0.23567497944821575,0.8501504696355787,0.29982867204088176,0.6342365405501458
15.229,15.03,1.39,0.3220672875584673,0.4506563116469022,0.23614489445773773,0.8503985990998199,0.30023464810465045,0.6351411540448924
15.25,15.08,1.23,0.3213848646079532,0.4489084011321716,0.2366148061180928,0.8506463581158707,0.3006467889028039,0.6360563784399365
15.312,15.14,0.91,0.320703918215687,0.44717387507945516,0.23708443260065937,0.8508936358293777,0.301064696165888,0.6369817807320626
15.353,15.19,1.25,0.3200249357118468,0.4454537211132954,0.2375534913912224,0.8511403258085084,0.30148796762151336,0.6379169099105252
15.415,15.25,1.38,0.319348405426372,0.4437489068416583,0.23802169953221597,0.8513863263365011,0.3019161976602417,0.6388612976777539
15.476,15.3,1.21,0.31867481640092366,0.44206037941994875,0.23848877386711814,0.8516315406880812,0.30234897799952665,0.6398144591761908
15.516,15.36,1.07,0.31800465809978457,0.4403890651167604,0.23895443128625074,0.8518758773906013,0.3027858983443259,0.6407758937202729
15.578,15.41,1.54,0.3173384201193465,0.4387358688836449,0.23941838897323847,0.8521192504707459,0.3032265470430556,0.6417450855326365
15.64,15.47,1.32,0.31667659189581104,0.43710167393175364,0.2398803646513974,0.8523615796874984,0.30367051173761794,0.6427215044836412
15.724,15.52,0.96,0.3160196624107376,0.43548734131846173,0.24034007682935893,0.8526027907517916,0.3041173800062664,0.6437046068334138
15.744,15.58,1.56,0.31536811989408453,0.4338937095471801,0.24079724504527622,0.8528428155329864,0.30456673999810435,0.6446938359757473
15.805,15.63,1.38,0.3147224515243919,0.43232159418354676,0.24125159010901465,0.8530815922520989,0.3050181810580292,0.64568862318331
15.846,15.69,1.08,0.31408314312573693,0.43077178749110956,0.2417028343417645,0.8533190656616773,0.30547129434093023,0.6466883883538136
15.951,15.74,1.33,0.3134506788610549,0.42924505808953956,0.24215070181247472,0.853555187212487,0.3059256734139359,0.6476925407569729
15.971,15.8,1.5,0.31282554092137904,0.4277421506382511,0.24259491857047494,0.8537899152075697,0.30638091484552415,0.648700479782145
16.012,15.85,1.36,0.3122082092105474,0.42626378554800315,0.24303521287370616,0.8540232149443691,0.30683661878030377,0.6497115956865743
16.073,15.91,1.2,0.3115991610249232,0.4248106587227424,0.24347131541207015,0.8542550588454528,0.3072923894982594,0.650725270344258
16.136,15.96,1.75,0.3109988707277083,0.42338344133369377,0.2439029595254825,0.8544854265780448,0.30774783595729027,0.6517408779954359
16.197,16.02,1.55,0.3104078094175151,0.4219827796274251,0.2443298814162975,0.854714305162174,0.3082025723179484,0.6527577859966482
16.259,16.07,1.17,0.3098264445909758,0.4206092947693384,0.2447518203558574,0.8549416890668601,0.3086562184493649,0.65377535557126
16.321,16.13,1.8,0.3092552397992812,0.4192635827238512,0.24516851888499122,0.8551675802934793,0.30910840041545623,0.6547929425603124
16.362,16.18,1.66,0.30869465429863774,0.4179462141723796,0.24557972300836436,0.8553919884453217,0.30955875094061086,0.6558098981735325
16.404,16.24,1.38,0.308145142694706,0.4166577344701339,0.24598518238261602,0.8556149307824922,0.3100069098541304,0.6568255697404218
16.466,16.29,1.56,0.3076071545811335,0.4153986636427314,0.24638465049813985,0.8558364322618525,0.31045252451276756,0.6578393014614742
16.507,16.35,1.75,0.30708113417235,0.414169496423516,0.24677788485424923,0.85605652556243,0.31089525020079023,0.658850435159575
16.57,16.4,1.58,0.30656751993087183,0.4129707023321393,0.24716464712745595,0.8562752510970969,0.31133475050706066,0.6598583110315965
16.693,16.46,1.36,0.30606674418940527,0.41180272579458715,0.24754470333264933,0.8564926570112649,0.31177069767863924,0.6608622684002076
16.713,16.51,1.92,0.3055792327680404,0.4106659863045738,0.2479178239770353,0.8567087991690012,0.3122027729504613,0.661861646465845
16.733,16.57,1.69,0.30510540458682217,0.4095608786259817,0.24828378420679303,0.8569237411265243,0.3126306668506927,0.6628557850586265
16.795,16.62,1.3,0.3046456712739904,0.4084877730357678,0.2486423639465083,0.8571375540925773,0.31305407948141584,0.663844025389829
16.837,16.68,1.92,0.3042004367701981,0.40744701560650304,0.2489933480315269,0.8573503168748859,0.3134727207743595,0.6648257108024312
16.899,16.73,1.84,0.30377009692906504,0.40643892852748786,0.2493365263334619,0.8575621158117804,0.31388631072145556,0.665800187520135
16.961,16.79,1.6,0.3033550391144846,0.40546381046323277,0.2496716938791298,0.8577730446882063,0.31429457958005286,0.6667668053943588
17.002,16.84,1.73,0.3029556417951681,0.40452193694807576,0.24999865096310994,0.8579832046359123,0.3146972680526826,0.6677249186487968
17.065,16.9,2.03,0.3025722741370086,0.40361356081562655,0.25031720325398116,0.8581927040183345,0.3150941274413965,0.6686738866210659
17.127,16.95,1.84,0.30220529559398585,0.4027389126614437,0.25062716189423573,0.8584016583011297,0.31548491977682835,0.6696130745007864
17.188,17.01,1.57,0.301855055498465,0.40189820133699317,0.2509283435939021,0.8586101899092933,0.315869417922236,0.6705418540633317
17.229,17.06,2.13,0.30152189265184615,0.4010916144726747,0.25122057071795917,0.8588184280715597,0.3162474056528989,0.6714596043983386
17.289,17.12,1.88,0.30120613491660675,0.40031931902745305,0.2515036713676982,0.859026508652438,0.3166186777113652,0.6723657126319341
17.352,17.17,1.4,0.3009080988108491,0.39958146186236954,0.2517774794562613,0.859234573971948,0.31698303983911713,0.6732595746415697
17.434,17.23,1.91,0.30062808910649536,0.3988781703349555,0.25204183477863906,0.8594427726129557,0.3173403087852783,0.6741405957623517
17.453,17.28,1.86,0.3003663984322756,0.39820955291131277,0.2522965830764859,0.8596512592159481,0.31769031229300915,0.6750081914838051
17.494,17.34,1.63,0.3001233068826193,0.39757569979245155,0.252541576098186,0.8598601942611211,0.3180328890641984,0.6758617881362057
17.556,17.39,1.69,0.2998990816334798,0.3969766835515226,0.25277667165458134,0.8600697438378463,0.31836788870300153,0.6767008235658781
17.617,17.45,2.02,0.2996939765660539,0.3964125597787476,0.25300173367067885,0.8602800794018929,0.3186951716387876,0.6775247477988894
17.657,17.5,1.84,0.29950823189935555,0.39588336773090343,0.25321663223359786,0.8604913775208848,0.31901460902910134,0.6783330236924662
17.718,17.56,1.54,0.29934207383262856,0.39538913098222334,0.25342124363699986,0.8607038196083396,0.31932608264330964,0.6791251275733549
17.781,17.61,2.15,0.2991957141986193,0.3949298580736702,0.25361545042223266,0.8609175916464222,0.3196294847276863,0.6799005498622258
17.844,17.67,1.92,0.29906935012875574,0.39450554315767067,0.2537991414164235,0.8611328838973331,0.3199247178528016,0.6806587956830944
17.907,17.72,1.51,0.2989631637313081,0.3941161666355194,0.25397221176775986,0.8613498906031247,0.320211694744155,0.6813993854566938
17.948,17.78,1.95,0.29887732178362036,0.39376169578477266,0.2541345629781932,0.8615688096738274,0.3204903380970724,0.6821218554767321
18.009,17.83,1.95,0.2988119754395201,0.39344208537400566,0.25428610293384224,0.8617898423639321,0.3207605803769569,0.6828257584679677
18.072,17.89,1.69,0.2987672599530019,0.3931572782623974,0.25442674593345255,0.8620131929374314,0.3210223636060048,0.683510664125142
18.154,17.94,1.6,0.29874329441919695,0.3929072059818824,0.254556412715259,0.8622390683218498,0.321275639137489,0.6841761596319751
18.175,18.0,1.95,0.29874018153352205,0.3926917892999656,0.2546750304824865,0.8624676777519711,0.3215203674187364,0.6848218501594416
18.236,18.05,1.7,0.2987580073697795,0.39251093876153076,0.25478253292761244,0.8626992324040862,0.32175651774393166,0.6854473593424811
18.278,18.11,1.37,0.29879684117784366,0.3923645552081551,0.25487886025543166,0.862933945021493,0.32198406799784834,0.6860523297342793
18.339,18.16,1.98,0.2988567352014109,0.3922525302737126,0.25496395920489623,0.8631720295318119,0.32220300439156757,0.6866364232372444
18.402,18.22,1.76,0.2989377245161399,0.39217474685532905,0.2550377830696491,0.8634137006565455,0.3224133211912103,0.6871993215097543
18.443,18.27,1.36,0.29903982688840075,0.39213107955900245,0.2551002917171189,0.8636591735133221,0.32261502044067575,0.6877407263477836
18.525,18.33,1.74,0.2991630426547865,0.3921213951194161,0.2551514516059646,0.863908663211533,0.3228081116793606,0.6882603600405613
18.546,18.38,1.79,0.2993073546225392,0.39214555279362384,0.2551912358016286,0.8641623844424581,0.3229926116558483,0.6887579656994285
18.607,18.44,1.57,0.29947272799105235,0.39220340472841414,0.25521962398980064,0.8644205510652027,0.32316854403853196,0.6892333075591847
18.648,18.49,1.42,0.29965911029458947,0.3922947963014561,0.25523660248760816,0.8646833756899013,0.32333593912409586,0.6896861712514011
18.711,18.55,1.82,0.2998664313663072,0.3924195664367127,0.2552421642523004,0.864951069259691,0.32349483354478586,0.6901163640492641
18.773,18.6,1.57,0.30009460332363436,0.3925775478948863,0.255236308887148,0.865223840632891,0.3236452699753988,0.6905237150835384
18.835,18.66,1.2,0.30034352057502345,0.39276856753981587,0.25521904264426637,0.8655018961665766,0.3237872968408904,0.6909080755293467
18.919,18.71,1.76,0.3006130598480385,0.39299244658190297,0.25519037842406156,0.8657854393025005,0.3239209680254459,0.6912693187636058
18.938,18.77,1.52,0.3009030802386783,0.39324900079972974,0.25515033577101026,0.8660746701561189,0.32404634258380166,0.6916073404930726
18.979,18.82,1.15,0.3012134232817573,0.39353804074106896,0.2550989408654757,0.8663697851094854,0.3241634844555242,0.6919220588531516
19.039,18.88,1.39,0.30154391304206013,0.3938593719045668,0.25503622651117536,0.8666709764091215,0.3242724621828651,0.6922134144778058
19.101,18.93,1.5,0.3018943562258749,0.394212794903453,0.25496223211783553,0.866978431770453,0.32437334863273426,0.6924813705410287
19.163,18.99,1.31,0.30226454231240185,0.3945981056126783,0.2548770036785599,0.8672923339906623,0.3244662207232093,0.6927259127704748
19.205,19.04,1.14,0.30265424370441474,0.3950150953010145,0.2547805937414481,0.8676128605718125,0.3245511591548617,0.6929470494340324
19.267,19.1,1.62,0.3030632158974574,0.3954635507498572,0.25467306137497236,0.86794018335596,0.3246282481470843,0.6931448113002014
19.328,19.15,1.42,0.3034911976668228,0.39594325436058,0.2545544721266122,0.868274468173705,0.3246975751795592,0.6933192515731494
19.37,19.21,1.03,0.3039379112715761,0.39645398425228356,0.25442489797425183,0.868615874507296,0.32475923073896007,0.6934704458033469
19.432,19.26,1.62,0.3044030626749187,0.3969955143517039,0.2542844172698623,0.8689645551690929,0.3248133080709626,0.6935984917747327
19.492,19.32,1.46,0.30488634178024354,0.3975676144769243,0.25413311467503225,0.8693206559959669,0.3248599029376412,0.693703509369384
19.574,19.37,1.15,0.30538742268226676,0.3981700504164203,0.2539710810879576,0.8696843155601741,0.3248991133803027,0.6937856404108229
19.636,19.43,1.35,0.30590596393262737,0.3988025840049569,0.2537984135615227,0.8700556648974541,0.3249310394877812,0.6938450484872689
19.657,19.48,1.49,0.30644160881935373,0.3994649731977939,0.253615215212203,0.8704348272533918,0.3249557831702098,0.6938819187562184
19.699,19.54,1.32,0.3069939856596071,0.40015697214442186,0.25342159511972834,0.8708219178490819,0.3249734479382452,0.6938964577317507
19.759,19.59,1.1,0.3075627081051007,0.40087833126278416,0.25321766821765695,0.8712170436668505,0.3249841386876544,0.6938888930560195
19.821,19.65,1.61,0.3081473754595515,0.401628797314725,0.2530035551751218,0.8716203032564277,0.3249879614891253,0.6938594732563499
19.884,19.7,1.38,0.30874757300748257,0.40240811348314276,0.25277938227008045,0.8720317865615407,0.32498502338313423,0.6938084674892234
19.924,19.76,1.01,0.309362872353663,0.4032160194510506,0.2525452812544458,0.8724515747665013,0.32497543217965974,0.6937361652723123
20.007,19.81,1.62,0.30999283177243714,0.40405225148254614,0.25230138921150363,0.8728797401620697,0.324959296262503,0.6936428762055996
20.028,19.87,1.51,0.3106369965661882,0.40491654250557646,0.25204784840605693,0.8733163460297068,0.32493672439796484,0.693528929682499
20.089,19.92,1.26,0.3112948994321907,0.40580862219640274,0.2517848061277418,0.873761446543378,0.3249078255475995,0.693394674591874
20.152,19.98,1.43,0.31196606083712564,0.4067282170658135,0.2515124145278657,0.8742150866884919,0.32487270868476864,0.6932404790118469
20.213,20.03,1.67,0.3126499893985942,0.40767505054721326,0.2512308304499952,0.8746773021980937,0.32483148261476885,0.6930667298961346
20.254,20.09,1.51,0.31334618227307043,0.4086488430865465,0.2509402152544848,0.8751481195067149,0.3247842557983646,0.6928738327534397
20.356,20.14,1.26,0.31405412554984086,0.40964931223375883,0.2506407346371714,0.8756275557221626,0.3247311361785904,0.6926622113202956
20.377,20.2,1.79,0.3147732946505621,0.4106761727352715,0.25033255844250724,0.8761156186152128,0.324672231010744,0.6924323072275902
20.418,20.25,1.55,0.3155031547341491,0.411729136626732,0.2500158604714682,0.8766123066267933,0.32460764669555714,0.6921845796608145
20.502,20.31,1.12,0.3162431611067705,0.4128079133250868,0.24969081828464393,0.8771176088918733,0.3245374886155574,0.6919195050139623
20.543,20.36,1.67,0.31699275963674833,0.4139122097188831,0.2493576130009737,0.8776315052790616,0.324461860974639,0.6916375765369558
20.585,20.42,1.61,0.31775138717415485,0.4150417302555928,0.24901642909267455,0.8781539664448114,0.3243808666408489,0.6913393039764228
20.648,20.47,1.37,0.318518471974857,0.41619617702471623,0.24866745417697922,0.8786849539011836,0.32429460699233936,0.691025213209729
20.73,20.53,1.47,0.319293434128695,0.41737524983550345,0.2483108788052504,0.8792244200964876,0.32420318176639484,0.6906958458722467
20.75,20.58,1.78,0.32007568599144404,0.4185786462882065,0.24794689624991564,0.879772308508601,0.3241066889114552,0.6903517589777595
20.812,20.64,1.6,0.3208646326202474,0.4198060618376615,0.24757570228960127,0.8803285537510261,0.3240052244421029,0.6899935245317261
20.852,20.69,1.33,0.3216596722122864,0.42105718984783697,0.24719749499284402,0.8808930816916247,0.3238988822970141,0.6896217291370207
20.915,20.75,1.93,0.32246019654655694,0.42233172163588567,0.246812474500781,0.8814658095837028,0.32378775419994704,0.6892369735916499
20.975,20.8,1.7,0.3232655914287414,0.4236293465041262,0.2464208428092601,0.8820466462088019,0.3236719295239179,0.6888398724778518
21.017,20.86,1.27,0.32407523713929304,0.42494975175826716,0.24602280355085598,0.8826354920302949,0.32355149515877035,0.6884310537419595
21.097,20.91,1.75,0.3248885088849478,0.42629262271009266,0.2456185617773094,0.8832322393568224,0.3234265353824015,0.6880111582644355
21.138,20.97,1.73,0.32570477725396096,0.42765764266273204,0.2452083237429812,0.8838367725146156,0.3232971317359486,0.6875808394194995
21.179,21.02,1.49,0.32652340867541696,0.4290444928765763,0.2447922966900083,0.8844489680278125,0.3231633629032304,0.6871407626239108
21.241,21.08,1.47,0.32734376588294717,0.4304528525140249,0.2443706886358559,0.8850686948060453,0.32302530459470624,0.6866916048746455
21.302,21.13,1.8,0.3281652083831511,0.4318823985614275,0.2439437081638776,0.8856958143388297,0.32288302943622155,0.6862340542752142
21.365,21.19,1.59,0.32898709292897765,0.43333280572665156,0.24351156421742506,0.8863301808963562,0.32273660686281924,0.6857688095502479
21.509,21.24,1.28,0.32980877399825764,0.43480374631077323,0.2430744658980059,0.8869716417361477,0.3225861030178805,0.6852965795479244
21.529,21.3,1.9,0.33062960427748095,0.43629489005259664,0.242632622267939,0.8876200373148369,0.3224315806578497,0.6848180827297299
21.55,21.35,1.69,0.3314489351508255,0.4378059039449651,0.24218624215792098,0.8882752015041215,0.32227309906280593,0.6843340466469701
21.57,21.41,1.3,0.332266117194391,0.4393364520220484,0.24173553397988415,0.8889369618098513,0.3221107139531379,0.6838452074034422
21.633,21.46,1.72,0.33308050067557715,0.44088619511698873,0.24128070554549225,0.8896051395932775,0.3219444774126047,0.683352309103708
21.694,21.52,1.77,0.33389143605758226,0.44245479058940995,0.24082196389065424,0.8902795502936477,0.32177443781810444,0.6828561032864229
21.756,21.57,1.54,0.3346982745090387,0.4440418920224262,0.24035951510652223,0.8909600036514248,0.3216006397764835,0.6823573483423033
21.878,21.63,1.45,0.3355003684188068,0.44564714888907453,0.2398935641774572,0.8916463039315385,0.3214231240687173,0.6818568089164876
21.9,21.68,1.83,0.33629707191592456,0.44727020618848795,0.239424314826376,0.8923382501462352,0.3212419276018213,0.6813552552951029
21.919,21.74,1.58,0.33708774139469533,0.4489107040524356,0.23895196936781934,0.8930356362771114,0.32105708336889627,0.6808534627758177
21.959,21.79,1.24,0.3378717360448677,0.4505682773230944,0.23847672856903868,0.8937382514957505,0.32086862041770403,0.6803522110221988
22.019,21.85,1.82,0.3386484183868053,0.4522425551031903,0.23799879151935924,0.8944458803821935,0.32067656382815357,0.6798522834017444
22.082,21.9,1.59,0.33941715481146306,0.4539331602798676,0.23751835550805725,0.8951583031403092,0.32048093469905475,0.6793544663074917
22.123,21.96,1.21,0.3401773161248851,0.4556397090238442,0.2370356159109419,0.895875295809161,0.3202817501444443,0.6788595484631779
22.204,22.01,1.51,0.34092827809681947,0.4573618102656181,0.23655076608572648,0.896596630469821,0.32007902329974325,0.6783683202119962
22.224,22.07,1.61,0.34166942201293077,0.4590990651506714,0.2360639972761764,0.8973220754475502,0.3198727633379702,0.677881572789013
22.286,22.12,1.4,0.34240013522999857,0.4608510664757897,0.23557549852499807,0.8980513955095927,0.319662975496165,0.677400097577384
22.347,22.18,1.25,0.34311981173338313,0.4626173981089429,0.23508545659541233,0.8987843520589179,0.31944966111208495,0.6769246853486889
22.409,22.23,1.69,0.3438278526959585,0.46439763439559945,0.23459405590131632,0.8995207033242387,0.31923281767119527,0.6764561254877609
22.45,22.29,1.45,0.34452366703769305,0.4661913395546486,0.2341014784459136,0.9002602045464504,0.319012438863961,0.6759952052024191
22.51,22.34,1.08,0.34520667198508026,0.4679980670672684,0.2336079037686996,0.9010026081613435,0.31878851465341324,0.6755427087186084
22.572,22.4,1.69,0.34587629362966016,0.4698173590622093,0.23311350890069676,0.9017476639781654,0.31856103135293495,0.6750994164615949
22.651,22.45,1.49,0.34653196748490817,0.47164874570104026,0.23261846832785224,0.9024951193533979,0.3183299717141912,0.6746661042239895
22.691,22.51,1.13,0.34717313904079444,0.4734917445669433,0.23212295396247853,0.903244719359227,0.31809531502507676,0.67424354232159
22.794,22.56,1.36,0.34779926431531255,0.47534586006071217,0.23162713512248057,0.9039962069467137,0.31785703721752473,0.6738324947382272
22.814,22.62,1.46,0.34840981040225816,0.4772105828076305,0.23113117851796539,0.9047493231043934,0.31761511098499373,0.6734337182609048
22.855,22.67,1.28,0.3490042560145021,0.4790853890788388,0.23063524824478257,0.9055038070134506,0.3173695059093934,0.6730479616066403
22.937,22.73,1.09,0.3495820920219099,0.48096974023076766,0.23013950578455675,0.9062593962006065,0.31712018859709623,0.6726759645425809
22.959,22.78,1.56,0.3501428219829389,0.48286308216625495,0.22964411001077986,0.9070158266896097,0.3168671228236069,0.6723184570010353
22.999,22.84,1.34,0.35068596266883983,0.48476484482092014,0.229149217200541,0.9077728331518709,0.31661026968639855,0.6719761581910227
23.06,22.89,0.96,0.35121104457933233,0.48667444167823154,0.22865498105148704,0.9085301490563742,0.3163495877653685,0.6716497757079437
23.161,22.95,1.58,0.35171761244860866,0.4885912693165399,0.22816155270361574,0.9092875068186793,0.3160850332903278,0.6713400046429893
23.181,23.0,1.43,0.35220522574055196,0.490514706991148,0.22766908076553038,0.9100446379486058,0.31581656031491334,0.6710475266939667
23.221,23.06,1.15,0.3526734591321165,0.4924441162543051,0.2271777113447834,0.9108012731962222,0.31554412089627426,0.6707730092793893
23.304,23.11,1.35,0.35312190298387236,0.49437884061591525,0.2266875880818419,0.9115571426961901,0.3152676652798697,0.6705171046578747
23.324,23.17,1.52,0.3535501637967986,0.4963182052476068,0.2261988521871137,0.9123119761110948,0.31498714208873896,0.6702804490549322
23.406,23.22,1.37,0.3539578646544972,0.4982615167325163,0.22571164248048006,0.9130655027746558,0.31470249851662296,0.6700636617992124
23.447,23.28,1.15,0.35434464565006313,0.5002080628628607,0.22522609543284855,0.9138174518355933,0.31441368052429725,0.6698673444703159
23.506,23.33,1.65,0.35471016429687113,0.5021571124871732,0.22474234520930478,0.9145675524025804,0.31412063303848786,0.669692080060197
23.568,23.39,1.4,0.35505409592255976,0.5041079154088666,0.22426052371351413,0.9153155336902906,0.31382330015275933,0.6695384321500475
23.609,23.44,1.0,0.3553761340455033,0.5060597023375423,0.22378076063309468,0.9160611251661286,0.3135216253297723,0.6694069441044269
23.67,23.5,1.59,0.35567599073303435,0.5080116848942724,0.22330318348573522,0.9168040566969224,0.3132155516043001,0.6692981382842824
23.73,23.55,1.48,0.3559533969406232,0.5099630556719245,0.22282791766588733,0.9175440586946959,0.3129050217863802,0.669212515280419
23.792,23.61,1.24,0.3562081028311528,0.5119129883515251,0.222355086491864,0.918280862260742,0.31258997866391924,0.6691505531690088
23.853,23.66,1.41,0.356439878073364,0.5138606378756819,0.22188481125305967,0.9190141993277661,0.3122703652040396,0.6691127067907588
23.874,23.72,1.63,0.35664851211855664,0.5158051406800362,0.2214172112568399,0.919743802800578,0.31194612475248,0.6690994070552477
23.936,23.77,1.49,0.35683381445472157,0.5177456149834467,0.22095240387458348,0.920469406696209,0.31161720123040676,0.669111060271746
24.036,23.83,1.24,0.3569956148374146,0.5196811611372824,0.2204905045863821,0.9211907462842566,0.31128353932803005,0.6691480475077003
24.077,23.88,1.79,0.3571337634968158,0.5216108620339546,0.22003162702396198,0.9219075582279229,0.31094508469448173,0.6692107239758883
24.098,23.94,1.55,0.3572481313205585,0.5235337835746003,0.21957588301147482,0.922619580725792,0.3106017841234891,0.6692994184510754
24.161,23.99,1.15,0.3573386100120316,0.5254489751956049,0.2191233826038926,0.9233265536540132,0.3102535857344226,0.6694144327169094
24.221,24.05,1.71,0.3574051122239337,0.5273554704535096,0.21867423412280093,0.9240282187083223,0.3099004391483361,0.6695560410437454
24.284,24.1,1.6,0.35744757166689145,0.5292522876677201,0.2182285441894522,0.924724319545264,0.30954229565864405,0.6697244896980683
24.325,24.16,1.33,0.35746594319295255,0.5311384306203579,0.21778641775496238,0.925414601922157,0.30917910839606627,0.6699199964842336
24.449,24.21,1.43,0.357460202853709,0.5330128893126195,0.21734795812742197,0.9260988138358877,0.3088108324874589,0.6701427503193121
24.469,24.27,1.69,0.3574303479327542,0.5348746407769737,0.21691326699550975,0.9267767056613602,0.30843742520817513,0.6703929108417022
24.489,24.32,1.53,0.3573763969521478,0.5367226499442879,0.21648244444809076,0.9274480302908366,0.3080588461276115,0.6706706080539777
24.55,24.38,1.27,0.3572983896525419,0.5385558705646664,0.21605558898925867,0.92811254327536,0.30767505724759064,0.670975942000294
24.612,24.43,1.86,0.3571963869466159,0.5403732461805476,0.21563279754830222,0.9287700029691567,0.30728602313324965,0.6713089824784945
24.694,24.49,1.63,0.3570704708455102,0.5421737111503864,0.2152141654841209,0.9294201706775321,0.3068917110361542,0.6716697687868817
24.715,24.54,1.21,0.3569207443580327,0.5439561917210409,0.21479978658368126,0.9300628108084187,0.3064920910094072,0.6720583095055004
24.777,24.6,1.76,0.3567473313625118,0.5457196071468521,0.2143897530541823,0.9306976910275202,0.30608713601457815,0.6724745823117328
24.839,24.65,1.7,0.3565503764512849,0.5474628708533109,0.21398415550872135,0.9313245824169052,0.3056768220203367,0.6729185338299909
24.88,24.71,1.44,0.3563300447479137,0.5491848916431818,0.21358308294537143,0.9319432596369752,0.3052611280926924,0.6733900795154252
24.921,24.76,1.51,0.3560865216972864,0.5508845749430668,0.21318662271956496,0.9325535010921666,0.3048400364767508,0.6738891035717538
24.984,24.82,1.79,0.3558200128288325,0.5525608240884962,0.21279486050957575,0.9331550891013285,0.30441353266994653,0.6744154589033137
25.046,24.87,1.58,0.35553074349316394,0.5542125416455471,0.21240788027483984,0.933747810074021,0.30398160548677,0.6749689671013482
25.128,24.93,1.28,0.35521895857252206,0.5558386307667902,0.21202576420688282,0.9343314546938873,0.3035442471150219,0.6755494184644697
25.169,24.98,1.83,0.35488492216544615,0.5574379965792394,0.21164859267267402,0.9349058181099303,0.30310145316366105,0.6761565720531656
25.211,25.04,1.59,0.354528917246075,0.5590095476018618,0.2112764441503108,0.9354707001361052,0.3026532227023354,0.6767901557781094
25.272,25.09,1.18,0.3541512452984743,0.5605521971900943,0.21090939515704413,0.9360259054591861,0.30219955829268214,0.6774498665220091
25.335,25.15,1.7,0.35375222592634664,0.5620648650047309,0.2105475201697935,0.9365712438544324,0.3017404660114683,0.6781353702947198
25.377,25.2,1.67,0.35333219643846153,0.5635464785024358,0.21019089153847623,0.9371065304082272,0.30127595546563973,0.6788463024213467
25.438,25.26,1.43,0.35289151141017233,0.5649959744450305,0.2098395793926332,0.9376315857467006,0.3008060397993098,0.6795822677631592
25.521,25.31,1.48,0.3524305422214303,0.5664123004247127,0.20949365154184152,0.9381462362696027,0.30033073569271174,0.6803428409712621
25.542,25.37,1.8,0.35194967657180926,0.5677944164023809,0.20915317337031858,0.9386503143891404,0.29985006335318637,0.6811275667729193
25.582,25.42,1.61,0.3514493179732076,0.5691412962561206,0.20881820772608864,0.939143658773718,0.29936404649834686,0.6819359602902946
25.644,25.48,1.32,0.35092988522105406,0.5704519293367653,0.20848881480511752,0.9396261145963992,0.29887271233161067,0.6827675073912982
25.705,25.53,1.88,0.3503918118449624,0.5717253220274167,0.20816505203087074,0.9400975337876297,0.29837609151035577,0.683621665072143
25.766,25.59,1.64,0.34983554553988294,0.5729604993037882,0.20784697392981039,0.9405577752914517,0.2978742181070273,0.6844978618711095
25.807,25.64,1.21,0.349261547578866,0.574156506292201,0.20753463200339717,0.9410067053242197,0.29736712956356176,0.6853954983130067
25.889,25.7,1.66,0.34867029220859214,0.5753124098220419,0.20722807459719378,0.941444197634791,0.2968548666395237,0.6863139473838301
25.91,25.75,1.62,0.3480622660288429,0.5764272999694555,0.20692734676773059,0.9418701337652252,0.2963374733543615,0.6872525550351488
25.972,25.81,1.36,0.3474379673570719,0.5775002915890272,0.20663249014787755,0.9422844033111382,0.2958149969241509,0.6882106407178914
26.033,25.86,1.37,0.3467979055791856,0.5785305258302922,0.20634354281145925,0.9426869041810833,0.29528748769313146,0.6891874979453557
26.096,25.92,1.69,0.3461426004875837,0.5795171716359602,0.20606053913775607,0.9430775428546464,0.2947549990603176,0.6901823948852642
26.136,25.97,1.49,0.3454725816074958,0.5804594272186094,0.20578350967646702,0.9434562346390398,0.2942175874014579,0.6911945749805635
26.219,26.03,1.21,0.3447883875126571,0.5813565215124525,0.20551248101368824,0.943822903923825,0.2936753119865931,0.6922232575985783
26.261,26.08,1.8,0.34409056513137415,0.5822077155967995,0.20524747563945736,0.9441774844331237,0.2931282348934671,0.6932676387080241
26.322,26.14,1.57,0.3433796690440558,0.5830123040879691,0.204988511817428,0.9445199194744032,0.29257642091707997,0.6943268915832459
26.364,26.19,1.16,0.34265626077332834,0.5837696164965152,0.2047356034572548,0.9448501621827498,0.2920199374756995,0.6954001675349717
26.428,26.25,1.62,0.3419209080679006,0.5844790185467529,0.20448875999026273,0.9451681757595919,0.2914588545136909,0.6964865966668201
26.509,26.3,1.61,0.341174184181412,0.5851399134556272,0.20424798624900628,0.9454739337049937,0.290893244401571,0.6975852886567584
26.529,26.36,1.36,0.3404166671475537,0.5857517431679942,0.2040132823513928,0.9457674200427826,0.29032318183368805,0.6986953335627861
26.653,26.41,1.34,0.33964893905278515,0.5863139895454869,0.2037846435900452,0.9460486295379648,0.28974874372390774,0.6998158026522509
26.674,26.47,1.65,0.33887158530798184,0.5868261755062347,0.20356206032750726,0.9463175679061275,0.2891700090997013,0.7009457492541724
26.694,26.52,1.4,0.33808519392037645,0.5872878661126644,0.20334551789783417,0.9465742520145686,0.2885870589950548,0.7020842096338259
26.755,26.58,1.09,0.3372903547671512,0.5876986696045651,0.20313499651507935,0.9468187100747458,0.28799997634259955,0.7032302038887587
26.796,26.63,1.7,0.3364876588719796,0.5880582383746937,0.2029304711891554,0.947050981825398,0.28740884586535087,0.7043827368653419
26.857,26.69,1.49,0.33567769768572525,0.5883662698843091,0.20273191164952473,0.9472711187054499,0.2868137539684155,0.7055407990948368
26.918,26.74,1.08,0.33486106237241253,0.588622507516072,0.20253928227715268,0.9474791840156633,0.2862147886309995,0.7067033677478624
26.979,26.8,1.53,0.3340383431015244,0.5888267413617346,0.20235254204512734,0.9476752530680149,0.28561203929904355,0.7078694076059944
27.062,26.85,1.55,0.33321012834767244,0.588978808941975,0.20217164446836527,0.9478594133218781,0.28500559677884063,0.7090378720490409
27.082,26.91,1.32,0.3323770041987061,0.5890785958557446,0.20199653756287325,0.9480317645061892,0.28439555313198994,0.7102077040564718
27.122,26.96,1.3,0.3315395536733373,0.5891260363567169,0.20182716381501353,0.9481924187269634,0.28378200157203015,0.7113778372215249
27.183,27.02,1.64,0.33069835604937037,0.5891211138547463,0.2016634601611248,0.948341500559741,0.28316503636313195,0.7125471967764588
27.246,27.07,1.42,0.329853986203675,0.5890638613404411,0.201505357977778,0.9484791471266039,0.28254475272127644,0.7137147006272855
27.351,27.13,1.1,0.3290070139650889,0.5889543617310626,0.20135278308291615,0.9486055081572065,0.2819212467183755,0.7148792603962476
27.372,27.18,1.68,0.3281580034814555,0.588792748136149,0.20120565574811758,0.9487207460330348,0.28129461518981014,0.7160397824702641
27.414,27.24,1.45,0.32730751260200236,0.5885792040414386,0.20106389072222894,0.948825035813866,0.2806649556458867,0.7171951690535276
27.476,27.29,1.02,0.32645609227624023,0.5883139634098221,0.2009273972666192,0.9489185652453187,0.2800323661877039,0.718344319222479
27.539,27.35,1.4,0.3256042859705194,0.5879973106981761,0.20079607920226794,0.949001534746523,0.2793969454279174,0.7194861299814216
27.58,27.4,1.42,0.3247526291033187,0.58762958078901,0.2006698349688847,0.9490741573772256,0.27875879241688045,0.7206194973170537
27.643,27.46,1.19,0.3239016485002601,0.5872111588359411,0.20054855769627605,0.9491366587838397,0.2781180065745817,0.7217433172502865
27.725,27.51,1.08,0.3230518618697105,0.5867424800222087,0.20043213528814413,0.9491892771241269,0.27747468762871824,0.7228564868838727
27.746,27.57,1.47,0.3222037772997171,0.58622402923168,0.20032045051840283,0.9492322629703313,0.2768289355592013,0.7239579054444037
27.788,27.62,1.25,0.32135789277696175,0.5856563406319168,0.20021338114001952,0.9492658791905678,0.27618085054936103,0.725046475317188
27.889,27.68,0.93,0.3205146957284108,0.5850399971689949,0.20011080000635123,0.9492904008080583,0.2755305329440718,0.7261211030725457
27.91,27.73,1.55,0.3196746625863337,0.5843756299740092,0.20001257520492377,0.9493061148375624,0.2748780832149781,0.7271807004820882
27.95,27.79,1.34,0.3188382583773749,0.5836639176814853,0.19991857020360193,0.9493133200981841,0.27422360193299145,0.728224185523574
28.013,27.84,0.95,0.3180059363363753,0.5829055856601878,0.19982864400906736,0.9493123270018042,0.27356718974821903,0.7292504833730239
28.095,27.9,1.32,0.31717813754564705,0.5821014051570661,0.1997426513374317,0.9493034573168427,0.2729089473775009,0.7302585273828777
28.115,27.95,1.39,0.3163552906004192,0.5812521923552941,0.1996604427967397,0.9492870439076976,0.27224897559976885,0.731247260045031
28.177,28.01,1.2,0.31553781130116376,0.5803588073475301,0.19958186508113152,0.9492634304506369,0.27158737525943216,0.7322156339377051
28.258,28.06,1.06,0.31472610237345355,0.5794221530257757,0.19950676117643992,0.9492329711271321,0.27092424727797026,0.7331626126552435
28.278,28.12,1.41,0.31392055321590784,0.5784431738895057,0.1994349705769598,0.9491960302956788,0.27025969267392386,0.7340871717198971
28.36,28.17,1.16,0.3131215396766765,0.5774228547738987,0.19936632951309058,0.9491529821430426,0.2695938125915006,0.7349882994744805
28.463,28.23,0.82,0.3123294238587976,0.5763622195000957,0.19930067118953573,0.9491042103156092,0.268926708337991,0.7358649979546676
28.483,28.28,1.43,0.3115445539546249,0.5752623294495406,0.19923782603372556,0.949050107531226,0.26825848143014464,0.736716283739635
28.525,28.34,1.21,0.3107672641094036,0.5741242820645527,0.1991776219541231,0.9489910751717001,0.2675892336495942,0.7375411887797578
28.566,28.39,0.84,0.3099978743139927,0.5729492092773304,0.19911988460803592,0.9489275228561179,0.2669190671073393,0.738338761200147
28.608,28.45,1.2,0.3092366903266942,0.5717382758696342,0.1990644376784594,0.9488598679955188,0.2662480843172604,0.7391080660789102
28.669,28.5,1.29,0.30848400362415457,0.570492677765459,0.19901110315940443,0.948788535329983,0.2655763882786278,0.7398481861990752
28.731,28.56,1.1,0.30774009138132885,0.5692136402590845,0.1989597016491676,0.9487139564495468,0.26490408256754433,0.7405582227732243
28.834,28.61,0.97,0.3070052164804866,0.5679024161811315,0.198910052651016,0.9486365693004977,0.26423127143722425,0.7412372961400894
28.855,28.67,1.37,0.30627962754921384,0.5665602840055819,0.19886197488072974,0.9485568176786167,0.26355805992702863,0.7418845464324051
28.896,28.72,1.13,0.3055635590273476,0.5651885459009678,0.19881528658043035,0.9484751507108145,0.26288455398020943,0.7424991342152996
28.958,28.78,0.77,0.3048572312627553,0.5637885257291336,0.1987698058381263,0.9483920223263433,0.2622108605703172,0.7430802410945551
28.999,28.83,1.36,0.3041608506358143,0.5623615669952176,0.19872535091240695,0.9483078907185307,0.26153708783621704,0.7436270702941503
29.06,28.89,1.13,0.30347460971238055,0.5609090307526831,0.19868174056173055,0.948223217797781,0.2608633452256351,0.7441388472025805
29.121,28.94,0.75,0.3027986874249532,0.5594322934673376,0.19863879437774493,0.9481384686365792,0.26018974364710656,0.7446148198875956
29.224,29.0,1.05,0.3021332492816383,0.5579327448443554,0.19859633312200808,0.9480541109075208,0.2595163956301451,0.7450542595791471
29.244,29.05,1.14,0.30147844760240516,0.5564117856223734,0.19855417906541972,0.9479706143158165,0.2588434154934145,0.7454564611203941
29.264,29.11,0.94,0.3008344217820018,0.5548708253387606,0.19851215632968527,0.9478884500279555,0.2581709195206015,0.7458207433867164
29.327,29.16,0.8,0.3002012985787519,0.5533112800703178,0.19847009123015363,0.9478080900982256,0.2574990261435919,0.7461464496728177
29.389,29.22,1.26,0.29957919242832987,0.5517345701538781,0.19842781261934878,0.947730006894688,0.2568278561325012,0.7464329480480414
29.43,29.27,1.03,0.29896820578155653,0.5501421178914072,0.1983851522305075,0.947654672525977,0.2561575327920944,0.7466796316799869
29.493,29.33,0.69,0.2983684294652491,0.5485353452442344,0.19834194502044988,0.9475825582699509,0.2554881821641093,0.7468859191265644
29.553,29.38,1.32,0.2977799430651715,0.5469156715211351,0.19829802951113157,0.9475141340049055,0.25481993323499463,0.7470512545966917
29.656,29.44,1.12,0.29720281533014153,0.5452845110650648,0.1982532481292774,0.9474498676437904,0.25415291814858904,0.7471751081798993
29.677,29.49,0.77,0.29663710459637127,0.5436432709434003,0.19820744754353264,0.9473902245717996,0.25348727242326485,0.7472569760452508
29.719,29.55,1.04,0.29608285923111544,0.5419933486466184,0.1981604789985535,0.9473356670879437,0.25282313517307603,0.7472963806101293
29.801,29.6,1.14,0.2955401180946977,0.5403361298003962,0.19811219864546306,0.9472866538515583,0.25216064933247695,0.7472928706794926
29.822,29.66,0.92,0.29500891101995635,0.5386729858961434,0.1980624678681855,0.9472436393348375,0.251499961884167,0.7472460215562753
29.924,29.71,0.74,0.2944892593080586,0.5370052720451144,0.19801115360525617,0.9472070732823946,0.25084122408955994,0.7471554351237442
29.945,29.77,1.18,0.29398117623950026,0.5353343247614338,0.19795812866674414,0.9471774001786276,0.25018459172133733,0.7470207399006494
29.986,29.82,0.95,0.293484667598979,0.5336614597793848,0.19790327204595093,0.9471550587233369,0.24953022529751173,0.7468415910699836
30.047,29.88,0.57,0.2929997322127179,0.5319879699101322,0.19784646922558888,0.9471404813156387,0.2488782903163586,0.7466176704821821
30.108,29.93,1.2,0.2925263624967225,0.5303151229427753,0.1977876124781734,0.9471340935458318,0.24822895749152077,0.7463486866336372
30.168,29.99,1.03,0.29206454501440215,0.5286441595942736,0.1977266011604104,0.9471363136946054,0.2475824029865462,0.7460343746214326
30.209,30.04,0.71,0.2916142610419776,0.5269762915124554,0.19766334200137384,0.9471475522389209,0.24693880864807402,0.7456744960753321
30.293,30.1,0.98,0.29117548714010844,0.5253126993361127,0.19759774938419955,0.9471682113642641,0.24629836223686663,0.7452688390681973
30.313,30.15,1.12,0.2907481957302246,0.5236545308160332,0.19752974562095715,0.9471986844834369,0.2456612576559136,0.7448172180060617
30.374,30.21,0.94,0.2903323556741021,0.5220028990006667,0.19745926122039506,0.9472393557623,0.24502769517484213,0.744319473499131
30.456,30.26,0.78,0.2899279328552511,0.5203588804900742,0.19738623514833412,0.9472905996527577,0.24439788164985843,0.7437754722150798
30.476,30.32,1.26,0.28953489076067224,0.5187235137618503,0.19731061508054992,0.94735278043295,0.24377203073846807,0.7431851067160207
30.538,30.37,1.02,0.2891531910615449,0.5170977975726443,0.1972323576480523,0.9474262517542067,0.24315036310826008,0.7425482952804475
30.601,30.43,0.64,0.28878279419141645,0.5154826894387092,0.19715142867473637,0.9475113561938586,0.24253310663906147,0.7418649817114222
30.661,30.48,1.23,0.2884236599204558,0.513879104198666,0.19706780340743324,0.9476084248126219,0.24192049661778642,0.7411351351322376
30.724,30.54,1.06,0.28807574792431623,0.5122879126614053,0.19698146673843056,0.9477177767150561,0.24131277592531927,0.7403587497707534
30.764,30.59,0.75,0.28773901834610266,0.5107099403418122,0.19689241342049385,0.9478397186117805,0.24071019521474799,0.7395358447336534
30.826,30.65,0.98,0.28741343234987715,0.5091459662868255,0.19680064827422483,0.9479745443828742,0.24011301308024238,0.7386664637719483
30.867,30.7,1.15,0.2870989526640942,0.5075967219941036,0.19670618638735207,0.9481225346429173,0.2395214962158804,0.7377506750390163
30.95,30.76,1.0,0.28679554411338626,0.506062890425175,0.19660905330542797,0.9482839563087301,0.23893591956371815,0.7367885708424359
31.011,30.81,0.81,0.2865031741371667,0.5045451051145597,0.19650928521340538,0.9484590621709269,0.23835656645038544,0.7357802673908864
31.031,30.87,1.33,0.28622181329360086,0.5030439493760249,0.19640692910761515,0.9486480904700942,0.23778372871151748,0.7347259045373284
31.093,30.92,1.1,0.2859514357476182,0.5015599556068071,0.19630204295775255,0.9488512644779464,0.23721770680339851,0.7336256455195337
31.157,30.98,0.73,0.2856920197417738,0.5000936046902784,0.19619469585857624,0.9490687920833536,0.23665880990125077,0.7324796766989182
31.198,31.03,1.32,0.2854435480488901,0.49864532549729,0.19608496817110635,0.949300865382787,0.23610735598366606,0.7312882072985376
31.259,31.09,1.18,0.285206008405501,0.4972154944862278,0.19597295165317993,0.9495476602745625,0.23556367190274,0.7300514691410265
31.32,31.14,0.87,0.284979393925175,0.4958044354017274,0.19585874957921157,0.9498093360565009,0.2350280934394948,0.7287697163873136
31.401,31.2,1.03,0.2847637034908087,0.49441241907200884,0.1957424768488278,0.9500860350274488,0.23450096534420098,0.7274432252770201
31.421,31.25,1.18,0.28455894212500077,0.49303966330475124,0.19562426008380646,0.9503778820941763,0.23398264136125513,0.7260722938713909
31.485,31.31,1.01,0.2843651213376455,0.491686332881199,0.19550423771263603,0.9506849843858443,0.23347348423828387,0.7246572417995555
31.525,31.36,0.81,0.28418225944989817,0.4903525396479122,0.19538256004201535,0.9510074308782898,0.23297386571911463,0.7231984100089062
31.586,31.42,1.34,0.28401038189365024,0.48903834270533536,0.1952593893146692,0.9513452920300781,0.2324841665202378,0.7216961605203447
31.648,31.47,1.12,0.28384952148567216,0.48774374869209236,0.19513489975294046,0.9516986194318128,0.23200477629039776,0.7201508761889882
31.79,31.53,0.72,0.283699718675625,0.4864687121636374,0.19500927758770462,0.9520674454697734,0.23153609355296562,0.7185629604707927
31.81,31.58,1.32,0.2835610217672241,0.4852131360636786,0.1948827210722326,0.952451783004632,0.23107852563079295,0.7169328371954079
31.831,31.64,1.21,0.2834334871119385,0.48397687228664454,0.19475544048072296,0.9528516250658376,0.2306324885533031,0.7152609503454738
31.871,31.69,0.96,0.2833171792747281,0.4827597223293987,0.19462765809129395,0.9532669445623153,0.23019840694560606,0.7135477638426226
31.912,31.75,1.12,0.2832121711714254,0.48156143803048534,0.19449960815317846,0.9536976940105844,0.22977671389946058,0.711793761340547
31.974,31.8,1.32,0.2831185441774993,0.48038172239520177,0.1943715368377729,0.9541438052820079,0.22936785082599526,0.7099994460254168
32.037,31.86,1.15,0.28303638820809623,0.47922023050460116,0.19424370217318335,0.9546051893711944,0.22897226729018613,0.7081653404237834
32.141,31.91,0.91,0.28296580176938896,0.4780765705062906,0.1941163739619813,0.9550817361874406,0.22859042082714978,0.7062919862179747
32.161,31.97,1.42,0.28290689198136226,0.47695030468475874,0.19398983368197237,0.9555733143707537,0.22822277674037883,0.7043799440688486
32.201,32.02,1.16,0.28285977457223815,0.4758409506088725,0.19386437436988974,0.9560797711335419,0.22786980788211275,0.7024297934455742
32.262,32.08,0.73,0.2828245738448007,0.47474798235405746,0.19374030048803242,0.9566009321286556,0.22753199441607114,0.7004421324619802
32.303,32.13,1.28,0.2828014226149139,0.47367083179654557,0.19361792777396208,0.9571366013441653,0.22720982356279792,0.6984175777189003
32.364,32.19,1.21,0.28279046212254644,0.472608889976893,0.19349758307347492,0.9576865610251006,0.22690378932787367,0.6963567641518925
32.426,32.24,0.97,0.28279184191563705,0.4715615085298174,0.19337960415714248,0.9582505716223987,0.22661439221321783,0.694260344883819
32.488,32.3,1.08,0.28280571970715995,0.47052800117735905,0.19326433952067096,0.9588283717696668,0.22634213891168176,0.6921289910819266
32.508,32.35,1.36,0.2828322612058214,0.4695076452823101,0.19315214816922355,0.9594196782888794,0.22608754198517683,0.689963391819029
32.57,32.41,1.17,0.28287163992095404,0.46849968345863546,0.19304339938581322,0.9600241862263591,0.22585111952665463,0.6877642539382509
32.631,32.46,0.91,0.28292403694232426,0.4675033252353477,0.19293847248391485,0.9606415689202569,0.22563339480631928,0.6855323019206564
32.692,32.52,1.45,0.28298964069571,0.4665177487701209,0.19283775654451737,0.9612714781003736,0.22543489590254082,0.6832682777549512
32.753,32.57,1.21,0.283068646675254,0.46554210260875795,0.19274165013793704,0.9619135440207549,0.22525615531803025,0.6809729408082917
32.794,32.63,0.79,0.283161257153743,0.4645755074864434,0.19265056103081798,0.9625673756250861,0.22509770958189693,0.6786470676971648
32.875,32.68,1.29,0.28326768087207543,0.46361705816657917,0.19256490587883493,0.9632325607446973,0.22496009883825677,0.6762914521572876
32.896,32.74,1.23,0.28338813270926905,0.4626658253128635,0.1924851099057266,0.9639086663288737,0.22484386642209236,0.6739069049114673
32.957,32.79,0.97,0.28352283333440415,0.4617208573901981,0.1924116065693872,0.9645952387072065,0.22474955842305058,0.6714942535344686
33.018,32.85,1.01,0.2836720088418897,0.4607811825900638,0.19234483721572193,0.9652918038840536,0.22467772323784385,0.6690543423140584
33.08,32.9,1.31,0.2838358903714071,0.4598458107760534,0.19228525072087227,0.9659978678656156,0.22462891111194463,0.6665880321073346
33.122,32.96,1.13,0.2840147137138844,0.458913735445114,0.1922333031223614,0.966712917020346,0.2246036736712931,0.6640962001912868
33.245,33.01,0.85,0.28420871890485794,0.457983935699835,0.19218945723971376,0.9674364184732523,0.22460256344475085,0.661579740106419
33.265,33.07,1.43,0.2844181498065966,0.4570553782269922,0.19215418228512451,0.9681678205343291,0.22462613337806892,0.6590395614921497
33.306,33.12,1.21,0.28464325368041127,0.45612701927746346,0.1921279534647937,0.9689065531609928,0.2246749363402007,0.6564765899125534
33.347,33.18,0.79,0.2848842807506529,0.4551978066425278,0.19211125157159617,0.9696520284540587,0.2247495246228447,0.6538917666709353
33.407,33.23,1.24,0.2851414837619932,0.4542666816214708,0.19210456256980968,0.9704036411866247,0.2248504494341633,0.6512860486116986
33.468,33.29,1.23,0.28541511753168725,0.45333258097531154,0.1921083771727208,0.9711607693651162,0.22497826038767982,0.6486604079079497
33.53,33.34,0.98,0.28570543849860136,0.4523944388614152,0.19212319041403275,0.971922774821693,0.22513350498736015,0.646015831833423
33.655,33.4,0.96,0.2860127042708169,0.45145118874393186,0.1921495012140103,0.9726890038373328,0.22531672810986458,0.6433533225174932
33.675,33.45,1.26,0.28633717317361024,0.4505017652752876,0.19218781194121856,0.9734587877951,0.22552847148497784,0.6406738966820767
33.696,33.51,1.04,0.28667910379959044,0.4495451061441785,0.19223862797065183,0.9742314438631484,0.22576927317524992,0.6379785853591551
33.716,33.56,0.71,0.28703875456271954,0.44858015388571476,0.1923024572390252,0.9750062757068201,0.22603966705587208,0.6352684335876204
33.778,33.62,1.27,0.2874163832578202,0.44760585764968414,0.19237980979797736,0.9757825742289337,0.22634018229580516,0.6325445000881152
33.84,33.67,1.04,0.2878122466270178,0.4466211749232442,0.1924711973659233,0.9765596183370928,0.2266713428411615,0.6298078569144904
33.901,33.73,0.66,0.2882265999343964,0.44562507320466593,0.19257713287928338,0.9773366757366458,0.22703366690180402,0.6270595890805389
33.962,33.78,1.06,0.2886596965500003,0.4446165316250069,0.19269813004378533,0.9781130037479164,0.22742766644209136,0.6243007941607241
34.023,33.84,1.11,0.28911178754421835,0.4435945425147811,0.19283470288653948,0.9788878501463844,0.2278538466766848,0.6215325818636517
34.064,33.89,0.89,0.2895831212935343,0.44255811291286956,0.19298736530962812,0.9796604540245271,0.22831270557229041,0.6187560735771881
34.125,33.95,0.81,0.29007394309855444,0.44150626601527054,0.19315663064593291,0.9804300466740928,0.22880473335617513,0.6159724018843049
34.187,34.0,1.17,0.2905844948151681,0.44043804256171093,0.19334301121784633,0.9811958524876412,0.22933041203231305,0.6131827100487954
34.249,34.06,0.94,0.29111501449966914,0.43935250215844945,0.19354701789945675,0.9819570898780929,0.22989021490605083,0.610388151469986
34.332,34.11,0.61,0.2916657360686456,0.43824872453587216,0.19376915968277664,0.9827129722147667,0.23048460611818444,0.6075898891056372
34.354,34.17,1.17,0.29223688897440353,0.43712581073983425,0.1940099432485759,0.9834627087740845,0.23111404018932968,0.6047890948623154
34.395,34.22,0.94,0.29282869789663274,0.43598288425606385,0.1942698725423943,0.9842055057028699,0.2317789615754577,0.6019869489526092
34.457,34.28,0.56,0.2934413824509546,0.4348190920672168,0.19454944835630872,0.9849405669920446,0.23247980423542447,0.59918463921871
34.498,34.33,0.84,0.2940751569149054,0.4336336056423776,0.1948491679169776,0.9856670954586813,0.2332169912112786,0.5963833604220292
34.56,34.39,0.9,0.29473022997181175,0.43242562185893624,0.1951695244804472,0.9863842937346206,0.23399093422209066,0.5935843134986207
34.62,34.44,0.7,0.29540680447288775,0.4311943638568749,0.1955110069342148,0.9870913652599533,0.2348020332719543,0.5907887047803285
34.704,34.5,0.58,0.29610507721771906,0.4299390818257052,0.19587409940703954,0.9877875152795992,0.23565067627268868,0.5879977451817995
34.723,34.55,0.98,0.2968252387531351,0.42865905372458324,0.19625928088693803,0.9884719518410567,0.23653723868168675,0.585212649353638
34.763,34.61,0.76,0.29756747319036186,0.4273535859363632,0.19666702484776527,0.9891438867911245,0.23746208315529815,0.5824346348020456
34.845,34.66,0.45,0.2983319580402863,0.42602201385660327,0.19709779888476422,0.9898025367690296,0.2384255592180728,0.5796649209754487
34.885,34.72,1.04,0.29911886406661853,0.4246637024188772,0.19755206435946654,0.9904471241930497,0.23942800294815367,0.5769047283187757
34.945,34.77,0.85,0.29992835515670885,0.42327804655809553,0.19803027605434484,0.9910768782374112,0.24046973667908345,0.5741552772961865
35.008,34.83,0.52,0.3007605882097521,0.4218644716138535,0.19853288183763254,0.9916910357960868,0.24155106871826001,0.5714177873832365
35.069,34.88,0.79,0.3016157130420775,0.4204224336761343,0.1990603223387035,0.9922888424302063,0.24267229308226398,0.5686934760296242
35.13,34.94,0.89,0.30249387230920016,0.4189514198759292,0.1996130306344124,0.9928695532959768,0.24383368924928644,0.5659835575937708
35.171,34.99,0.7,0.303395201444273,0.4174509486234882,0.20019143194687225,0.9934324340500236,0.24503552192885192,0.5632892422506283
35.213,35.05,0.52,0.30431982861250845,0.4159205697971392,0.20079594335321235,0.9939767617289125,0.24627804084896504,0.5606117348743637
35.276,35.1,0.97,0.30526787468102407,0.41435986488591164,0.2014269735078758,0.9945018255993902,0.247561480560768,0.5579522338977395
35.317,35.16,0.76,0.3062394532034681,0.41276844708942156,0.20208492237803646,0.9950069279755457,0.24888606026076487,0.5553119301501451
35.379,35.21,0.38,0.3072346704186796,0.4111459613785721,0.2027701809927468,0.9954913849986814,0.2502519836306088,0.5526920056764423
35.44,35.27,1.04,0.3082536252625515,0.4094920845206773,0.20348313120646117,0.9959545273752943,0.25165943869439816,0.5500936325390213
35.503,35.32,0.86,0.30929640939221037,0.4078065250725923,0.2042241454775891,0.9963957010684199,0.25310859769338695,0.5475179716057158
35.564,35.38,0.53,0.31036310722161137,0.40608902334541047,0.20499358666261228,0.9968142679380472,0.25459961697796935,0.5449661713265754
35.605,35.43,0.75,0.31145379596766126,0.40433935134433063,0.20579180782596243,0.9972096063277028,0.25613263691677723,0.5424393665028565
35.667,35.49,0.88,0.3125685457060417,0.40255731268728145,0.20661915206548181,0.9975811115960886,0.2577077818227417,0.539938677051774
35.728,35.54,0.71,0.3137074194359841,0.4007427425057116,0.20747595235311453,0.9979281965939113,0.25932515989593774,0.5374652067706485
35.811,35.6,0.52,0.3148704731532953,0.39889550733073664,0.20836253139049765,0.9982502920864168,0.26098486318295727,0.535020042104119
35.831,35.65,0.98,0.3160577559309344,0.39701550496763965,0.20927920147922224,0.9985468471219953,0.26268696755249143,0.5326042509179635
35.872,35.71,0.73,0.31726931000643865,0.39510266436148095,0.21022626440566686,0.998817329346825,0.2644315326867582,0.5302188812827922
35.934,35.76,0.33,0.3185051708754668,0.3931569454562521,0.2112040113404328,0.9990612252651047,0.26621860208834486,0.5278649602706091
35.975,35.82,0.91,0.3197653673906836,0.39117833904967336,0.212212722752501,0.99927804044412,0.26804820310196686,0.5255434927669485
36.035,35.87,0.76,0.32104992186513287,0.38916686664534444,0.21325266833828654,0.9994672996632876,0.26992034695056366,0.5232554603010385
36.097,35.93,0.47,0.32235885017915966,0.3871225803035454,0.21432410696570622,0.9996285470066727,0.27183502878503696,0.5210018198963495
36.159,35.98,0.69,0.3236921618898369,0.38504556249162186,0.21542728663311236,0.9997613458994977,0.27379222774683154,0.5187835029438577
36.241,36.04,0.9,0.32504986034180017,0.38293592593448084,0.21656244444260186,0.99986527909047,0.2757919070424952,0.5166014141002949
36.262,36.09,0.78,0.3264319427784,0.3807938134652321,0.21772980658699853,0.9999399485825952,0.27783401402929775,0.5144564302136047
36.303,36.15,0.61,0.3278384004521306,0.3786193978756207,0.21892958834975557,0.9999849755152567,0.27991848031093197,0.5123493992778673
36.365,36.2,1.19,0.3292692187333718,0.37641288176565174,0.22016199411705706,1.0,0.2820452218423215,0.5102811394199651
36.426,36.26,0.99,0.330724377216613,0.37417449739159636,0.22142721740147908,0.9999846809119433,0.28421413904261184,0.5082524379201674
36.488,36.31,0.63,0.332203849823482,0.37190450651136014,0.2227254408766632,0.9999386956382177,0.28642511691547956,0.5062640502687742
36.551,36.37,1.25,0.3337076049020338,0.3696032002260693,0.22405683642254098,0.999861739784467,0.28867802517597624,0.5043166992609062
36.592,36.42,1.16,0.3352356053218737,0.3672708988166766,0.22542156518074538,0.9997535268401974,0.29097271838320204,0.5024110741315151
36.653,36.48,0.91,0.33678780856476853,0.3649079515744157,0.22681977761990388,0.9996137878038099,0.29330903607815234,0.5005478297328038
36.714,36.53,1.08,0.3383641668104607,0.36251473662406697,0.22825161361043497,0.9994422707685947,0.2956868029261253,0.4987275857563872
36.775,36.59,1.33,0.3399646270174534,0.36009166073907417,0.22971720250833585,0.9992387404716123,0.2981058288631587,0.49695092600252017
36.856,36.64,1.19,0.34158913099861016,0.3576391591474207,0.23121666324739315,0.9990029778076965,0.3005659092460329,0.49521839769863185
36.898,36.7,0.97,0.3432376154914572,0.3551576953269889,0.23275010443927177,0.9987347793106769,0.3030668250054168,0.4935305108693561
36.918,36.75,1.53,0.3449100122230923,0.35264776078903226,0.23431762448097881,0.9984339566035211,0.30560834280178617,0.4918877377601348
36.98,36.81,1.33,0.34660624796963413,0.35010987484833295,0.2359193116692603,0.9981003358186209,0.30819021518382134,0.4902905123163075
37.041,36.86,0.94,0.3483262446102002,0.3475445843785832,0.2375552443215606,0.9977337569889804,0.31081218074904365,0.4887392297195016
37.082,36.92,1.55,0.3500699191754816,0.34495246355156683,0.23922549090323553,0.9973340734107566,0.313473964306508,0.48723424598309145
37.143,36.97,1.52,0.35183718389108726,0.34233411355878757,0.2409301101608054,0.9969011509774135,0.3161752770414223,0.4857758776085374
37.205,37.03,1.29,0.35362794621593346,0.3396901623143843,0.24266915126109995,0.9964348674857768,0.318915816681595,0.48436440130462366
37.288,37.08,1.48,0.3554421088760305,0.33702126413859496,0.24444265393608708,0.995935111914681,0.32169526766565676,0.483000053771866
37.309,37.14,1.67,0.35727956989408977,0.3343280994215152,0.24625064863304424,0.9954017836774633,0.3245133013131184,0.48168303155438674
37.349,37.19,1.47,0.3591402226154674,0.33161137426716564,0.24809315666966664,0.9948347918498512,0.3273695759964514,0.48041349096133235
37.412,37.25,1.21,0.3610239557310352,0.3288718201179496,0.24997019039373103,0.9942340543746655,0.3302637373154727,0.4791915480595254
37.516,37.3,1.75,0.3629306532976086,0.32611019335956437,0.2518817533470012,0.9935994972444031,0.33319541827438,0.47801727873850375
37.536,37.36,1.5,0.36486019475657694,0.32332727490628244,0.25382784043315904,0.9929310536623571,0.33616423946181145,0.4768907188485459
37.578,37.41,1.08,0.36681245495137466,0.3205238697662744,0.2558084380896451,0.9922286631826401,0.33916980923427575,0.4758118644118424
37.639,37.47,1.57,0.368787304144399,0.3177008065863893,0.2578235244633667,0.9914922708294622,0.3422117239032557,0.47478067190660417
37.699,37.52,1.56,0.37078460803393043,0.3148589371755422,0.2598730695903403,0.9907218261961805,0.3452895679262432,0.4737970586235481
37.76,37.58,1.36,0.37280422777156613,0.31199913600565027,0.2619570355794383,0.9899172825249533,0.34840291410187557,0.4728609030939993
37.823,37.63,1.41,0.3748460199806279,0.3091222996890154,0.2640753768003679,0.9890785957684514,0.35155132376925946,0.47197204558870154
37.864,37.69,1.76,0.3769098367760149,0.3062293464310637,0.26622804007585205,0.9882057236358457,0.354734347011559,0.4711302886861432
37.926,37.74,1.57,0.3789955257860457,0.3033212154572716,0.2684149648778687,0.9872986246257487,0.35795152286395504,0.4703353979088429
38.007,37.8,1.28,0.3811029301769293,0.3003988664130728,0.2706360835277798,0.9863572570488135,0.3612023795261144,0.4695871024257413
38.028,37.85,1.9,0.3832318886805705,0.2974632787356853,0.2728913214001767,0.9853815780424885,0.364486434579353,0.4688850958185849
38.068,37.91,1.69,0.3853822356264464,0.2945154509970061,0.27518059713028886,0.9843715425801848,0.367803195208734,0.4682290369099415
38.129,37.96,1.3,0.38755380097830905,0.29155640021688595,0.2775038228248078,0.983327102476952,0.37115215843035965,0.4676185506503506
38.189,38.02,1.72,0.3897464103764406,0.28858716114623,0.2798609042759758,0.9822482053938107,0.37453281132413724,0.46705322906198815
38.23,38.07,1.73,0.39195988518614594,0.28560878551944,0.28225174117883034,0.9811347938430167,0.377944631272321,0.46653263223606484
38.292,38.13,1.49,0.394194042553084,0.2826223412757781,0.28467622735157944,0.9799868041966068,0.381387086204105,0.4660562893810639
38.375,38.18,1.44,0.39644869546588984,0.27962891174941173,0.28713425095907785,0.9788041657006828,0.3848596348464781,0.46562369991885305
38.396,38.24,1.82,0.39872365282636585,0.27662959482807825,0.2896256947392495,0.9775867994980189,0.3883617269815135,0.4652343346255009
38.458,38.29,1.61,0.40101871952737494,0.2736255020803384,0.2921504362321751,0.9763346176615488,0.39189280371022256,0.46488763681337464
38.52,38.35,1.32,0.4033336965384624,0.2706177578513798,0.2947083480114746,0.9750475222410623,0.3954522977230332,0.4645830235509391
38.561,38.4,1.98,0.405668380999146,0.2676074983274888,0.29729929791755705,0.9737254043251331,0.39903963357689887,0.46431988691658443
38.623,38.46,1.78,0.40802256631976885,0.26459587056956263,0.29992314929229286,0.9723681431200635,0.4026542279790195,0.46409759528274325
38.686,38.51,1.44,0.4103960422898047,0.2615840315163182,0.30257976121463237,0.9709756050475953,0.40629549007713256,0.4639154946265958
38.789,38.57,1.82,0.4127885951935017,0.25857314695815925,0.30526898873662367,0.9695476428634987,0.409962821756351,0.46377290986373004
38.81,38.62,1.92,0.4152000079327818,0.255564390482908,0.3079906831192642,0.9680840947996301,0.4136556179425679,0.4636691462011678
38.852,38.68,1.72,0.4176300601573267,0.25255894239477356,0.31074469206769884,0.9665847837323444,0.4173732669124447,0.46360349050629956
38.914,38.73,1.6,0.4200785284017625,0.24955798860815434,0.31353085996533786,0.9650495163801986,0.42111515060997773,0.463575212688465
38.975,38.79,2.03,0.4225451862298093,0.24656271951811684,0.31634902810645,0.9634780825338414,0.4248806449696419,0.4635835670899747
39.038,38.84,1.78,0.4250298043852131,0.24357432884953295,0.3191990349267493,0.9618702543207978,0.4286691202461141,0.4636277938833313
39.12,38.9,1.43,0.42753215094921004,0.24059401248695286,0.3220807162314681,0.9602257855075531,0.43247994135054746,0.463707120471414
39.14,38.95,2.06,0.430051991504151,0.23762296728744825,0.3249939054203857,0.9585444108410378,0.43631246819331365,0.46382076288740165
39.182,39.01,1.87,0.432589089302782,0.23466238987879945,0.32793843370927145,0.9568258454313697,0.44016605603306863,0.4639679271912017
39.224,39.06,1.54,0.43514320544254875,0.231713475445458,0.33091413034716793,0.9550697841776962,0.4440400558319114,0.46414781085922946
39.287,39.12,1.86,0.43771409904421343,0.22877741650474342,0.3339208228288269,0.9532759012393444,0.4479338146163335,0.4643596041644848
39.349,39.17,2.02,0.44030152743404904,0.22585540167571685,0.3369583371015424,0.9514438495549496,0.4518466758436158,0.464602491543943
39.411,39.23,1.86,0.4429052463289021,0.22294861444318428,0.3400264977656624,0.9495732604124185,0.4557779797732782,0.4648756529504331
39.472,39.28,1.72,0.4455250100234278,0.2200582319194826,0.3431251282681556,0.9476637430723526,0.4597270638431178,0.46517826518642114
39.492,39.34,2.22,0.4481605715788134,0.21718542360704335,0.3462540510886699,0.9457148844471616,0.4636932630493686,0.46550950321726337
39.574,39.39,2.0,0.4508116830123477,0.2143313501649736,0.3494130879175708,0.9437262488375758,0.4676759103305283,0.465868541461571
39.614,39.45,1.63,0.45347809548725593,0.21149716218298156,0.35260205982548626,0.9416973777277722,0.4716743369544006,0.4662545550564592
39.676,39.5,2.27,0.45615955950226744,0.20868399896598375,0.35582078742390094,0.9396277896398963,0.4756878729079051,0.4666667210956366
39.737,39.56,2.09,0.45885582508042416,0.20589298733264516,0.3590690910163597,0.9375169800484978,0.479715847289193,0.46710421983848677
39.799,39.61,1.76,0.46156664195664926,0.203125240430978,0.3623467907397952,0.9353644213554527,0.4837575887015583,0.46756623588860685
39.84,39.67,2.0,0.4642917597635693,0.20038185657403196,0.36565370669531305,0.9331695629265424,0.48781242564858424,0.4680519593405807
39.902,39.72,2.17,0.4670309282150494,0.197663918098563,0.36898965906757236,0.9309318311916566,0.4918796869299177,0.4685605868939394
39.965,39.78,2.01,0.4697838972868675,0.19497249024929467,0.3723544682318087,0.9286506298110303,0.49595870203699854,0.46909132293341455
40.046,39.83,1.87,0.47255041739390996,0.1923086200911431,0.375747954847545,0.926325339909853,0.5000488015479494,0.4696433805747885
40.066,39.89,2.43,0.4753302395632483,0.18967333545163734,0.37916993993804227,0.923955320383213,0.5041493175207663,0.470215982675764
40.107,39.94,2.22,0.4781231156024821,0.187067643895631,0.38262024495455715,0.9215399082728518,0.5082595838839207,0.4708083628112912
40.21,40.0,1.86,0.4809287982627949,0.18449253173426522,0.38609869182448947,0.9190784192167261,0.5123789368234617,0.4714197662128331
40.23,40.05,2.55,0.48374704139623376,0.18194896307003686,0.38960510298251755,0.9165701479720464,0.5165067151657323,0.4720494506710785
40.271,40.11,2.42,0.4865776001067829,0.1794378788797171,0.39313930138384023,0.9140143690123327,0.5206422607548303,0.4726966874016671
40.333,40.16,2.14,0.48942023089485903,0.17696019613676797,0.3967011104986059,0.9114103371993164,0.5247849188239633,0.4733607618736637
40.395,40.22,2.36,0.4922746917948852,0.1745168069748487,0.4002903542864077,0.9087572885314023,0.528934038359855,0.4740409746007119
40.435,40.27,2.56,0.4951407425056384,0.1721085778938493,0.4039068571494781,0.9060544409715423,0.5330889724594162,0.4747366418948571
40.496,40.33,2.42,0.4980181445131133,0.1697363490095346,0.40755044386310096,0.9033009953580605,0.5372490786779038,0.4754470965830369
40.577,40.38,2.24,0.5009066612056543,0.1674009333474985,0.41122093948175686,0.9004961364020141,0.5414137193677703,0.4761716886863037
40.598,40.44,2.85,0.5038060579810815,0.1651031161818415,0.41491816921953273,0.8976390337743456,0.5455822620074027,0.476909786061841
40.682,40.49,2.66,0.5067161023455169,0.162843654418743,0.4186419583033587,0.8947288432856079,0.5497540795189647,0.4776607750077593
40.701,40.55,2.28,0.509636564003626,0.16062327602491247,0.42239213179767665,0.8917647081605753,0.5539285505745812,0.4784240608306172
40.764,40.6,3.0,0.5125672149400184,0.1584426795008103,0.42616851439920034,0.888745760409712,0.5581050598901572,0.4791990683755882
40.823,40.66,2.91,0.5155078294916277,0.15630253339846256,0.42997093020059346,0.8856711222990693,0.5622829985061911,0.47998524251921343
40.865,40.71,2.68,0.5184581844109787,0.15420347588367514,0.4337992024222142,0.8825399079195414,0.5664617640550075,0.48078204862484386
40.947,40.77,2.9,0.5214180589203412,0.1521461143425344,0.4376531531115201,0.8793512248554628,0.5706407610138993,0.48158897296106373
41.008,40.82,3.15,0.524387234756867,0.15013102503213058,0.4415326028102478,0.8761041759513885,0.5748194009438085,0.48240552308339996
41.049,40.88,2.99,0.5273654962089265,0.14815875277532584,0.44543737018998014,0.8727978611747769,0.5789971027132905,0.48323122817953457
41.112,40.93,2.75,0.5303526301439385,0.14622981069924773,0.4493672716570241,0.8694313795714605,0.5831732927075935,0.4840656393781889
41.174,40.99,3.33,0.5333484260280109,0.14434468001713105,0.4533221209276482,0.8660038313102244,0.5873474050227683,0.484908330021768
41.234,41.04,3.06,0.5363526759377232,0.14250380985305777,0.4573017285747813,0.8625143198123708,0.5915188816447949,0.4857588959027501
41.378,41.1,2.62,0.5393651745643644,0.1407076171090439,0.4613059015473103,0.8589619539617644,0.5956871726137346,0.48661695546377287
41.399,41.15,3.28,0.5423857192108793,0.13895648637386818,0.46533444266314367,0.8553458503906278,0.5998517361729153,0.48748214996137285
41.419,41.21,3.21,0.5454141097816828,0.1372507698730291,0.46938715007733706,0.8516651358360612,0.6040120389031338,0.48835414359337326
41.439,41.26,2.98,0.5484501487653893,0.13559078745925912,0.47346381672685905,0.8479189495617034,0.6081675558417926,0.48923262359007014
41.5,41.32,3.17,0.5514936412104152,0.13397682664316696,0.47756422975395835,0.8441064458380536,0.6123177705868464,0.490117300269525
41.563,41.37,3.48,0.5545443946933875,0.13240914266365772,0.48168816991052954,0.8402267964738982,0.6164621753854791,0.4910079070572326
41.603,41.43,3.33,0.5576022192803702,0.13088795859768543,0.4858354109462587,0.8362791933902542,0.6206002712074936,0.4919042004702866
41.683,41.48,3.09,0.5606669274810137,0.12941346550876826,0.4900057189835553,0.8322628512274804,0.6247315678034836,0.49280596006608274
41.703,41.54,3.72,0.5637383341958275,0.12798582263366975,0.49419885188233786,0.8281770099757361,0.6288555837479405,0.4937129883555104
41.765,41.59,3.48,0.5668162566568837,0.12660515760662613,0.49841455859776645,0.82402093761858,0.632971846467581,0.49462511068051024
41.806,41.65,3.03,0.5699005143623481,0.12527156672043366,0.5026525785340448,0.8197939327792214,0.6370798922552394,0.4955421750559091
41.869,41.7,3.64,0.5729909290053146,0.12398511522364142,0.5069126408974566,0.8154953273587989,0.6411792662697464,0.496464051975525
41.93,41.76,3.55,0.5760873243974602,0.1227458376530043,0.5111944640519147,0.8111244891561279,0.6452695225222431,0.4973906341826438
41.971,41.81,3.29,0.5791895263880212,0.12155373820030556,0.5154977548803468,0.8066808244588173,0.6493502238493633,0.49832183640519007
42.053,41.87,3.37,0.582297362778485,0.12040879111275417,0.5198222081550435,0.8021637805967751,0.6534209418736664,0.499257595056155
42.114,41.92,3.69,0.5854106632332643,0.11931094112625805,0.5241675059197127,0.7975728484506099,0.6574812569517039,0.5001978678998799
42.176,41.98,3.5,0.5885292591865011,0.11826010393079994,0.5285333168856594,0.7929075649084663,0.661530758110083,0.5011426336847242
42.197,42.03,3.27,0.5916529837450514,0.117256166667005,0.532919295844344,0.7881675152651251,0.6655690429698631,0.5020918917426349
42.257,42.09,3.91,0.5947816715876622,0.11629898845290093,0.5373250830984707,0.783352335557043,0.6695957176596026,0.503045661556127
42.298,42.14,3.69,0.5979151588603673,0.1153884009397715,0.5417503039137166,0.7784617148266662,0.6736103967173964,0.5040039822931688
42.36,42.2,3.27,0.6010532830682138,0.11452420889588011,0.5461945679931983,0.7734953973090696,0.6776127029822653,0.504966912310517
42.421,42.25,3.88,0.604195882963538,0.11370619081675042,0.5506574689768067,0.7684531845338146,0.6816022674753,0.5059345286261379
42.464,42.31,3.84,0.6073427984311319,0.1129340995606104,0.5551385839676723,0.7633349373349224,0.6855787292710156,0.5069069263614737
42.524,42.36,3.59,0.6104938703707348,0.11220766300758199,0.5596374730881284,0.758140577762203,0.6895417353593728,0.507884218154561
42.627,42.42,3.67,0.6136489405773194,0.11152658474132524,0.5641536790673992,0.7528700908881323,0.6934909404989223,0.5088665335452475
42.647,42.47,3.98,0.6168078516196709,0.11089054475196727,0.5686867268629141,0.7475235265057716,0.6974260070615759,0.5098540183337922
42.688,42.53,3.77,0.6199704467177615,0.11029920015907328,0.5732361233168528,0.742101000714125,0.7013466048695396,0.5108468339140281
42.79,42.58,3.49,0.623136569619421,0.10975218595326504,0.5778013568493418,0.7366026973876327,0.7052524110249492,0.5118451565821852
42.81,42.64,4.14,0.626306064476724,0.10924911575499013,0.5823818971895829,0.731028869526393,0.7091431097327305,0.5128491768223636
42.852,42.69,3.9,0.6294787757224284,0.10878958258880982,0.5869771951460773,0.725379840483503,0.7130183921172134,0.513859098569488
42.913,42.75,3.49,0.6326545479467222,0.10837315967136991,0.5915866824170083,0.7196560050657529,0.7168779560329868,0.5148751384504706
42.974,42.8,4.09,0.6358332257744785,0.10799940121102487,0.5962097714417631,0.7138578305039212,0.7207215058704824,0.5158975250042396
43.015,42.86,4.07,0.6390146537432153,0.1076678432169222,0.6008458552945773,0.707985857289105,0.7245487523567659,0.5169264978812547
43.076,42.91,3.84,0.6421986761819783,0.10737800431529207,0.6054943076212582,0.7020406998720142,0.728359412351998,0.5179623070232638
43.159,42.97,3.93,0.6453851370913941,0.10712938657080959,0.6101544826197142,0.6960230472232185,0.7321532086420173,0.5190052118242535
43.18,43.02,4.27,0.6485738800251886,0.10692147631104104,0.6148257150646264,0.6899336632537019,0.7359298697275406,0.5200554802735787
43.244,43.08,4.06,0.651764747973552,0.1067537449519568,0.6195073203762691,0.6837733870960536,0.7396891296105411,0.5211133880822058
43.303,43.13,3.77,0.6549575832488057,0.1066256498224084,0.6241985947332728,0.6775431332469855,0.743430727578393,0.5221792177929802
43.365,43.19,4.38,0.6581522273738513,0.10653663498549351,0.6288988152289707,0.6712438915718527,0.747154407986403,0.5232532578758096
43.426,43.24,4.11,0.661348520973857,0.10648613205481876,0.6336072400708621,0.6648767271717162,0.7508599200393714,0.5243358018085951
43.53,43.3,3.65,0.6645463036715771,0.10647356100375693,0.6383231088226425,0.658442780113352,0.7545470175727984,0.5254271471447552
43.549,43.35,4.21,0.6677454139865835,0.10649833096587255,0.6430456426882124,0.6519432650225837,0.7582154588343062,0.5265275945682054
43.59,43.41,4.18,0.6709456892385743,0.10655984102469938,0.6477740448371095,0.6453794705413719,0.7618650062657875,0.527637446936686
43.631,43.46,3.94,0.6741469654547861,0.10665748099105755,0.6525075007708465,0.6387527586493373,0.7654954262866718,0.5287570083144666
43.692,43.52,4.04,0.6773490772814008,0.10679063216624941,0.657245178729481,0.6320645638510549,0.7691064890785889,0.5298865829956281
43.754,43.57,4.42,0.680551857898744,0.10695866808969245,0.6619862301374265,0.6253163922313657,0.7726979683716585,0.5310264745191234
43.795,43.63,4.23,0.6837551389400495,0.10716095526967345,0.6667297900872173,0.618509820381611,0.7762696412326288,0.5321769846767023
43.96,43.68,3.96,0.686958750413599,0.10739685389601218,0.6714749778597264,0.6116464941999201,0.7798212878550905,0.5333384125147426
43.979,43.74,4.64,0.6901625206280855,0.10766571853358388,0.6762208974791573,0.6047281275686957,0.7833526913520208,0.534511053330967
43.999,43.79,4.38,0.6933662761211054,0.10796689879577864,0.6809666383009982,0.5977565009123679,0.7868636375509798,0.5356951976669534
44.019,43.85,3.92,0.69656984159073,0.10829973999704996,0.6857112756310285,0.5907334596384892,0.7903539147923101,0.5368911302973627
44.061,43.9,4.48,0.6997730398301244,0.1086635837837865,0.6904538713734542,0.5836609124653719,0.7938233137307218,0.5380991292168649
44.122,43.96,4.42,0.7029756916651688,0.1090577687428015,0.6951934747063819,0.5765408296396815,0.7972716271406434,0.539319464625829
44.183,44.01,4.14,0.7061776158949987,0.10948163098679878,0.6999291227830178,0.5693752410477863,0.8006986497256613,0.5405523979160669
44.245,44.07,4.21,0.7093786292352895,0.10993450471633227,0.7046598414569109,0.5621662342254695,0.8041041779322723,0.5417981806581941
44.306,44.12,4.56,0.7125785462640035,0.1104157227579139,0.709384646029258,0.5549159522717232,0.8074880097681042,0.5430570535922349
44.347,44.18,4.37,0.7157771793692346,0.11092461707790219,0.714102542015939,0.547626591673171,0.8108499446247063,0.5443292456230179
44.388,44.23,4.1,0.7189743386986952,0.1114605192717406,0.7188125259316737,0.5403004000460138,0.8141897831049263,0.5456149728218104
44.449,44.29,4.81,0.722169832110322,0.11202276102813458,0.7235135860884648,0.5329396738024408,0.8175073268548593,0.546914437435517
44.533,44.34,4.57,0.7253634651234431,0.11261067456778258,0.728204703405304,0.5255467557484076,0.8208023784003433,0.5482278269046224
44.553,44.4,4.14,0.7285550408699814,0.11322359305629509,0.7328848522260116,0.5181240326196775,0.8240747409879813,0.5495553128910063
44.636,44.45,4.76,0.7317443600452213,0.11386085099100345,0.7375530011421133,0.5106739325630945,0.827324218430696,0.5508970503167591
44.717,44.51,4.71,0.7349312208577413,0.11452178456145481,0.7422081138180027,0.5031989225699618,0.8305506149578705,0.5522531764151651
44.738,44.56,4.48,0.738115418978203,0.11520573198354625,0.7468491498162404,0.49570150586791145,0.8337537350701192,0.5536238097952406
44.779,44.62,4.56,0.7412967474867189,0.11591203380755485,0.7514750654214305,0.48818421927686084,0.8369333833987179,0.5550090495214874
44.843,44.67,4.88,0.744474996818564,0.11664003320060445,0.7560848144615413,0.4806496305338313,0.8400893645697459,0.5564089742106064
44.884,44.73,4.66,0.7476499547080351,0.11738907620416739,0.7606773491257384,0.4731003355907253,0.8432214830730195,0.5578236411468565
44.988,44.78,4.34,0.750821406130292,0.11815851196714512,0.7652516207778044,0.4655389558887876,0.8463295431358862,0.5592530854176943
45.01,44.84,4.96,0.7539891332409661,0.11894769295507025,0.7698065807640543,0.4579681356133683,0.8494133486019344,0.5606973190712644
45.07,44.89,4.7,0.7571529153132612,0.11975597513599462,0.7743411812144678,0.4503905389325933,0.8524727028146422,0.5621563302972238
45.111,44.95,4.37,0.7603125286721706,0.12058271814364156,0.7788543758355965,0.44280884722359287,0.8555074085059075,0.5636300826323662
45.172,45.0,5.02,0.7634677466253462,0.12142728541841934,0.783345120693745,0.4352257562900858,0.8585172676893278,0.5651185141925097
45.255,45.06,4.98,0.766618339390125,0.12228904432685078,0.7878123749870962,0.42764397357519746,0.8615020815580523,0.5666215369320197
45.277,45.11,4.75,0.7697640740162501,0.12316736625989246,0.7922551018057934,0.4200662153733216,0.8644616503870035,0.5681390359322672
45.358,45.17,4.89,0.772904714303905,0.12406162671059709,0.7966722688792719,0.4124952040447656,0.8673957734393039,0.5696708687201822
45.379,45.22,5.25,0.7760400207168137,0.12497120533154378,0.801062849310261,0.4049336652369409,0.8703042488768363,0.5712168646178072
45.441,45.28,5.05,0.7791697502903219,0.12589548597234232,0.8054258222948907,0.397384325115858,0.8731868736749738,0.5727768241235207
45.504,45.33,4.77,0.7822936565345356,0.1268338566974468,0.8097601738282623,0.3898499076116692,0.8760434435415794,0.5743505183255025
45.566,45.39,5.42,0.7854114893326837,0.12778570978456935,0.8140648973946452,0.38233313168206107,0.8788737528404599,0.5759376883479367
45.608,45.44,5.13,0.7885229948349693,0.12875044170403638,0.8183389946412507,0.37483670859739726,0.8816775945195376,0.5775380448303509
45.669,45.5,4.64,0.79162791534823,0.12972745307943245,0.8225814760343333,0.3673633392516718,0.8844547600440279,0.5791512674404663
45.732,45.55,5.25,0.7947259892217382,0.13071614862988826,0.8267913614962845,0.3599157115035872,0.8872050393349112,0.5807770044209418
45.814,45.61,5.16,0.7978169507294602,0.13171593709436358,0.8309676810225328,0.35249649755219153,0.8899282207129582,0.5824148721704338
45.835,45.66,4.91,0.8009005299490181,0.13272623113831006,0.8351094752774343,0.3451083513512379,0.8926240908484606,0.5840644548595635
45.874,45.72,5.07,0.8039764526374995,0.13374644724324827,0.8392157961687502,0.3377539060658383,0.8952924347167142,0.5857253040825765
45.935,45.77,5.43,0.8070444401041759,0.13477600557992261,0.8432857074005794,0.33043577157431164,0.8979330355592562,0.58739693854547
45.997,45.83,5.25,0.8101042090801789,0.1358143298656399,0.8473182850047318,0.32315653201761485,0.9005456748508486,0.589078843791204
46.1,45.88,4.99,0.8131554715852413,0.13686084720627748,0.8513126178504451,0.3159187433985877,0.9031301322722177,0.590770471962466
46.121,45.94,5.67,0.8161979347916953,0.1379149879233899,0.8552678081321131,0.30872493123337563,0.9056861856886276,0.5924712416022783
46.162,45.99,5.41,0.819231300886059,0.13897618536679893,0.8591829718344638,0.30157758825759623,0.9082136111344609,0.5941805374925756
46.224,46.05,4.93,0.8222552669286755,0.1400438757130249,0.8630572391744574,0.29447917219002157,0.9107121828040494,0.595897710530836
46.264,46.1,5.59,0.8252695247119898,0.14111749774997695,0.8668897550191583,0.2874321035568155,0.9131816730490531,0.597622077644894
46.325,46.16,5.48,0.8282737606181302,0.14219649264841264,0.870679679279099,0.28043876357945297,0.9156218523827266,0.5993529217461615
46.385,46.21,5.18,0.8312676554764935,0.14328030372083253,0.8744261872772059,0.27350149212912533,0.9180324894913858,0.6010894917217376
46.488,46.27,5.3,0.8342508844220219,0.14436837616875323,0.8781284700939086,0.2666225857497811,0.9204133512533346,0.6028310024661897
46.509,46.32,5.56,0.8372231167548153,0.145460156819529,0.8817857348894736,0.2598042957512146,0.9227642027655129,0.6045766349538614
46.549,46.38,5.35,0.8401840158016926,0.14655509385387236,0.8853972052048286,0.2530488263730065,0.9250848073781052,0.6063255363524883
46.609,46.43,5.08,0.8431332387802596,0.14765263652509353,0.8889621212421273,0.24635833301982973,0.9273749267372936,0.6080768201787979
46.67,46.49,5.74,0.846070436665947,0.14875223487099343,0.8924797401260853,0.23973492056863926,0.9296343208362968,0.6098295664966189
46.732,46.54,5.47,0.848995254062408,0.1498533394192564,0.895949336146843,0.2331806417483844,0.9318627480748009,0.6115828221578148
46.833,46.6,5.02,0.8519073290756302,0.15095540088706524,0.8993702009848464,0.2266974955930767,0.9340599653268447,0.6133356010862255
46.853,46.65,5.74,0.8548062931921385,0.1520578698755593,0.9027416439180691,0.22028742596934464,0.9362257280172092,0.6150868846047264
46.874,46.71,5.63,0.8576917711617306,0.15316019655967839,0.9060629920119458,0.21395232017980112,0.9383597902063511,0.616835621805511
46.936,46.76,5.36,0.8605633808852685,0.1542618303739605,0.9093335902926897,0.207694007643382,0.9404619046838922,0.6185807299638793
46.978,46.82,5.53,0.8634207333081115,0.1553622196950841,0.9125528019050535,0.20151425865330666,0.9425318230706692,0.6203210949960246
47.039,46.87,5.79,0.8662634323198186,0.15646081152219565,0.9157200082559728,0.19541478321264807,0.9445692959293944,0.6220555719613234
47.1,46.93,5.58,0.8690910746608042,0.1575570511561411,0.9188346091457982,0.18939722994692645,0.9465740728840399,0.6237829856095174
47.18,46.98,5.29,0.8719032498366495,0.15865038187874347,0.9218960228888609,0.1834631850928982,0.9485459027480577,0.6255021309730764
47.2,47.04,5.88,0.8746995400407517,0.15974024463334252,0.9249036864249222,0.17761417156281029,0.950484533661578,0.6272117740048787
47.263,47.09,5.57,0.877479520085969,0.160826077707849,0.927857055422786,0.17185164808360948,0.9523897132377166,0.6289106522611663
47.303,47.15,5.1,0.8802427573458711,0.1619073164215319,0.9307556043770517,0.16617700841087416,0.9542611887180789,0.6305974756296246
47.365,47.2,5.83,0.8829888117061195,0.16298339281673252,0.9335988266987043,0.16059158061762427,0.9560987071374675,0.6322709271023783
47.427,47.26,5.68,0.8857172355263702,0.16405373535668558,0.9363862348000391,0.1550966264584931,0.9579020154977125,0.6339296635936594
47.487,47.31,5.41,0.8884275736129656,0.16511776863064853,0.9391173601743988,0.1496933408097613,0.9596708609504364,0.6355723168019755
47.568,47.37,5.65,0.8911193632025598,0.16617491306763274,0.9417917534712996,0.14438285118541544,0.9614049909884813,0.6371974941166457
47.589,47.42,5.9,0.8937921339567937,0.16722458466004714,0.9444089845677218,0.13916621732883455,0.9631041536457402,0.6388037795684282
47.63,47.48,5.74,0.8964454079681817,0.16826619469841383,0.9469686426365148,0.13404443087917542,0.9647680977051567,0.6403897348237256
47.713,47.53,5.53,0.8990786997774591,0.16929914951817354,0.9494703362128589,0.12901841511128195,0.9663965729146902,0.6419539002217145
47.754,47.59,6.16,0.9016915164026967,0.17032285025958868,0.9519136932595283,0.12408902474800054,0.9679893302111011,0.64349479585355
47.817,47.64,5.86,0.9042833573805829,0.17133669264176946,0.9542983612314356,0.11925704584395924,0.9695461219514985,0.6450109226825694
47.88,47.7,5.38,0.9068537148203358,0.17234006675187039,0.9566240071396538,0.11452319574011906,0.9710667021526528,0.6465007637042438
47.923,47.75,6.06,0.9094020734707159,0.17333235685058263,0.9588903176148255,0.10988812308878233,0.9725508267381205,0.6479627851444986
47.982,47.81,5.86,0.911927910800583,0.1743129411951508,0.9610969989697057,0.10535240794905831,0.9739982537932433,0.6493954376949771
48.044,47.86,5.52,0.9144306970933532,0.17528119188128558,0.9632437772605877,0.10091656195279682,0.9754087438280161,0.6507971577839589
48.107,47.92,5.74,0.9169098955555954,0.17623647470554685,0.9653303983475056,0.09658102854067294,0.9767820600477369,0.6521663688818456
48.148,47.97,5.95,0.9193649624398985,0.1771781490498642,0.9673566279533183,0.09234618326756393,0.9781179686312865,0.6535014828401401
48.209,48.03,5.78,0.9217953471820469,0.17810556778970585,0.9693222517219702,0.08821233417584462,0.9794162390168165,0.6548009012627577
48.293,48.08,5.58,0.9242004925524776,0.17901807722716506,0.9712270752761958,0.08417972223501236,0.9806766441945336,0.6560630169084327
48.313,48.14,6.23,0.9265798348219385,0.1799150170500479,0.973070924274704,0.08024852184614785,0.9818989610062284,0.6572862151228399
48.374,48.19,5.97,0.9289328039412947,0.1807957203178632,0.9748536444685582,0.07641884140991895,0.9830829704512124,0.6584688752988531
48.416,48.25,5.48,0.9312588237354987,0.18165951347544979,0.9765751017561703,0.07269072395707943,0.9842284579983537,0.6596093723632063
48.477,48.3,6.24,0.93355731211183,0.18250571639488544,0.978235182236078,0.06906414784073957,0.9853352139039578,0.6607060782877228
48.541,48.36,6.06,0.9358276812825782,0.18333364244627512,0.9798337922565927,0.06553902748992692,0.9864030335352932,0.6617573636232351
48.581,48.41,5.71,0.938069338002399,0.18414259859803098,0.9813708584615431,0.06211521422388413,0.987431717699553,0.6627615990544801
48.664,48.47,5.93,0.9402816838205837,0.1849318855473808,0.9828463278316497,0.05879249712611063,0.9884210729780315,0.6637171569744762
48.684,48.52,6.1,0.9424641153484877,0.18570079788190927,0.98426016772155,0.05557060397644453,0.9893709120653107,0.6646224130769515
48.744,48.58,5.86,0.9446160245423595,0.1864486242728306,0.9856123658929695,0.05244920223878408,0.9902810541132397,0.6654757479653778
48.807,48.63,5.62,0.9467367990017665,0.1871746477005571,0.9869029305447378,0.049427900101718936,0.9911513250794267,0.6662755487771979
48.847,48.69,6.19,0.9488258222836864,0.1878781457130657,0.9881318903402003,0.046506247569439566,0.9919815580798995,0.6670202108217702
48.908,48.74,5.9,0.9508824742322141,0.1885583907174633,0.9892992944322557,0.043683737600567485,0.9927715937455238,0.6677081392304115
48.97,48.8,5.45,0.9529061313236908,0.1892146503050035,0.9904052124858693,0.040959807292883885,0.993521280581679,0.668337750616789
49.051,48.85,6.24,0.9548961670269283,0.18984618760969385,0.9914497346975618,0.03833383911234865,0.9942304753306159,0.6689074747457981
49.071,48.91,6.07,0.9568519521780948,0.19045226170057103,0.9924329718111358,0.03580516216513098,0.9948990433358548,0.6694157562090051
49.133,48.96,5.74,0.958772855369778,0.19103212800773703,0.9933550551288898,0.03337305351138678,0.9955268589079209,0.6698610561048468
49.194,49.02,6.03,0.9606582433537265,0.19158503878237612,0.9942161365177916,0.031036739519134035,0.9961138056906953,0.670241853721965
49.255,49.07,6.24,0.9625074814568324,0.19211024359103168,0.9950163884105525,0.0287953972558825,0.9966597770277109,0.6705566482240802
49.317,49.13,6.05,0.9643199340100347,0.19260698984430671,0.9957560038020734,0.026648155914978124,0.9971646763277727,0.6708039603348187
49.4,49.18,5.83,0.9660949647899228,0.1930745233600375,0.9964351962419814,0.024594098273326228,0.9976284174293014,0.670982334020957
49.421,49.24,6.41,0.967831937472889,0.1935120889609548,0.9970541998238772,0.022632262177323233,0.998050924962847,0.6710903381725348
49.461,49.29,6.11,0.9695302161017252,0.19391893110678374,0.9976132691716127,0.020761642054179873,0.9984321347112733,0.6711265682781754
49.522,49.35,5.65,0.9711891655645852,0.19429429456063152,0.9981126794225849,0.01898119044621264,0.9987719939671328,0.6710896480938828
49.563,49.4,6.33,0.972808152086179,0.19463742508944543,0.9985527262076939,0.017289819566127074,0.999070461886747,0.6709782313035267
49.645,49.46,6.12,0.9743865437309748,0.19494757019827597,0.9989337256273968,0.015686402871673468,0.9993275098404863,0.6707910031691922
49.666,49.51,5.77,0.9759237109180398,0.19522397989805187,0.9992560142232283,0.014169776658117328,0.9995431217586572,0.6705266821696629
49.768,49.57,6.06,0.9774190269469875,0.1954659075065993,0.9995199489442638,0.012738741666680884,0.9997172944723192,0.6701840216254403
49.79,49.62,6.25,0.9788718685343727,0.19567261048257156,0.9997259071082546,0.011392064706577396,0.9998500380483073,0.6697618113086825
49.85,49.68,6.07,0.9802816163598201,0.19584335129172153,0.9998742863574249,0.010128480287740946,0.9999413761176801,0.6692588790364188
49.891,49.73,5.9,0.9816476556211563,0.19597739830471586,0.999965504608959,0.008946692261172286,0.9999913461967668,0.6686740922454149
49.952,49.79,6.52,0.982969376597835,0.1960740267255485,1.0,0.007845375463997465,1.0,0.6680063595470269
50.015,49.84,6.23,0.9842461752220252,0.196132519549471,0.9999782308266674,0.006823177366642267,0.9999674037437788,0.6672546322602756
50.076,49.9,5.82,0.9854774536568245,0.1961521685492247,0.999900675476263,0.005878719719886053,0.999893638440654,0.6664179059213098
50.14,49.95,6.56,0.9866626208811359,0.19613227528830135,0.9997678323515237,0.005010600200010233,0.9997788001832124,0.6654952217673884
50.18,50.01,6.34,0.9878010932807924,0.19607215215992355,0.9995802197855909,0.0042173940506345965,0.9996230004170953,0.6644856681934925
50.242,50.06,5.98,0.9888922952455274,0.19597112345044482,0.9993383759463843,0.003497655719897128,0.9994263662026216,0.6633883821798169
50.283,50.12,6.2,0.989935659771348,0.19582852642595583,0.9990428587292961,0.0028499204912902578,0.9991890404645021,0.6622025506885497
50.346,50.17,6.35,0.9909306290678336,0.19564371244089482,0.9986942456375739,0.0022727061058076432,0.9989111822291674,0.6609274120283732
50.408,50.23,6.14,0.9918766551698331,0.19541604806728585,0.9982931336502506,0.001764514372375217,0.9985929668492213,0.6595622571851013
50.531,50.28,5.94,0.9927732005529463,0.19514491624303598,0.9978401390776898,0.0013238327632328914,0.9982345862144597,0.6581064311169087
50.551,50.34,6.56,0.9936197387520397,0.19482971743760819,0.9973358974046677,0.0009491359910482019,0.9978362489488447,0.6565593340125542
50.572,50.39,6.29,0.9944157549819415,0.1944698708332728,0.9967810631205778,0.0006388875648316263,0.9973981805927977,0.6549204225108703
