Time_Host,Time_Arduino,easingdata,CH1_Oxy,CH1_Deoxy,CH2_Oxy,CH2_Deoxy,CH3_Oxy,CH3_Deoxy
1.136,0.04,0.0,1.0,0.3515296067341773,1.0,0.0,0.8487195490571495,1.0
1.178,0.1,0.0,0.9990805537086409,0.3522583503275407,0.994080899336671,0.013234714475640553,0.8537585574065074,0.9838788410955088
1.199,0.15,0.0,0.9981333622642697,0.35299325290285505,0.9881582574675611,0.026422801768632872,0.8587400344022671,0.9678353307375394
1.22,0.21,0.0,0.9971584956367034,0.3537338222874408,0.9822341290794666,0.03955883447141452,0.8636617494501282,0.9518753649608361
1.24,0.26,0.0,0.9961560370125603,0.35447956706462225,0.9763105619840805,0.05263742347069288,0.8685215145405439,0.9360047569401899
1.26,1.07,0.0,0.995126082471397,0.35522999771894354,0.9703895952212347,0.06565322264154959,0.8733171858655965,0.9202292321102197
1.281,1.13,0.0,0.9940687406459904,0.3559846277837462,0.9644732571810466,0.0786009334749187,0.8780466653636502,0.9045544234325192
1.342,1.18,0.0,0.992984132368346,0.3567429749865362,0.9585635637475909,0.09147530963306594,0.8827079021910486,0.8889858668145804
1.363,1.24,0.0,0.9918723903030895,0.3575045623874409,0.9526625164666676,0.1042711614278772,0.8872988941203338,0.873528996684504
1.445,1.29,0.0,0.9907336585699664,0.3582689195059193,0.9467721007401811,0.1169833602169338,0.8918176888646971,0.8581891417251182
1.466,1.35,-0.2,0.9895680923572491,0.3590355834307609,0.9408942840496094,0.12960684271250866,0.8962623853285718,0.8429715207707597
1.527,1.4,-0.11,0.9883758575279065,0.359804099908297,0.9350310142109838,0.14213661519876786,0.9006311347844793,0.8278812388696478
1.588,1.46,-0.04,0.9871571302204187,0.3605740244037576,0.9291842176637195,0.1545677576526532,0.9049221419763626,0.8129232835145594
1.648,1.51,-0.21,0.9859120964460351,0.3613449231309475,0.9233557977954383,0.16689542776424693,0.9091336661497345,0.7981025210443722
1.689,1.57,-0.22,0.9846409516841005,0.3621163740459335,0.9175476333046664,0.17911486485290273,0.9132640220090212,0.7834236932188948
1.75,1.62,-0.04,0.9833439004768609,0.3628879678010127,0.9117615766030365,0.1912213936759154,0.917311580602587,0.7688914139691007
1.791,1.68,-0.18,0.982021156024979,0.36365930865567214,0.9059994522584643,0.20321042812681733,0.9212747701360232,0.7545101663244669
1.893,1.73,-0.27,0.9806729397848238,0.36443001534152314,0.9002630554806076,0.21507747482058787,0.9251520767144105,0.7402842995186458
1.914,1.79,-0.14,0.9792994810684703,0.36519972187834676,0.8945541506497428,0.2268181365632312,0.9289420450143709,0.7262180262742014
1.957,1.84,-0.15,0.9779010166472464,0.365968078338485,0.88887446989009,0.23842811570330089,0.9326432788868795,0.7123154202666585
2.019,1.9,-0.33,0.976477790359596,0.36673475155695695,0.8832257116885999,0.2499032173630235,0.9362544418918902,0.6985804137677556
2.081,1.95,-0.24,0.9750300527239498,0.3674994257849933,0.8776095395602319,0.2612393525467936,0.9397742577659396,0.6850167954675364
2.124,2.01,-0.16,0.9735580605572411,0.3682618032850852,0.8720275807607969,0.2724325411249349,0.943201510823958,0.6716282084747349
2.185,2.06,-0.32,0.9720620765996776,0.3690216048660457,0.8664814250485231,0.2834789146906645,0.9465350462966137,0.6584181484947671
2.267,2.12,-0.37,0.97054236914634,0.3697785703570158,0.8609726234955827,0.294374719288228,0.9497737706045578,0.6453899621844938
2.287,2.17,-0.24,0.9689992116861017,0.3705324590198196,0.8555026873508242,0.3051163180102545,0.9529166515710181,0.632546845682702
2.369,2.23,-0.35,0.9674328825482832,0.3712830498994631,0.8500730869549462,0.3157001934624019,0.9559627185742362,0.6198918433149173
2.41,2.28,-0.51,0.9658436645573711,0.3720301421128126,0.8446852507092635,0.3261229500933241,0.9589110626412624,0.6074278464708008
2.471,2.34,-0.39,0.964231844696074,0.3727735550756096,0.8393405640990748,0.33638131638797814,0.9617608364846245,0.595157592652002
2.512,2.39,-0.4,0.9625977137769625,0.373513128667968,0.8340403687724635,0.3464721469223046,0.9645112544833737,0.5830836646879988
2.574,2.45,-0.59,0.9609415661229328,0.3742487233384747,0.8287859616751998,0.3563924242773845,0.967161592609964,0.5712084901172376
2.636,2.5,-0.52,0.9592636992566929,0.3749802201471487,0.823578594242222,0.36613926081139875,0.9697111883043785,0.5595343407308163
2.676,2.56,-0.4,0.9575644135993658,0.37570752074784897,0.8184194716460117,0.37570990028809115,0.9721594402968604,0.5480633322759455
2.739,2.61,-0.58,0.9558440121782008,0.3764305473111843,0.8133097521020259,0.385101719360889,0.9745058083805632,0.5367974243164572
2.799,2.67,-0.64,0.9541028003432478,0.3771492423894558,0.8082505462311871,0.394312228912344,0.9767498131353914,0.5257384202476517
2.861,2.72,-0.48,0.9523410854927328,0.3778635687255617,0.8032429164792043,0.4033390752490565,0.9788910356042831,0.51488796746274
2.903,2.78,-0.54,0.9505591768067808,0.37857350900802733,0.7982878765923326,0.4121800411525251,0.9809291169231648,0.5042475576680565
3.025,2.83,-0.65,0.9487573849890703,0.37927906557442015,0.7933863911490462,0.420833046786391,0.982863757905774,0.49381852734414494
3.045,2.89,-0.53,0.9469360220159602,0.379980260065421,0.7885393751470351,0.42929615046042424,0.9846947185845064,0.4836020583497261
3.066,2.94,-0.51,0.9450954008926756,0.38067713303169765,0.7837476936449267,0.43756754925143376,0.9864218177084495,0.47359917866541873
3.127,3.0,-0.71,0.943235835416231,0.38136974349555586,0.77901216145818,0.44564557948115546,0.9880449321997642,0.46381076327396475
3.168,3.05,-0.7,0.9413576399448632,0.38205816846926205,0.7743335429086343,0.45352871705125164,0.9895639965695763,0.4542375351736617
3.23,3.11,-0.56,0.9394611291738155,0.3827425024319911,0.7697125516272232,0.4612155776357738,0.9909790022945144,0.4448800665217225
3.292,3.16,-0.71,0.937546617917343,0.3834228567674832,0.7651498504094155,0.46870491673166376,0.9922899971549729,0.4357387799043672
3.355,3.22,-0.75,0.9356144208967979,0.3840993591646823,0.7606460511229156,0.47599562956810804,0.993497084536078,0.4268139497305421
3.394,3.27,-0.52,0.9336648525345914,0.3847721529838338,0.7562017146670099,0.48308675087588365,0.9946004226922549,0.4181057037461598
3.456,3.33,-0.53,0.9316982267537783,0.3854413965906285,0.7518173509827829,0.48997745451811703,0.9956002239762403,0.40961402466564145
3.498,3.38,-0.63,0.9297148567829978,0.3861072626609643,0.7474934191133126,0.4966670529840394,0.9964967540333769,0.40133875191739143
3.558,3.44,-0.47,0.9277150549665204,0.3867699374588097,0.7432303273128908,0.5031549967474208,0.9972903309620706,0.3932795834996454
3.618,3.49,-0.39,0.9256991325792335,0.3874296200895046,0.7390284332043209,0.5094408734914316,0.9979813244414073,0.3854360779429318
3.741,3.55,-0.6,0.9236673996465299,0.38808652173065544,0.7348880439833954,0.5155244072017924,0.9985701548270502,0.37780765637525227
3.762,3.6,-0.57,0.9216201647692144,0.3887408648426455,0.7308094166696524,0.5214054571303808,0.9990572922166546,0.3703936046860602
3.804,3.66,-0.44,0.9195577349536546,0.3893928823607122,0.7267927584024761,0.5270840166319316,0.999443255486123,0.36319307578514387
3.844,3.71,-0.63,0.9174804154474662,0.39004281687055775,0.7228382267815403,0.5325602118769356,0.9997286112980616,0.3562050919525873
3.886,3.77,-0.66,0.9153885095809777,0.39069091976960024,0.7189459302504938,0.5378343004442577,0.9999139730837643,0.3494285472760538
3.946,3.82,-0.48,0.913282318614609,0.3913374504162048,0.715115928522622,0.5429066697973518,1.0,0.3428622101716391
4.007,3.88,-0.51,0.9111621415921479,0.3919826752694134,0.7113482330470562,0.5477778356481383,0.9999873958618108,0.33650472598449194
4.131,3.93,-0.62,0.9090282751997646,0.39262686702179395,0.7076428075139635,0.5524484402126688,0.999876908052487,0.3303546196653596
4.152,3.99,-0.41,0.9068810136304398,0.3932703037280703,0.7039995683970152,0.5569192503627451,0.9996693264118675,0.32441029851919123
4.172,4.04,-0.35,0.9047206484533976,0.39391326793217346,0.7004183855313796,0.5611911556777132,0.9993654821041734,0.31867005502193807
4.212,4.1,-0.52,0.902547468488117,0.3945560457952849,0.696899082725529,0.5652651664007156,0.9989662464666584,0.31313206970174456
4.293,4.15,-0.49,0.9003617596825435,0.39519892622743097,0.6934414384052281,0.5691424113038767,0.9984725298404702,0.30779441408080693
4.333,4.21,-0.35,0.8981638049951867,0.39584220002525916,0.6900451862881573,0.5728241354671775,0.9978852803852472,0.30265505367422185
4.395,4.26,-0.53,0.8959538842808719,0.3964861590187007,0.6867100160877653,0.5763116979759134,0.9972054828790567,0.2977118510421663
4.477,4.32,-0.61,0.8937322741799529,0.397131095229281,0.6834355742451023,0.5796065695415479,0.9964341575053179,0.2929625688917643
4.497,4.37,-0.44,0.8914992480108085,0.3977773000428042,0.6802214646874789,0.5827103300505534,0.9955723586283385,0.2884048732249714
4.539,4.43,-0.43,0.8892550756654654,0.3984250633989222,0.6770672496128742,0.5856246660455013,0.9946211735590689,0.28403633652875443
4.6,4.48,-0.63,0.8870000235082148,0.39907467299975474,0.6739724502990887,0.588351368142298,0.9935817213126176,0.2798544410038328
4.662,4.54,-0.49,0.8847343542770906,0.3997264135394104,0.6709365479366876,0.5908923283871953,0.9924551513590438,0.2758565818282611
4.724,4.59,-0.44,0.882458326988083,0.40038056595602384,0.6679589844848456,0.593249537557063,0.9912426423689453,0.27204007045216616
4.764,4.65,-0.6,0.8801721968419909,0.40103740670781624,0.665039163549238,0.5954250824064196,0.9899454009553662,0.2684021379200355
4.826,4.7,-0.6,0.8778762151338344,0.4016972070747148,0.662176451281073,0.597421142864989,0.9885646604135394,0.26493993821710476
4.889,4.76,-0.46,0.8755706291648128,0.40236023248710256,0.6593701772962643,0.5992399891899592,0.987101679459973,0.2616505516365117
4.93,4.81,-0.62,0.8732556821568981,0.403026741883181,0.6566196356137254,0.6008839790773447,0.9855577409723725,0.25853098816397085
4.992,4.87,-0.74,0.8709316131702632,0.4036969870962268,0.6539240856118478,0.6023555547367542,0.9839341507318583,0.25557819087680156
5.055,4.92,-0.56,0.8685986570238087,0.4043712122727846,0.651282753002331,0.6036572399335391,0.9822322361688852,0.2527890393541865
5.119,4.98,-0.6,0.8662570442191113,0.4050496533225169,0.6486948308206851,0.6047916370018209,0.9804533451142159,0.2501603530955782
5.199,5.03,-0.76,0.8639070008681887,0.4057325374000425,0.6461594804328584,0.605761423831416,0.9785988445562094,0.24768889494423865
5.219,5.09,-0.62,0.8615487486255252,0.4064200824187235,0.6436758325575231,0.6065693508313518,0.9766701194056225,0.2453713745129811
5.261,5.14,-0.61,0.8591825046248789,0.4071124965960953,0.6412429883035874,0.6072182378725558,0.9746685712690691,0.24320445160925766
5.324,5.2,-0.76,0.8568084814214063,0.40780997803054503,0.6388600202225089,0.6077109712123655,0.9725956172322628,0.24118473965685747
5.449,5.25,-0.74,0.8544268869396086,0.4085127143090012,0.6365259733749224,0.6080505004037939,0.970452688654137,0.23930880911165123
5.47,5.31,-0.58,0.8520379244275214,0.4092208821456587,0.6342398664109856,0.6082398351928628,0.9682412299729038,0.23757319086896514
5.49,5.36,-0.74,0.8496417924175321,0.40993464705190924,0.6320006926638122,0.6082820424074872,0.9659626975250876,0.2359743796602467
5.592,5.42,-0.85,0.847238684694202,0.4106541630375774,0.6298074212553955,0.6081802428412321,0.9636185583785226,0.2345088374366855
5.612,5.47,-0.68,0.8448287902695029,0.4113795723433224,0.6276589982144809,0.6079376081349066,0.9612102891802825,0.23317299673737227
5.654,5.53,-0.7,0.8424122933659297,0.41211100520368754,0.6255543476059048,0.6075573576585388,0.9587393750204787,0.2319632640394833
5.717,5.58,-0.84,0.8399893734079573,0.412848579639926,0.6234923726709299,0.6070427553959705,0.9562073083128036,0.23087602308796307
5.778,5.64,-0.71,0.83756020502227,0.41359240128153774,0.6214719569780305,0.6063971068342462,0.9536155876926417,0.22990763820223722
5.819,5.69,-0.66,0.8351249580470889,0.41434256321546914,0.6194919655834767,0.6056237558601153,0.9509657169335431,0.22905445755755047
5.879,5.75,-0.83,0.8326837975508382,0.41509914586209884,0.617551246200988,0.604726081666239,0.9482592038828697,0.2283128164386011
5.94,5.8,-0.84,0.830236883860284,0.4158622168773938,0.6156486303796032,0.6037074956700889,0.945497559417419,0.22767904046323198
6.003,5.86,-0.69,0.8277843725982184,0.4166318310808609,0.6137829346888154,0.6025714384489348,0.9426822964198512,0.22714944877398813
6.043,5.91,-0.86,0.8253264147307467,0.4174080304089956,0.6119529619099525,0.6013213766944865,0.9398149287767237,0.22672035719535635
6.103,5.97,-0.94,0.8228631566242519,0.41819084389383004,0.6101575022327884,0.5999608001906331,0.936896970398898,0.2263880813544668
6.165,6.02,-0.83,0.8203947401121313,0.4189802876659459,0.6083953344563673,0.5984932188174131,0.9339299342650307,0.22614893976294437
6.206,6.08,-0.85,0.8179213025714197,0.4197763649810043,0.6066652271930298,0.5969221595839543,0.9309153314887934,0.2259992568574851
6.328,6.13,-1.03,0.8154429770093881,0.4205790662685519,0.6049659400746039,0.5952511636927686,0.9278546704103853,0.22593536599670028
6.349,6.19,-0.91,0.8129598921601465,0.4213883692017182,0.6032962249596585,0.5934837836376369,0.924749455712808,0.22595361241184245
6.369,6.24,-0.85,0.8104721725912211,0.4222042387864313,0.6016548271406944,0.5916235803373178,0.9216011875633032,0.22605035610915952
6.409,6.3,-0.99,0.807979938820023,0.4230266274689577,0.600040486550158,0.5896741203073894,0.9184113607802841,0.22622197472181005
6.47,6.35,-1.02,0.8054833074400407,0.4238554752609284,0.5984519389641783,0.5876389728726727,0.9151814640260465,0.22646486630947313
6.533,6.41,-0.86,0.8029823912564947,0.42469070988143187,0.5968879172028921,0.5855217074228813,0.9119129790255138,0.22677545210393305
6.593,6.46,-1.02,0.800477299431149,0.4255322469160497,0.595347152326186,0.5833258907142458,0.9086073798112592,0.2271501791989936
6.695,6.52,-1.11,0.7979681376359444,0.42637998999282994,0.5938283748236551,0.581055084219798,0.905266131995008,0.22758552318310352
6.737,6.57,-0.99,0.7954550082150973,0.4272338309751836,0.5923303157975359,0.5787128415308173,0.9018906920657844,0.22807799071304408
6.756,6.63,-1.02,0.7929380103552794,0.4280936501715965,0.5908517081373614,0.576302705811607,0.8984825067148066,0.22862412202697538
6.839,6.68,-1.2,0.7904172402634335,0.42895931656194725,0.5893912876851032,0.573828207309413,0.8950430121871598,0.22922049339514855
6.859,6.74,-1.11,0.7878927913516721,0.4298306880402154,0.5879477943895081,0.5712928609210983,0.8915736336601858,0.22986371950668338
6.921,6.79,-1.03,0.7853647544286179,0.43070761167344707,0.5865199734482824,0.5687001638182007,0.8880757846484513,0.23055045579096353
6.961,6.85,-1.18,0.7828332178964683,0.43158992397698,0.585106576436737,0.5660535931320848,0.8845508664350802,0.2312774006724187
7.043,6.9,-1.18,0.7802982679530406,0.4324774512060974,0.5837063624214935,0.5633566037010173,0.8810002675291516,0.23204129775770924
7.105,6.96,-1.0,0.7777599887980543,0.4333700096644079,0.5823180990578977,0.5606126258810211,0.8774253631488292,0.23283893795450483
7.147,7.01,-1.12,0.7752184628429618,0.4342674060292612,0.5809405636699263,0.5578250634221815,0.8738275147298737,0.23366716152112796
7.21,7.07,-1.18,0.7726737709236752,0.4351694376944372,0.5795725443115693,0.5549972914116316,0.8702080694591835,0.2345228600463457
7.273,7.12,-1.06,0.7701259925155386,0.43607589313023454,0.5782128408088278,0.5521326542839259,0.8665683598330413,0.23540297835854604
7.315,7.18,-1.09,0.7675752059499047,0.43698655226086625,0.5768602657816073,0.5492344638989485,0.8629097032397793,0.23630451636346192
7.419,7.23,-1.26,0.7650214886317005,0.43790118685875545,0.5755136456448953,0.546305997687017,0.8592334015665901,0.237224530809585
7.439,7.29,-1.16,0.7624649172573922,0.43881956095507185,0.5741718215887053,0.5433504968605143,0.8555407408302163,0.23816013698045307
7.5,7.34,-1.15,0.759905568032748,0.4397414312657831,0.572833650536374,0.5403711646911996,0.851832990831235,0.2391085103130692
7.521,7.4,-1.29,0.7573435168897545,0.4406665476326499,0.5714980060809097,0.5373711648523007,0.8481114048316257,0.2400668879418261
7.582,7.45,-1.32,0.754778839701974,0.44159465347891563,0.5701637793990979,0.5343536198246439,0.8443772192552504,0.24103257016746552
7.622,7.51,-1.16,0.7522116124975591,0.442525486279762,0.5688298801429691,0.5313216093664026,0.8406316534108207,0.24200292185073588
7.685,7.56,-1.32,0.7496419116691402,0.44345877804775363,0.5674952373081084,0.5282781690462889,0.8368759092368656,0.24297537373049996
7.786,7.62,-1.37,0.7470698141798203,0.4443942558334455,0.5661588000781947,0.5252262888400427,0.8331111710681505,0.24394742366607053
7.807,7.67,-1.23,0.7444953977645609,0.4453316422410801,0.5648195386451111,0.5221689117899229,0.829338605422946,0.24491663780351217
7.849,7.73,-1.22,0.7419187411263359,0.4462706559588878,0.5634764450039653,0.5191089327266575,0.8255593608105343,0.2458806516655861
7.911,7.78,-1.43,0.7393399241265347,0.4472110123030593,0.5621285337223737,0.5160491970531259,0.8217745675583116,0.24683717116502943
7.952,7.84,-1.31,0.7367590279691424,0.44815242377418185,0.5607748426832935,0.5129924995891023,0.8179853376578499,0.24778397354094997
8.034,7.89,-1.22,0.7341761353782708,0.44909460062488543,0.5594144338006207,0.5099415834766673,0.8141927646292961,0.24871890821824735
8.075,7.95,-1.35,0.7315913307686043,0.45003725143759393,0.5580463937067311,0.506899139146182,0.8103979234034994,0.24963989759015326
8.178,8.0,-1.36,0.7290047004082871,0.4509800837116081,0.5566698344111326,0.5038678033429699,0.8066018702212533,0.2505449377241754
8.199,8.06,-1.2,0.7264163325737445,0.45192280445911054,0.555283893929407,0.5008501582150231,0.8028056425490783,0.2514320989918376
8.241,8.11,-1.37,0.7238263176959313,0.45286512080987124,0.5538877368816791,0.4978487304620309,0.7990102590110169,0.2522995266226082
8.302,8.17,-1.47,0.7212347484975521,0.45380674062435405,0.5524805550599138,0.49486599054579544,0.795216719335957,0.2531454411823496
8.343,8.22,-1.38,0.71864172012088,0.45474737311464114,0.5510615679633767,0.4919043519617939,0.7914260043200222,0.25396813897652365
8.406,8.28,-1.41,0.7160473302459028,0.455686729472151,0.5496300233016319,0.48896617057130937,0.7876390758035599,0.25476599237830133
8.51,8.33,-1.59,0.7134516791986302,0.45662452350069527,0.5481851974644909,0.48605374399329804,0.7838568766622039,0.2555374500817397
8.53,8.39,-1.5,0.710854870049494,0.4575604722531151,0.5467263959583648,0.48316931105506306,0.7800803308113997,0.25628103728031704
8.572,8.44,-1.41,0.7082570087018898,0.4584942966695805,0.5452529538085473,0.4803150513008344,0.7763103432237104,0.25699535577132276
8.634,8.5,-1.53,0.7056582039710632,0.4594257222155906,0.5437642359270799,0.4774930845574126,0.7725477999581511,0.2576790839868592
8.675,8.55,-1.53,0.7030585676536474,0.4603544795178073,0.5422596374459573,0.47470547055614576,0.7687935682007643,0.2583309769524497
8.736,8.61,-1.36,0.7004582145882006,0.46128030499605555,0.5407385840154879,0.471954208610632,0.7650484963156573,0.2589498661743712
8.778,8.66,-1.49,0.697857262707106,0.46220294148995567,0.5392005320677009,0.46924123734948153,0.7613134139057802,0.259534659456798
8.881,8.72,-1.64,0.6952558330802264,0.4631221388786169,0.5376449690447719,0.4665684345032194,0.7575891318827762,0.26008434064973557
8.901,8.77,-1.52,0.6926540499507611,0.46403765469158204,0.536071413592513,0.4639376167440298,0.7538764425453073,0.2605979693285715
8.962,8.83,-1.54,0.6900520407638482,0.46494925470879533,0.534479415719062,0.46135053957666367,0.7501761196652889,0.2610746804059678
9.023,8.88,-1.73,0.6874499361885466,0.4658567135469502,0.5328685569190299,0.45880889727849783,0.7464889185814454,0.2615136836768608
9.064,8.94,-1.66,0.684847870133843,0.4667598152293699,0.5312384502634897,0.4563143228866085,0.742815576299548,0.261914263297518
9.105,8.99,-1.56,0.6822459797592829,0.4676583537366262,0.5295887404563243,0.4538683882297738,0.7391568115986339,0.2622757771998324
9.167,9.05,-1.68,0.6796444054807377,0.468552133535366,0.5279191038575761,0.45147260400351913,0.735513325142457,0.26259765644226757
9.25,9.1,-1.69,0.6770432909717048,0.46944097008324465,0.5262292484744464,0.44912841988666663,0.7318857995953627,0.26287940449904834
9.271,9.16,-1.5,0.6744427831604384,0.4703246903083129,0.524518913920517,0.44683722469824627,0.7282748997417946,0.26312059648925695
9.353,9.21,-1.62,0.6718430322231796,0.4712031330615099,0.5227878713436999,0.4446003465938414,0.7246812726086839,0.26332087834742895
9.417,9.27,-1.71,0.6692441915737739,0.47207614954101523,0.5210359233234164,0.4424190533004323,0.7211055475900506,0.2634799659371184
9.458,9.32,-1.56,0.666646417849998,0.47294360368715993,0.5192629037375155,0.4402945523886623,0.717548336573247,0.2635976441087217
9.52,9.38,-1.54,0.6640498708969519,0.4738053725464902,0.517468677599508,0.43822799158121956,0.714010234066367,0.26367376570266277
9.602,9.43,-1.73,0.6614547137478596,0.47466134660353976,0.515653140866779,0.43622045909576623,0.7104918173264271,0.2637082504989192
9.623,9.49,-1.73,0.6588611126025626,0.4755114300790408,0.5138162202205093,0.4342729840207266,0.7069936464879857,0.26370108411383314
9.665,9.54,-1.65,0.6562692368039373,0.4763555411935911,0.5119578728180522,0.432386536722292,0.7035162646919435,0.26365231684518026
9.727,9.6,-1.79,0.6536792588124233,0.4771936123961416,0.5100780860185148,0.43056202928115256,0.7000601982142906,0.26356206246663294
9.769,9.65,-1.83,0.6510913541788012,0.47802559055708954,0.5081768770822236,0.42880031595772383,0.6966259565945343,0.26343049697305887
9.83,9.71,-1.66,0.6485057015152356,0.478851437126235,0.506254292844645,0.42710219368493213,0.6932140327634935,0.26325785727839196
9.893,9.76,-1.78,0.6459224824644972,0.47967112825622393,0.5043104093652472,0.4254684025878363,0.6898249031701165,0.2630444398679648
9.975,9.82,-1.9,0.6433418816671916,0.4804846548922722,0.5023453315517211,0.42389962652941077,0.6864590279069764,0.26279059940716865
9.996,9.87,-1.78,0.6407640867267893,0.4812920228289007,0.5003591927599372,0.42239649368169657,0.6831168508341282,0.2624967473081649
10.058,9.93,-1.77,0.638189288172309,0.4820932527341395,0.4983521543700631,0.42095957712121596,0.6797987997010448,0.2621633502562123
10.099,9.98,-1.97,0.6356176794185685,0.4828883801413055,0.4963244053393664,0.4195893954471635,0.67650528626636,0.2617909286971253
10.159,10.04,-1.88,0.6330494567239408,0.48367745540824975,0.49427616173231104,0.4182864134206823,0.6732367064151451,0.2613800552874422
10.221,10.09,-1.78,0.6304848191455262,0.48446054364399843,0.4922076662285755,0.4170510426235844,0.6699934402734555,0.26093135330902195
10.263,10.15,-1.91,0.6279239684915624,0.48523772460299125,0.490119187609624,0.4158836421350811,0.6667758523198893,0.26044549504998715
10.346,10.2,-1.93,0.6253671092707553,0.48600909254764296,0.48801102022441106,0.41478451922537846,0.6635842914939148,0.25992320015414344
10.387,10.26,-1.76,0.6228144486380937,0.4867747560805237,0.48588348343474724,0.41375393006527406,0.6604190913007694,0.2593652339411195
10.428,10.31,-1.89,0.6202661963366543,0.4875348379478095,0.4837369210408735,0.41279208045095633,0.6572805699128121,0.2587724056994446
10.49,10.37,-2.01,0.6177225646349608,0.4882894748156691,0.4815717006878668,0.4118991265430304,0.6541690302672896,0.25814556695465346
10.551,10.42,-1.92,0.6151837682595523,0.4890388170209945,0.47938821325357345,0.41107517561850365,0.6510847601605521,0.2574856097143242
10.612,10.48,-1.96,0.6126500243225563,0.4897830282974483,0.47718687221884865,0.4103202868341784,0.6480280323388168,0.256793464691781
10.738,10.53,-2.11,0.6101215522441918,0.4905222854773521,0.47496811302095393,0.4096344719996827,0.6449991045855785,0.2560700995101431
10.758,10.59,-2.07,0.6075985736701864,0.49125677816966284,0.47273239239100856,0.40901769635832397,0.6419982198057332,0.25531651688848117
10.778,10.64,-1.97,0.6050813123841056,0.49198670841420467,0.4704801876764152,0.40846987937406143,0.6390256061064445,0.25453375281197155
10.819,10.7,-2.13,0.6025699942145586,0.4927122903124611,0.46821199614917264,0.40799089552316437,0.6360814768747344,0.25372287468808896
10.88,10.75,-2.17,0.6000648469371619,0.49343374963556774,0.46592833430088987,0.4075805750895965,0.6331660308517549,0.25288497949101746
10.922,10.81,-2.02,0.5975661001710632,0.49415132341057155,0.4636297371251683,0.40723870496371695,0.6302794522036966,0.2520211918965346
10.983,10.86,-2.12,0.5950739852697917,0.49486525948633703,0.4613167573879423,0.40696502944421464,0.6274219105892986,0.25113266240962756
11.085,10.92,-2.23,0.5925887352062237,0.4955758160805895,0.458989964886366,0.4067592510432111,0.62459356122394,0.2502205654870686
11.106,10.97,-2.12,0.5901105844515058,0.4962832613094777,0.4566499456968483,0.40662103129434307,0.6217945449403031,0.2492860976570955
11.148,11.03,-2.13,0.5876397688478737,0.4969878727007679,0.4542973014128729,0.40654999156344496,0.61902498824563,0.24833047563824306
11.209,11.08,-2.32,0.5851765254753793,0.4976899366914786,0.4519326483732736,0.40654571386126115,0.6162850033756121,0.24735493445934348
11.27,11.14,-2.17,0.582721092512551,0.49838974811061976,0.449556616881644,0.40660774165754615,0.6135746883449411,0.24636072558278957
11.33,11.19,-2.13,0.5802737090909873,0.499087609647726,0.4471698504175457,0.4067355806959928,0.6108941269945599,0.24534911503327755
11.393,11.25,-2.31,0.5778346151438535,0.4997838313080431,0.44477300484016463,0.4069286998096185,0.6082433890356477,0.2443213815343724
11.455,11.3,-2.29,0.5754040512482155,0.5004787298554905,0.44236674758498734,0.40718653173655006,0.605622530090392,0.24327881465531404
11.475,11.36,-2.16,0.5729822584611166,0.5011726282448106,0.43995175685396554,0.40750847393647277,0.6030315917296397,0.24222271297045295
11.538,11.41,-2.26,0.5705694781493035,0.5018658550444672,0.43752872079957156,0.4078938894081718,0.6004706015075524,0.24115438223360708
11.579,11.47,-2.37,0.5681659518125393,0.5025587438518131,0.4350983367031366,0.4083421075085505,0.5979395729934166,0.24007513356951363
11.641,11.52,-2.26,0.5657719209005252,0.503251632701812,0.4326613101478809,0.4088524247733537,0.5954385058007886,0.23898628168440322
11.702,11.58,-2.3,0.563387626623556,0.5039448634702203,0.43021835418709137,0.4094241057395763,0.5929673856141934,0.23788914309758785
11.743,11.63,-2.44,0.5610133097571243,0.5046387812717785,0.4277701885079596,0.4100563837692687,0.5905261842136081,0.23678503439591003
11.825,11.69,-2.29,0.5586492104406923,0.5053337338538276,0.4253175385916442,0.4107484618742499,0.5881148594969504,0.23567527051297843
11.865,11.74,-2.23,0.5562955679708209,0.5060300709858425,0.4228611348702363,0.4114995135411522,0.5857333555007948,0.2345611630352543
11.968,11.8,-2.39,0.5539526205888045,0.5067281438456196,0.420401711881513,0.41230868355621586,0.5833816024195557,0.2334440185372016
11.989,11.85,-2.42,0.5516206052629394,0.5074283044031961,0.4179400074225556,0.4131750888294323,0.581059516623438,0.23232513694780044
12.05,11.91,-2.25,0.5492997574655628,0.508130904803905,0.4154767617034164,0.41409781921791616,0.578767000675538,0.23120580995069054
12.113,11.96,-2.4,0.5469903109450683,0.5088362967521118,0.4130127165020721,0.4150759383485283,0.5765039433485574,0.2300873194201022
12.175,12.02,-2.47,0.5446924974931865,0.5095448308971313,0.4105486143219347,0.41610848443968734,0.5742702196416198,0.22897093589459055
12.196,12.07,-2.31,0.5424065467078979,0.5102568562226337,0.40808519755318795,0.41719447112207314,0.5720656907977114,0.22785791709039377
12.257,12.13,-2.35,0.5401326857524255,0.5109727194405859,0.40562320763925486,0.4183328882576549,0.5698902043223003,0.22674950645599798
12.298,12.18,-2.51,0.5378711391108245,0.5116927643904929,0.4031633842497486,0.4195227027562213,0.5677435940037288,0.22564693176929268
12.359,12.24,-2.37,0.535622128340746,0.5124173314445235,0.40070646446131986,0.4207628593884669,0.5656256799360094,0.22455140377856697
12.42,12.29,-2.34,0.5333858718239923,0.5131467569190437,0.39825318194788045,0.42205228159468366,0.5635362685447198,0.2234641148885186
12.46,12.35,-2.54,0.5311625845155125,0.5138813724931275,0.3958042661817391,0.4233898722882506,0.5614751526167394,0.22238623789243273
12.544,12.4,-2.55,0.5289524776914879,0.5146215046347531,0.39336044164716916,0.4247745146534565,0.5594421113346103,0.22131892475170756
12.604,12.46,-2.46,0.5267557586971517,0.5153674740356072,0.39092242706787245,0.42620507293760496,0.5574369103163425,0.22026330542391323
12.625,12.51,-2.63,0.5245726306949783,0.5161195950556021,0.38849093464976286,0.4276803932375656,0.5554593016614763,0.2192204867405574
12.687,12.57,-2.67,0.5224032924138675,0.5168781751783224,0.38606666934045125,0.4291993042808911,0.553509024004161,0.21819155133571064
12.75,12.62,-2.55,0.5202479378999337,0.5176435144786007,0.3836503281067171,0.43076061820145994,0.5515858025739335,0.2171775566265527
12.813,12.68,-2.59,0.5181067562694942,0.5184159051032408,0.3812425992311241,0.43236313130942394,0.5496893492648213,0.21617953384671823
12.855,12.73,-2.8,0.5159799314648256,0.5191956307656396,0.3788441616287912,0.4340056248550956,0.547819362713342,0.215198487133074
12.917,12.79,-2.67,0.5138676420131982,0.5199829662548342,0.37645568418517816,0.43568686578636806,0.5459755283859496,0.21423539266627972
12.979,12.84,-2.63,0.5117700607896207,0.520778176959344,0.374077825115611,0.43740560749930946,0.5441575186764596,0.21329119786521777
13.042,12.9,-2.82,0.5096873547836653,0.5215815184060614,0.37171123134717643,0.439160590581716,0.5423649930139491,0.21236682063520776
13.083,12.95,-2.8,0.5076196848706731,0.5223932358144949,0.3693565379234952,0.44095054354972607,0.5405975979815784,0.21146314866984964
13.145,13.01,-2.68,0.5055672055875585,0.5232135636668852,0.36701436743276483,0.44277418357801235,0.5388549674467471,0.21058103880628118
13.207,13.06,-2.86,0.5035300649133558,0.5240427252950386,0.36468532945940785,0.4446302172243635,0.5371367227029779,0.2097213164335849
13.31,13.12,-2.92,0.5015084040545561,0.5248809324850437,0.36237002005964214,0.4465173411495227,0.5354424726238737,0.2088847749540214
13.33,13.17,-2.77,0.4995023572352169,0.5257283851012108,0.3600690212612626,0.4484342428330404,0.5337718138294575,0.20807217529667013
13.35,13.23,-2.8,0.4975120514918135,0.5265852707305193,0.3577829005878906,0.45037960128567583,0.5321243308651522,0.2072842454829214
13.412,13.28,-2.98,0.49553760647281353,0.5274517643486497,0.35551221060790034,0.45235208775866526,0.530499596393606,0.20652168024314346
13.474,13.34,-2.84,0.4935791342429722,0.5283280280084532,0.35325748850813693,0.45435036645005983,0.5288971713995293,0.20578514068373568
13.536,13.39,-2.85,0.4916367390923833,0.5292142105514968,0.3510192556924709,0.45637309520829605,0.5273166054077134,0.20507525400367893
13.557,13.45,-3.05,0.4897105173503897,0.5301104473430944,0.34879801740521593,0.45841892623312336,0.5257574367143891,0.20439261325965927
13.659,13.5,-3.01,0.48780055720452825,0.5310168600310871,0.3465942623794286,0.4604865067740673,0.5242191926320477,0.20373777717887762
13.68,13.56,-2.91,0.48590693852475414,0.5319335563285539,0.34440846251012197,0.46257447982670213,0.5227013897478002,0.20311127001870186
13.742,13.61,-3.05,0.48402973269324384,0.5328606298206378,0.3422410725524707,0.4646814848270503,0.5212035341952658,0.20251358147237064
13.784,13.67,-3.1,0.482169002440087,0.5337981597957767,0.34009252984508725,0.46680615834442185,0.5197251219398894,0.20194516662000697
13.844,13.72,-2.9,0.4803248016851231,0.5347462111018115,0.3379632540583664,0.46894713477301686,0.5182656390775121,0.20140644592418636
13.906,13.78,-2.96,0.47849717538610576,0.5357048340275392,0.3358536469677722,0.47110304702260103,0.5168245621459799,0.20089780526921336
13.946,13.83,-3.13,0.4766861593933195,0.5366740642102463,0.3337640922517886,0.4732725272085464,0.5154013584495538,0.20041959604312568
14.029,13.89,-3.02,0.47489178031071233,0.5376539225696947,0.33169495531409315,0.47545420734157195,0.513995486395893,0.19997213526130014
14.071,13.94,-2.97,0.4731140553635888,0.5386444152689415,0.3296465831294034,0.47764672001756164,0.5126063958454131,0.19955570573042322
14.113,14.0,-3.17,0.4713529922729385,0.5396455337022429,0.32761930411243473,0.47984869910781297,0.5112335284728041,0.19917055625160499
14.176,14.05,-3.12,0.4696085891365471,0.5406572545101239,0.3256134280094434,0.4820587804500387,0.5098763181404574,0.19881690186154272
14.237,14.11,-3.01,0.4678808343171393,0.5416795396214997,0.32362924581190783,0.48427560254042745,0.5085341912835077,0.19849492411078803
14.279,14.16,-3.19,0.4661697063378933,0.5427123363225835,0.3216670296920213,0.4864978072269938,0.5072065673061453,0.1982047713782991
14.339,14.22,-3.18,0.464475173785702,0.5437555773523046,0.3197270329597445,0.4887240404043297,0.5058928589887965,0.19794655922154789
14.401,14.27,-2.96,0.4627971952225125,0.5448091810240471,0.31780949004116,0.49095295270974937,0.5045924729057125,0.19772037076144613
14.442,14.33,-3.04,0.4611357191050263,0.5458730513735449,0.315914616477805,0.4931832002206771,0.5033048098524824,0.19752625710121718
14.524,14.38,-3.16,0.45949068371298557,0.5469470783326488,0.31404260894657565,0.4954134451529684,0.5020292652829773,0.19736423777810677
14.565,14.44,-3.03,0.45786201708624474,0.5480311379284446,0.31219364529973137,0.49764235655974787,0.5007652297552918,0.1972343012465158
14.627,14.49,-3.04,0.4562496369708531,0.5491250925068891,0.3103678846245401,0.4998686110302341,0.4995120893863271,0.1971364053908485
14.668,14.55,-3.25,0.45465345077442576,0.5502287909798383,0.3085654673221985,0.5020908933879052,0.4982692263147092,0.19707047806623026
14.77,14.6,-3.17,0.4530733555311009,0.5513420690942469,0.30678651520576,0.5043078973872984,0.4970360191717278,0.19703641766530589
14.811,14.66,-3.07,0.4515092378763595,0.5524647497224388,0.30503113161689666,0.5065183264087482,0.49581184355995045,0.19703409370950697
14.832,14.71,-3.22,0.44996097403194796,0.5535966431725962,0.3032994015613935,0.5087208941504113,0.494596072539099,0.1970633474634261
14.894,14.77,-3.25,0.44842842980108766,0.5547375475189253,0.30159139186328593,0.5109143253170569,0.493388077118697,0.19712399257117538
14.934,14.82,-3.08,0.44691146057412934,0.5558872489511819,0.2999071513374732,0.5130973563052794,0.49218722675695403,0.1972158157137319
14.996,14.88,-3.17,0.44540991134482705,0.5570455221432298,0.29824671098054334,0.5152687358849155,0.4909928898653264,0.1973385772862647
15.057,14.93,-3.26,0.44392361673746134,0.5582121306400663,0.2966100841794281,0.5174272258764226,0.48980443431817455,0.1974920120943485
15.119,14.99,-3.13,0.44245240104510597,0.5593868272623406,0.29499726693738004,0.5195716018239164,0.48862122796693613,0.19767583006780562
15.16,15.04,-3.09,0.4409960782794107,0.5605693545269173,0.2934082381166782,0.5217006536634126,0.4874426391582535,0.19788971699072963
15.221,15.1,-3.27,0.4395544522323245,0.5617594450816188,0.29184295969743057,0.5238131863855918,0.48626803725549816,0.19813333524613533
15.282,15.15,-3.17,0.4381273165501876,0.5629568221520858,0.29030137705181974,0.5259080206922742,0.4850967931631467,0.19840632457367952
15.344,15.21,-3.07,0.4367144548205893,0.5641611999987457,0.28878341923309875,0.5279839936458528,0.48392827985348486,0.1987083028389523
15.427,15.26,-3.23,0.4353156406723533,0.5653722843821272,0.28728899927858415,0.5300399593112033,0.48276187289513794,0.19903886681293742
15.447,15.32,-3.21,0.4339306378889594,0.56658977303514,0.2858180145257932,0.5320747893900012,0.48159695098293454,0.19939759296037293
15.488,15.37,-3.05,0.4325592005356686,0.5678133561413342,0.28437034694078617,0.5340873738477689,0.4804328964686367,0.1997840382358345
15.549,15.43,-3.21,0.431201073100621,0.569042716818355,0.28294586345776707,0.536076621534121,0.4792690958920971,0.20019774088638378
15.611,15.48,-3.31,0.4298559906502046,0.5702775316057966,0.28154441632905663,0.5380414607965573,0.4781049405124265,0.20063822125959166
15.674,15.54,-3.19,0.428523678999024,0.5715174709564891,0.2801658434846053,0.5399808400879273,0.47693982683876224,0.20110498261567752
15.714,15.59,-3.21,0.4272038548948309,0.5727621997299569,0.2788099689002814,0.5418937285674192,0.47577315716022517,0.20159751194245704
15.776,15.65,-3.39,0.4258962262188004,0.574011377686506,0.27747660297423626,0.5437791166946829,0.47460434007458857,0.20211528077183596
15.86,15.7,-3.26,0.4246004922015032,0.5752646599802596,0.27616554291068657,0.5456360168165449,0.4734327910151104,0.20265774599673167
15.88,15.76,-3.21,0.4233163436548449,0.5765216976495205,0.27487657311048475,0.5474634637457586,0.4722579327749259,0.20322435068750513
15.941,15.81,-3.35,0.4220434632201105,0.5777821381030933,0.27360946556788523,0.5492605153312983,0.47107919602834425,0.20381452490723195
16.004,15.87,-3.34,0.4207815256320599,0.5790456256016435,0.27236398027292963,0.551026253019899,0.4698960198483563,0.2044276865253824
16.065,15.92,-3.18,0.4195301979988064,0.5803118017337257,0.27113986561887277,0.5527597824087852,0.4687078522196409,0.20506324202963394
16.126,15.98,-3.35,0.41828914009703777,0.5815803058865733,0.269936858814106,0.5544602337896464,0.46751415054635437,0.20572058733560328
16.147,16.03,-3.41,0.41705800468204496,0.5828507757119967,0.2687546862980805,0.5561267626838676,0.4663143821539762,0.20639910859429778
16.23,16.09,-3.26,0.41583643781201,0.5841228475877208,0.26759306416076234,0.5577585503688666,0.465108024784482,0.20709818299705998
16.292,16.14,-3.27,0.4146240791860402,0.585396157074217,0.26645169856518064,0.5593548043951844,0.4638945670841042,0.20781717957775625
16.333,16.2,-3.36,0.41342056249546544,0.5866703393667534,0.26533028617265353,0.5609147590937835,0.46267350908291005,0.20855546001200562
16.375,16.25,-3.2,0.4122255157878737,0.5879450297421612,0.2642285145702814,0.5624376760729108,0.4614443626654092,0.2093123794133177
16.459,16.31,-3.2,0.4110385618433083,0.5892198639997148,0.2631460627003357,0.5639228447038953,0.46020665203144057,0.2100872871260348
16.479,16.36,-3.38,0.4098593185620046,0.5904944788955231,0.2620826012912287,0.5653695825952828,0.45895991414664616,0.21087952751495487
16.542,16.42,-3.36,0.40868739936298754,0.5917685125700141,0.2610377932897744,0.5667772360548352,0.4577036991819198,0.21168844075147564
16.603,16.47,-3.21,0.40752241359277025,0.5930416049684117,0.2600112942944434,0.5681451805390646,0.45643757094125786,0.212513363596066
16.644,16.53,-3.34,0.4063639669433225,0.594313398254415,0.25900275298932224,0.5694728210900136,0.45516110727744313,0.21335363017686784
16.724,16.58,-3.31,0.405211661878409,0.5955835372175261,0.2580118115784939,0.5707595927589226,0.4538739004949453,0.21420857276424352
16.765,16.64,-3.12,0.40406509806732355,0.5968516696746237,0.25703810622054307,0.5720049610162822,0.4525755577394165,0.21507752254101384
16.826,16.69,-3.21,0.4029238728250007,0.5981174468663618,0.2560812674628543,0.5732084221475914,0.45126570137319627,0.21595981036793951
16.887,16.75,-3.3,0.40178758155747596,0.5993805238487958,0.2551409206753511,0.5743695036339131,0.4499439693363325,0.21685476754373273
16.97,16.8,-3.16,0.4006558182117023,0.6006405598803327,0.2542166864833163,0.5754877645161246,0.44861001549274043,0.21776172655861747
16.99,16.86,-3.13,0.39952817572886157,0.6018972188036724,0.25330818119899506,0.5765627957415869,0.44726350996124653,0.21868002184027088
17.031,16.91,-3.33,0.3984042465005186,0.6031501694219762,0.2524150172517952,0.5775942204918252,0.4459041394313429,0.21960899049095195
17.092,16.97,-3.28,0.39728362282718943,0.6043990858682012,0.25153680361697633,0.5785816944898422,0.4445316074635395,0.2205479730147112
17.156,17.02,-3.23,0.3961658973790723,0.6056436479664423,0.2506731462427325,0.5795249062858849,0.4431456347742485,0.2214963140336822
17.195,17.08,-3.39,0.3950506636587936,0.606883541584183,0.24982364847554173,0.5804235775207324,0.4417459595051425,0.22245336299257007
17.258,17.13,-3.42,0.3939375164660153,0.6081184589745731,0.24898791148358668,0.5812774631658101,0.44033233747688444,0.22341847485056343
17.339,17.19,-3.2,0.3928260523636697,0.6093480991081243,0.24816553467795505,0.5820863517396495,0.4389045424270619,0.22439101075996545
17.359,17.24,-3.27,0.3917158701454942,0.6105721679933573,0.2473561161312371,0.582850065500316,0.4374623662320922,0.22537033873085519
17.441,17.3,-3.39,0.3906065713044733,0.6117903789858792,0.24655925299306328,0.5835684606134306,0.43600561911283914,0.22635583428106462
17.481,17.35,-3.25,0.38949776050176993,0.613002453085153,0.24577454190207093,0.5842414272953665,0.4345341298237095,0.22734688107066206
17.523,17.41,-3.25,0.3883890460357714,0.6142081192179086,0.24500157939380574,0.5848688899311111,0.433047745825081,0.22834287151999497
17.584,17.46,-3.45,0.38728004031091834,0.6154071145068634,0.2442399623041403,0.5854508071661721,0.4315463334389816,0.2293432074102763
17.645,17.52,-3.39,0.3861703603059913,0.6165991845233272,0.243489288167837,0.585987171971958,0.4300297779879723,0.23034730046575239
17.728,17.57,-3.31,0.3850596280414903,0.617784083522367,0.24274915561188481,0.586478011684279,0.4284979839172001,0.23135457291664488
17.749,17.63,-3.46,0.3839474710456861,0.6189615746594418,0.24201916474325477,0.586923388014901,0.42695087489955674,0.2323644580422928
17.811,17.68,-3.47,0.3828335228188271,0.6201314301877884,0.24129891753072263,0.5873233970363447,0.42538839392382494,0.23337640069417315
17.852,17.74,-3.3,0.38171742329489555,0.6212934316362422,0.24058801818041387,0.5876781691403163,0.4238105033656528,0.23438985779863125
17.913,17.79,-3.44,0.38059881930026274,0.6224473699674611,0.23988607350476104,0.5879878689701343,0.42221718504117145,0.23540429883916644
17.975,17.85,-3.5,0.37947736500860785,0.6235930457166253,0.2391926932846375,0.5882526953272883,0.42060844024306154,0.2364192063180465
18.077,17.9,-3.35,0.3783527223915257,0.6247302691105896,0.23850749062450669,0.5884728810519294,0.41898428975888413,0.23743407619690785
18.097,17.96,-3.35,0.377224561664348,0.6258588601672206,0.2378300823005183,0.588648692876761,0.41734477387151475,0.23844841831589939
18.137,18.01,-3.5,0.37609256172679073,0.6269786487743596,0.23716008910153336,0.5887804312536313,0.4156899523415381,0.23946175679092632
18.198,18.07,-3.36,0.37495641059806006,0.6280894747477416,0.23649713616301446,0.5888684301522785,0.4140199043715015,0.24047363038863795
18.239,18.12,-3.3,0.37381580584602014,0.6291911878672836,0.23584085329359775,0.5889130568310823,0.4123347285519816,0.24148359287891483
18.3,18.18,-3.44,0.3726704550099989,0.6302836478913849,0.23519087529404126,0.5889147115801625,0.41063454278948486,0.24249121336472793
18.361,18.23,-3.43,0.37152007601678205,0.6313667245492044,0.23454684226811498,0.5888738274376474,0.408919484216257,0.24349607658934772
18.423,18.29,-3.26,0.37036439758932904,0.6324402975112373,0.2339083999248972,0.5887908698803348,0.4071897090821509,0.24449778322091248
18.463,18.34,-3.39,0.3692031596477178,0.633504256338816,0.23327519987193238,0.5886663364901052,0.40544539262876816,0.24549595011432326
18.526,18.4,-3.49,0.3680361137017859,0.6345585004133749,0.232646899898778,0.58850075659727,0.4036867289461471,0.24649021055033832
18.609,18.45,-3.34,0.3668630232349065,0.6356029388464154,0.23202316425056113,0.5882946909016784,0.40191393081233007,0.24748021445158844
18.63,18.51,-3.37,0.3656836640783419,0.6366374903710345,0.23140366389126726,0.5880487310719903,0.40012722951620594,0.24846562857507853
18.692,18.56,-3.53,0.3644978247756223,0.6376620832157865,0.23078807675656257,0.5877634993231514,0.39832687466404676,0.2494461366806707
18.756,18.62,-3.42,0.3633053069363566,0.6386766549616287,0.23017608799597727,0.5874396479719093,0.39651313397017013,0.250421439675049
18.818,18.67,-3.41,0.36210592557882937,0.639681152382829,0.2295673902042857,0.587077858970161,0.3946862930321775,0.2513912557307018
18.84,18.73,-3.6,0.3608995094607132,0.6406755312728374,0.2289616836419227,0.5866788434160004,0.39284665509122585,0.25235532037952824
18.899,18.78,-3.59,0.3596859013972267,0.6416597562562869,0.22835867644423297,0.5862433410425518,0.39099454077777573,0.25331338658077285
18.962,18.84,-3.44,0.35846495856608607,0.6426338005884439,0.22775808481929913,0.585772119684956,0.38913028784322884,0.2542652247631095
19.024,18.89,-3.6,0.3572365527986376,0.6435976459435484,0.22715963323409014,0.5852659747259888,0.38725425087781756,0.25521062284081847
19.065,18.95,-3.64,0.3560005708566017,0.6445512821935238,0.2265630545887148,0.5847257285207316,0.385366801015053,0.25614938620413286
19.168,19.0,-3.51,0.3547569146938991,0.6454947071784419,0.22596809037859977,0.5841522298005754,0.38346832562300714,0.25708133768388153
19.188,19.06,-3.61,0.3535055017030914,0.646427926469857,0.22537449084443073,0.583546353056687,0.38155922798270203,0.2580063174905307
19.228,19.11,-3.74,0.3522462649460248,0.6473509531277224,0.22478201510969123,0.5829089979029551,0.37963992695387117,0.2589241831276911
19.31,19.17,-3.63,0.35097915336827534,0.6482638074512932,0.22419043130559543,0.5822410884184276,0.3777108566283415,0.2598348092801651
19.351,19.22,-3.58,0.34970413199698913,0.6491665167242398,0.2235995166832285,0.581543572469273,0.3757724659712538,0.2607380876766751
19.392,19.28,-3.77,0.3484211821216723,0.650059114954218,0.2230090577128167,0.5808174210102303,0.3738252184502989,0.2616339269275634
19.455,19.33,-3.74,0.3471303014574279,0.650941642607353,0.22241885017021729,0.5800636273654279,0.37186959165310535,0.26252225233794285
19.535,19.39,-3.61,0.345831504290055,0.6518141463384259,0.22182869921089443,0.5792832064884046,0.36990607689290134,0.26340300569692976
19.557,19.44,-3.76,0.344524821602329,0.6526766787179296,0.22123841943181888,0.5784771942011148,0.3679351788025577,0.26427614504370894
19.64,19.5,-3.79,0.3432103011806508,0.6535292979575386,0.22064783492183673,0.5776466464116683,0.36595741491708716,0.2651416444112736
19.68,19.55,-3.62,0.3418880077010937,0.6543720676358799,0.22005677930107942,0.5767926383105383,0.3639733152446602,0.26599949354870017
19.721,19.61,-3.7,0.3405580227937749,0.655205056426598,0.21946509574994394,0.5759162635450173,0.3619834218261956,0.2668496976227794
19.783,19.66,-3.81,0.3392204450844497,0.6560283378306131,0.21887263702804305,0.5750186333718469,0.35998828828359336,0.26769227689977826
19.845,19.72,-3.69,0.337875390212272,0.656841989914157,0.21827926548333976,0.5741008757882182,0.3579884793567096,0.26852726640806607
19.907,19.77,-3.66,0.33652299082279546,0.6576460950537762,0.21768485305154736,0.5731641346415378,0.35598457042920945,0.2693547155822904
19.967,19.83,-3.8,0.3351633965354487,0.6584407396890619,0.2170892812458503,0.5722095687183683,0.35397714704346595,0.27017468788979704
20.008,19.88,-3.67,0.3337967738848859,0.6592260140835853,0.21649244113702634,0.5712383508129353,0.3519668044046882,0.2709872604400394
20.089,19.94,-3.61,0.33242330623577093,0.660002012094374,0.21589423332409693,0.5702516667756078,0.3499541468745064,0.2717925235777707
20.151,19.99,-3.75,0.33104319367070867,0.6607688309502499,0.21529456789570497,0.569250714541811,0.3479397874542943,0.2725905804608277
20.172,20.05,-3.8,0.32965665285114226,0.6615265710394773,0.2146933643824495,0.5682367031419265,0.3459243472585849,0.2733815466233107
20.253,20.1,-3.65,0.32826391685111445,0.6622753357073364,0.2140905517003997,0.5672108516928572,0.3439084549790072,0.2741655495249116
20.294,20.16,-3.78,0.32686523496387393,0.6630152310642825,0.21348606808599194,0.5661743883719625,0.34189274633921785,0.274942728087064
20.355,20.21,-3.88,0.3254608724814174,0.6637463658052365,0.21287986102249631,0.5651285493739675,0.3398778635413013,0.2757132322164974
20.417,20.27,-3.76,0.3240511104471616,0.664468851040298,0.21227188715821302,0.5640745778512962,0.3378644547040976,0.276477222316646
20.457,20.32,-3.77,0.3226362453820401,0.665182800136842,0.2116621122165449,0.5630137228381183,0.33585317329390224,0.27723486878723297
20.517,20.38,-3.96,0.32121658898438826,0.6658883285726284,0.21105051089811375,0.5619472381582843,0.333844677547952,0.27798635151232154
20.578,20.43,-3.85,0.3197924678040157,0.666585553799336,0.210437066775093,0.5608763813173561,0.33183962989107463,0.27873185933722844
20.661,20.49,-3.78,0.31836422289087773,0.6672745951158678,0.2098217721779328,0.5598024123791185,0.3298386963458603,0.2794715895348851
20.682,20.54,-3.88,0.3169322094187603,0.6679555735508899,0.20920462807465348,0.558726592827246,0.3278425459366838,0.2802057472624835
20.723,20.6,-3.85,0.3154967962843648,0.6686286117544031,0.208585643942852,0.5576501844132341,0.32585185008789874,0.28093454500949283
20.765,20.65,-3.68,0.3140583656821622,0.6692938338985275,0.2079648376345024,0.5565744479921927,0.323867282016551,0.2816582020382722
20.828,20.71,-3.85,0.31261731265546994,0.6699513655878631,0.20734223523360953,0.5555006423483528,0.32188951612003314,0.2823769438184818
20.889,20.76,-3.97,0.3111740446243409,0.6706013337797312,0.20671787090679103,0.5544300230121111,0.3199192273591855,0.2830910014563465
20.93,20.82,-3.81,0.3097289808910079,0.6712438667143802,0.20609178674689468,0.5533638410702183,0.3179570906374429,0.28380061111961563
21.014,20.87,-3.83,0.3082825521237453,0.6718790938549368,0.2054640326098064,0.552303341970445,0.3160037801766692,0.28450601345890136
21.056,20.93,-4.01,0.30683519982007723,0.6725071458365993,0.20483466594464317,0.551249764321823,0.3140599688903126,0.2852074530260586
21.116,20.98,-3.85,0.30538737575028263,0.6731281544243777,0.20420375161752666,0.5502043386915036,0.312126327754484,0.2859051776903353
21.198,21.04,-3.79,0.3039395413821439,0.673742252478611,0.2035713617291267,0.5491682863993291,0.3102035251775603,0.2865994380530826
21.219,21.09,-3.97,0.3024921672879001,0.674349573927502,0.20293757542619154,0.5481428183113565,0.30829222636893544,0.2872904868618666
21.26,21.15,-3.99,0.3010457325343693,0.6749502537460532,0.20230247870728657,0.5471291336338198,0.3063930927075801,0.28797857842487
21.362,21.2,-3.88,0.29960072405721705,0.6755444279409828,0.20166616422297753,0.5461284187093267,0.30450678111111734,0.28866396802649474
21.383,21.26,-4.05,0.29815763602036777,0.6761322335413962,0.2010287310707487,0.5451418458172507,0.30263394340615046,0.2893469113451205
21.445,21.31,-4.1,0.2967169691615706,0.6767138085951305,0.2003902845850261,0.5441705719802595,0.30077522570055276,0.2900276638740846
21.507,21.37,-3.92,0.29527923012515606,0.6772892921707607,0.1997509361227351,0.5432157377787613,0.29893126775837514,0.29070648034706886
21.568,21.42,-3.94,0.2938449307830728,0.677858824365172,0.19911080284487293,0.5422784661747831,0.29710270237797703,0.2913836141691552
21.589,21.48,-4.07,0.29241458754533967,0.6784225463164055,0.19847000749459134,0.5413598613465499,0.2952901547739445,0.2920593168548311
21.649,21.53,-3.91,0.290988720661064,0.6789806002213241,0.1978286781722288,0.5404610075349152,0.2934942419633797,0.2927338374741757
21.752,21.59,-3.92,0.28956785351121017,0.6795331293574914,0.19718694810764595,0.5395829679028601,0.29171557215722266,0.2934074221083452
21.772,21.64,-4.07,0.2881525118943695,0.6800802781085629,0.19654495543015274,0.5387267834094708,0.2899547441573547,0.2940803133153918
21.812,21.7,-3.98,0.28674322330686147,0.6806221919924755,0.19590284293624105,0.5378934717002128,0.28821234676031243,0.2947527496074097
21.892,21.75,-3.89,0.28534051621853795,0.6811590176918728,0.19526075785527852,0.5370840260158203,0.28648895816850045,0.2954249649399783
21.954,21.81,-4.08,0.2839449193456663,0.6816909030864543,0.19461885161330875,0.5362994141224984,0.28478514540984495,0.2960971882148535
21.995,21.86,-4.14,0.2825569609222094,0.6822179972872673,0.193977279595119,0.5355405772663017,0.28310146376685835,0.296769642796821
22.057,21.92,-3.98,0.2811771679707245,0.6827404506733058,0.1933362009047519,0.5348084291544986,0.28143845621612035,0.2974425460455481
22.098,21.97,-4.08,0.2798060655740122,0.683258414930973,0.1926957781246895,0.5341038549664949,0.27979665287917815,0.2981161088631805
22.158,22.03,-4.22,0.2784441761485691,0.6837720430969702,0.19205617707399705,0.5334277103965284,0.27817657048583594,0.29879053525837557
22.199,22.08,-4.12,0.2770920187208471,0.6842814896050096,0.19141756656573608,0.5327808207300035,0.2765787118507596,0.29946602192740696
22.262,22.14,-4.14,0.2757501082073254,0.684786910336441,0.19078011816398427,0.532163979955059,0.27500356536430026,0.30014275785292616
22.323,22.19,-4.35,0.274418954699486,0.6852884626744551,0.1901440059408377,0.5315779499107367,0.27345160449839523,0.30082092392097753
22.384,22.25,-4.28,0.2730990627549177,0.6857863055611433,0.18950940623381576,0.5310234594730378,0.2719232873283275,0.30150069255694667
22.465,22.3,-4.23,0.2717909306959318,0.6862805995564495,0.1888764974041294,0.5305012037801671,0.27041905607104294,0.3021822273812106
22.506,22.36,-4.38,0.2704950499171867,0.686771506898002,0.18824545959633024,0.5300118434982705,0.26893933664062336,0.30286568288532834
22.527,22.41,-4.38,0.26921190420380614,0.6872591915609991,0.18761647449988053,0.5295560041289625,0.26748453822139845,0.30355120412964187
22.589,22.47,-4.2,0.26794196906136913,0.6877438193175985,0.18698972511314696,0.529134275359911,0.2660550528590939,0.3042389264630867
22.652,22.52,-4.31,0.2666857110590388,0.688225557795396,0.18636539551028591,0.5287472104595947,0.26465125507035225,0.3049289752658387
22.693,22.58,-4.41,0.26544358718702327,0.6887045765345216,0.18574367061146704,0.5283953257170587,0.2632735014709317,0.3056214657151881
22.775,22.63,-4.3,0.26421604422951117,0.6891810470427319,0.18512473595687695,0.5280790999271443,0.2619221304229018,0.30631650257476745
22.878,22.69,-4.32,0.2630035181542095,0.6896551428476664,0.18450877748499414,0.5277989739212791,0.2605974617011879,0.30701418000703457
22.899,22.74,-4.5,0.2618064335196158,0.6901270395452583,0.18389598131570548,0.5275553501435307,0.25929979617981375,0.30771458140881786
22.941,22.8,-4.43,0.260625202901162,0.6905969148431761,0.18328653353887325,0.5273485922713989,0.258029415538155,0.3084177792697662
22.983,22.85,-4.34,0.25946022633738014,0.691064948598188,0.18268062000893096,0.527179024880815,0.2567865819874642,0.30912383505365604
23.045,22.91,-4.48,0.2583118907972176,0.6915313228465436,0.18207842614602046,0.527046933154968,0.25557153801785404,0.3098327991026622
23.107,22.96,-4.5,0.25718056966955316,0.6919962218268353,0.18148013674406668,0.5269525626368687,0.25438450616585334,0.3105447105648497
23.149,23.02,-4.37,0.25606662227583243,0.6924598319952556,0.18088593578604592,0.526896119025891,0.2532256888026039,0.3112595973451868
23.233,23.07,-4.49,0.2549703934066318,0.6929223420334343,0.18029600626659667,0.5268777680186532,0.2520952679427413,0.31197747608030185
23.254,23.13,-4.58,0.25389221288288527,0.6933839428490838,0.17971053002204582,0.5268976351945145,0.2509934050739663,0.3126983521370619
23.316,23.18,-4.41,0.2528323951424814,0.6938448275694843,0.1791296875678357,0.52695580594576,0.2499202410072736,0.31342221963487427
23.356,23.24,-4.39,0.25179123885294624,0.6943051915274822,0.17855365794325506,0.5270523254523755,0.24887589574777,0.31414906149142274
23.417,23.29,-4.57,0.25076902655091615,0.6947652322393281,0.17798261856329942,0.5271871987011961,0.24786046838597323,0.31487884949139294
23.5,23.35,-4.42,0.249766024309011,0.6952251493735644,0.17741674507740815,0.5273603905492715,0.24687403700948063,0.31561154437761507
23.52,23.4,-4.38,0.2487824814305489,0.6956851447103715,0.17685621123478398,0.5275718258314359,0.24591665863491977,0.3163470959639639
23.582,23.46,-4.5,0.24781863017233838,0.6961454220911972,0.17630118875602557,0.5278213895122028,0.24498836916013528,0.3170854432693408
23.624,23.51,-4.49,0.24687468549556876,0.6966061873590209,0.1757518472108508,0.5281089268821935,0.24408918333658208,0.31782651467212003
23.684,23.57,-4.37,0.245950844844654,0.6970676482900598,0.17520835390171022,0.5284342437993655,0.2432190947619244,0.31857022808447855
23.744,23.62,-4.49,0.2450472879537892,0.697530014517962,0.17467087375310844,0.5287971069752726,0.24237807589286514,0.3193164911460186
23.806,23.68,-4.54,0.244164176680965,0.6979934974515037,0.17413956920643653,0.5291972443064824,0.24156607807823535,0.3200652014360389
23.887,23.73,-4.4,0.24330165486921196,0.6984583101865941,0.17361460012005434,0.5296343452511625,0.24078303161237846,0.32081624670368986
23.95,23.79,-4.42,0.24245984823489475,0.6989246674130651,0.17309612367429272,0.5301080612506909,0.24002884580886646,0.3215695051150802
23.969,23.84,-4.57,0.24163886428287334,0.6993927853164207,0.17258429428098496,0.5306180061959432,0.23930340909457803,0.3223248455162356
24.011,23.9,-4.44,0.24083879224827537,0.6998628814745635,0.1720792634970765,0.5311637569377824,0.23860658912417884,0.3230821277106745
24.137,23.95,-4.37,0.24005970306452612,0.7003351747494524,0.17158117994178743,0.5317448538412614,0.23793823291506538,0.32384120275025735
24.157,24.01,-4.56,0.23930164935721351,0.7008098851736502,0.17109018921674662,0.5323608013831815,0.23729816700284997,0.32460191323791976
24.198,24.06,-4.56,0.23856466546333882,0.7012872338318208,0.1706064338284583,0.5330110687929095,0.23668619761747522,0.3253640936409129
24.259,24.12,-4.43,0.23784876747551545,0.7017674427373984,0.1701300531124239,0.5336950907366692,0.23610211088005442,0.32612757061319053
24.321,24.17,-4.56,0.2371539533107051,0.7022507347048051,0.16966118315828158,0.5344122680456318,0.23554567302052823,0.32689216332561205
24.342,24.23,-4.67,0.23648020280307622,0.7027373332177522,0.16919995673542007,0.5351619684879287,0.23501663061617323,0.32765768380267196
24.404,24.28,-4.52,0.23582747782053504,0.7032274622942785,0.16874650321865628,0.535943527584232,0.23451471085094266,0.3284239372644662
24.468,24.34,-4.58,0.2351957224044649,0.7037213463491488,0.16830094851372493,0.5367562494658984,0.23403962179557194,0.32919072247259235
24.508,24.39,-4.74,0.23458486293223296,0.7042192100540026,0.1678634149824632,0.5375994077741115,0.23359105270830297,0.32995783207874696
24.569,24.45,-4.58,0.23399480830205496,0.7047212781953378,0.16743402136762328,0.5384722465981568,0.2331686743560109,0.3307250529749291
24.63,24.5,-4.54,0.23342545013986418,0.7052277755300762,0.167012882717274,0.5393739814508992,0.23277213935545063,0.33149216664431475
24.671,24.56,-4.71,0.23287666302788665,0.7057389266381475,0.16660011030878666,0.5403038002795714,0.23240108253428246,0.3322589495120181
24.732,24.61,-4.66,0.23234830475466092,0.7062549557713791,0.1661958115724088,0.5412608645101362,0.2320551213114916,0.33302517329506104
24.793,24.67,-4.55,0.231840216586206,0.7067760866980198,0.16580009001441912,0.542244310123742,0.23173385609680536,0.3337906053509257
24.854,24.72,-4.69,0.231352223557969,0.7073025425424595,0.1654130451398353,0.5432532487640227,0.23143687070869667,0.3345550090241013
24.895,24.78,-4.73,0.2308841347870653,0.7078345456200223,0.16503477237460668,0.5442867688742041,0.23116373281052985,0.33531814399008764
24.958,24.83,-4.56,0.23043574380418855,0.7083723172670389,0.1646653629871581,0.5453439368631168,0.23091399436437401,0.3360797665963403
25.06,24.89,-4.63,0.2300068289044703,0.7089160776665728,0.1643049040091218,0.5464237982992327,0.23068719210198346,0.33683963019963964
25.081,24.94,-4.73,0.2295971535165278,0.7094660456701547,0.16395347815507424,0.5475253791317569,0.23048284801241212,0.3375974854993671
25.121,25.0,-4.6,0.22920646658894453,0.7100224386156753,0.1636111637410475,0.5486476869377345,0.23030046984571997,0.3383530808661648
25.203,25.05,-4.56,0.2288345029935031,0.7105854721412813,0.16327803460156914,0.5497897121940551,0.2301395516322306,0.33910616266542865
25.224,25.11,-4.73,0.22848098394455765,0.711155359994841,0.16295416000502327,0.5509504295730914,0.22999957421680353,0.3398564755751085
25.286,25.16,-4.65,0.22814561743393713,0.7117323138384904,0.16263960456721463,0.5521287992605468,0.2298800058075843,0.3406037628973757
25.347,25.22,-4.56,0.22782809868072515,0.712316543047914,0.1623344281631507,0.5533237682939712,0.2297803025386992,0.34134776686384527
25.451,25.27,-4.69,0.22752811059520522,0.7129082545062876,0.16203868583722245,0.5545342719202638,0.2296999090463635,0.342088228934192
25.491,25.33,-4.73,0.22724532425619054,0.7135076523931559,0.16175242771208467,0.5557592349703988,0.2296382590578485,0.3428248900881709
25.512,25.38,-4.54,0.22697939940089984,0.714114937968863,0.1614756988965707,0.5569975732495868,0.22959477599274083,0.3435574911111682
25.553,25.44,-4.64,0.2267299849265117,0.7147303093553158,0.16120853939298999,0.5582481949410106,0.22956887357591355,0.34428577287347384
25.615,25.49,-4.72,0.2264967194025333,0.7153539613137901,0.16095098400417504,0.5595100020210684,0.22955995646160202,0.3450094766034972
25.676,25.55,-4.61,0.22627923159313992,0.7159860850202593,0.1607030622406641,0.5607818916837782,0.2295674208679738,0.34572834415511744
25.717,25.6,-4.62,0.22607714098869672,0.7166268678384152,0.16046479822843968,0.5620627577717043,0.2295906552215875,0.34644211826928184
25.82,25.66,-4.79,0.22589005834573617,0.717276493090305,0.16023621061769006,0.5633514922104996,0.2296290408111259,0.3471505428298897
25.841,25.71,-4.71,0.22571758623470967,0.7179351398243812,0.1600173124931022,0.5646469864440329,0.22968195244976458,0.34785336311398835
25.882,25.77,-4.62,0.22555931959484948,0.7186029825807584,0.1598081112862482,0.5659481328670561,0.22974875914549234,0.3485503260363518
25.943,25.82,-4.73,0.2254148462954749,0.7192801911535519,0.15960860869069016,0.5672538262524525,0.22982882477863542,0.3492411803886197
26.004,25.88,-4.73,0.22528374770304338,0.7199669303503364,0.1594188005803858,0.5685629651703438,0.229921508785771,0.3499256770732728
26.046,25.93,-4.59,0.22516559925319188,0.72066335974897,0.15923867693184718,0.5698744533966855,0.23002616684917518,0.3506035693327205
26.148,25.99,-4.73,0.2250599710269592,0.7213696334522346,0.15906822175035157,0.5711872013092401,0.23014215159095242,0.35127461297364676
26.169,26.04,-4.8,0.2249664283302872,0.7220858998409481,0.1589074130003996,0.5725001272688885,0.23026881327098617,0.35193856658657374
26.21,26.1,-4.72,0.22488453227581348,0.722812301326339,0.15875622254056582,0.5738121589841628,0.2304055004878381,0.35259519176044024
26.27,26.15,-4.68,0.22481384036592517,0.7235489741024227,0.15861461606291272,0.5751222348566809,0.23055156088168607,0.3532442532919062
26.333,26.21,-4.83,0.22475390707606205,0.7242960478988817,0.15848255303718897,0.5764293053049847,0.23070634183831587,0.353885519389164
26.375,26.26,-4.72,0.22470428443729218,0.725053645734718,0.15835998666004103,0.5777323340642875,0.2308691911930995,0.35451876187019876
26.457,26.32,-4.65,0.22466452261722786,0.7258218836728112,0.1582468638094675,0.5790302994598172,0.23103945793384192,0.35514375635561013
26.518,26.37,-4.79,0.22463417049839526,0.7266008705755557,0.15814312500478148,0.5803221956516746,0.23121649290134316,0.35576028245625596
26.539,26.43,-4.8,0.22461277625316678,0.7273907078620072,0.15804870437236296,0.5816070338493641,0.2313996494864982,0.3563681239560782
26.601,26.48,-4.66,0.22459988791432758,0.728191489267365,0.1579635296174771,0.5828838434943724,0.23158828432274725,0.3569670689905062
26.685,26.54,-4.76,0.2245950539403142,0.7290033006058945,0.15788752200244127,0.5841516734092282,0.23178175797266398,0.35755691022079433
26.705,26.59,-4.8,0.2245978237741664,0.7298262195384599,0.15782059633145293,0.585409592911343,0.23197943560742296,0.35813744500458283
26.766,26.65,-4.63,0.2246077483952464,0.7306603153456839,0.15776266094241248,0.5866566928897016,0.23218068767785507,0.35870847556284674
26.828,26.7,-4.64,0.22462438086280773,0.7315056487074532,0.15771361770611492,0.587892086842196,0.23238489057577938,0.3592698091432469
26.89,26.76,-4.76,0.2246472768505051,0.7323622714891997,0.15767336203320909,0.5891149118711654,0.2325914272843051,0.3598212581797758
26.95,26.81,-4.63,0.22467599517092152,0.7332302265352217,0.15764178288931016,0.590324329634694,0.23279968801582093,0.360362640448529
27.01,26.87,-4.58,0.22471009828917812,0.7341095474693146,0.1576187628185952,0.5915195272514582,0.23300907083644107,0.3608937792194275
27.052,26.92,-4.68,0.22474915282467817,0.7350002585031605,0.1576041779761037,0.5926997181574006,0.23321898227572,0.3614145034037742
27.115,26.98,-4.65,0.22479273003999084,0.7359023742532772,0.15759789816877892,0.5938641429132214,0.23342883792048402,0.3619246476976428
27.177,27.03,-4.49,0.2248404063158485,0.7368158995676932,0.15759978690506005,0.5950120699624555,0.23363806299166628,0.3624240527211831
27.26,27.09,-4.62,0.22489176361126043,0.7377408293636827,0.1576097014527059,0.5961427963403813,0.2338460929030779,0.36291256515396864
27.282,27.14,-4.67,0.224946389907806,0.738677148477809,0.15762749290451306,0.5972556483340763,0.23405237380108027,0.3633900378665223
27.322,27.2,-4.53,0.22500387963723267,0.7396248315292915,0.15765300625164558,0.5983499820937209,0.2342563630841694,0.363856330048098
27.384,27.25,-4.54,0.22506383409153646,0.7405838427973866,0.1576860804643806,0.5994251841949055,0.23445752990151972,0.3643113073307163
27.445,27.31,-4.67,0.2251258618147337,0.7415541361131573,0.15772654858015278,0.6004806721513579,0.23465535562953915,0.3647548419093905
27.507,27.36,-4.51,0.22518957897555025,0.7425356547657611,0.15777423779882896,0.60151589487728,0.2348493343254939,0.36518681265844505
27.548,27.42,-4.42,0.22525460972028283,0.7435283314232266,0.1578289695852087,0.6025303330983558,0.23503897315728703,0.3656071052437919
27.631,27.47,-4.54,0.22532058650514955,0.7445320880675793,0.15789055977883504,0.6035234997104362,0.23522379280851394,0.36601561223104107
27.652,27.53,-4.49,0.2253871504075317,0.7455468359441808,0.15795881871126005,0.6044949400850008,0.23540332785798446,0.3664122331893776
27.694,27.58,-4.33,0.22545395141562508,0.7465724755252432,0.1580335513309418,0.6054442323207296,0.23557712713300277,0.3667968747911602
27.776,27.64,-4.47,0.22552064869614322,0.7476088964876045,0.15811455733598606,0.6063709874407183,0.23574475403581824,0.3671694509071769
27.839,27.69,-4.5,0.2255869108398178,0.7486559777049646,0.1582016313149851,0.6072748495349822,0.23590578684275793,0.36752988269742776
27.882,27.75,-4.33,0.22565241608451428,0.7497135872548494,0.15829456289621532,0.6081554958479316,0.2360598189756473,0.3678780986971788
28.003,27.8,-4.38,0.22571685251585186,0.7507815824404759,0.1583931369054595,0.6090126368104349,0.23620645924519834,0.36821403489788423
28.024,27.86,-4.48,0.22577991824529306,0.7518598098274625,0.15849713353273065,0.6098460160159741,0.23634533206610536,0.3685376348224429
28.045,27.91,-4.37,0.22584132156572462,0.7529481052950714,0.15860632850814713,0.6106554101403542,0.23647607764364217,0.3688488495941529
28.106,27.97,-4.33,0.22590078108461473,0.7540462941014318,0.15872049328716165,0.6114406288045127,0.23659835213162345,0.36914763799864253
28.166,28.02,-4.5,0.22595802583492508,0.7551541909620226,0.1588393952452316,0.6122015143802154,0.23671182776165403,0.3694339665380559
28.206,28.08,-4.45,0.22601279536403382,0.7562716001406615,0.15896279788174802,0.61293794173892,0.2368161929436199,0.3697078094768641
28.269,28.13,-4.33,0.22606483980097541,0.7573983155523992,0.15909046103266034,0.6136498179447544,0.23691115233740412,0.369969148878795
28.351,28.19,-4.43,0.22611391990231436,0.7585341208779585,0.15922214109085886,0.6143370818931595,0.23699642689581915,0.37021797463449463
28.372,28.24,-4.46,0.22615980707692382,0.7596787896896587,0.15935759123310908,0.6149997038971386,0.23707175387874888,0.3704542844796416
28.413,28.3,-4.25,0.22620228338987217,0.7608320855890186,0.15949656165219475,0.6156376852232002,0.2371368868385173,0.37067808400325025
28.475,28.35,-4.29,0.22624114154557617,0.7619937623562936,0.15963879979294077,0.6162510575789228,0.23719159557656566,0.3708893866458431
28.536,28.41,-4.39,0.2262761848503767,0.763163564112102,0.1597840505908619,0.6168398825537853,0.23723566607160124,0.3710882136870806
28.618,28.46,-4.25,0.22630722715471033,0.7643412254911083,0.15993205671224964,0.6174042510147446,0.237268900379488,0.3712745942223335
28.639,28.52,-4.23,0.2263340927751192,0.7655264718275123,0.1600825587945762,0.6179442824580746,0.23729111650529755,0.3714485651275781
28.721,28.57,-4.39,0.2263566163964627,0.7667190193518728,0.16023529568621356,0.6184601243190627,0.23730214824804965,0.37161017101196864
28.742,28.63,-4.37,0.22637464295482074,0.7679185753986975,0.16039000468461076,0.6189519512412712,0.237301845018766,0.37175946415750594
28.805,28.68,-4.27,0.22638802750168496,0.7691248386242254,0.16054642177222012,0.6194199643071714,0.23729007163252655,0.37189650444535716
28.866,28.74,-4.43,0.22639663505009427,0.7703374992339345,0.16070428184959384,0.6198643902320382,0.23726670807524092,0.37202135926854646
28.907,28.79,-4.47,0.2264003404033512,0.7715562392195296,0.16086331896509917,0.6202854805231462,0.2372316492458346,0.3721341034309139
28.969,28.85,-4.26,0.22639902796685663,0.7727807326054653,0.16102326654062188,0.62068351060653,0.23718480467451736,0.37223481903234096
29.031,28.9,-4.32,0.22639259154348806,0.7740106457052695,0.16118385759251017,0.6210587789237374,0.23712609821778988,0.37232359534025883
29.093,28.96,-4.42,0.22638093411284618,0.7752456373879792,0.1613448249469087,0.6214116060010458,0.2370554677308315,0.37240052864741147
29.133,29.01,-4.27,0.22636396759464344,0.7764853593548895,0.1615059014485401,0.6217423334936322,0.23697286471795603,0.3724657221157595
29.196,29.07,-4.26,0.2263416125965533,0.7777294564265584,0.1616668201619668,0.6220513232071866,0.2368782539619133,0.37251928560628883
29.256,29.12,-4.41,0.22631379814696564,0.7789775668397091,0.16182731456444965,0.622338956099399,0.23677161313290723,0.372561335494455
29.298,29.18,-4.35,0.2262804614132173,0.7802293225535126,0.16198711872966337,0.6226056312636956,0.23665293237828344,0.3725919944710606
29.359,29.23,-4.25,0.22624154740595406,0.7814843495648084,0.16214596750171364,0.6228517648975833,0.23652221389390302,0.3726113913285029
29.464,29.29,-4.39,0.2261970086703306,0.7827422682320486,0.1623035966591245,0.6230777892579301,0.23637947147826188,0.3726196607325128
29.484,29.34,-4.41,0.2261468049647219,0.784002693608086,0.16245974306865826,0.6232841516054495,0.2362247300704318,0.3726169429796977
29.526,29.4,-4.26,0.22609090292755216,0.7852652357822313,0.1626141448289407,0.6234713131405882,0.23605802527292472,0.37260338374132557
29.588,29.45,-4.33,0.22602927573276935,0.7865295002321556,0.1627665414039343,0.6236397479328634,0.23587940286061682,0.37257913379381086
29.651,29.51,-4.5,0.22596190273443417,0.7877950881861893,0.1629166737463351,0.6237899418454559,0.23568891827688693,0.3725443487363167
29.692,29.56,-4.37,0.2258887691008664,0.789061596996368,0.16306428441098833,0.6239223914566191,0.23548663611815804,0.3724991886957877
29.734,29.62,-4.31,0.22580986543886597,0.7903286205222334,0.16320911765846474,0.6240376029792023,0.23527262960805034,0.372443818019648
29.836,29.67,-4.5,0.22572518740867697,0.7915957495249103,0.16335091954903466,0.6241360911793754,0.2350469800623452,0.37237840495641933
29.857,29.73,-4.39,0.22563473533053313,0.7928625720706061,0.16348943802737223,0.6242183782955592,0.23480977634593228,0.3723031213246327
29.897,29.78,-4.32,0.22553851378377995,0.7941286739424357,0.1636244229984184,0.6242849929586464,0.23456111432292198,0.37221814217054167
29.96,29.84,-4.44,0.22543653119968907,0.795393639059411,0.1637556263949144,0.6243364691147408,0.23430109630112475,0.37212364541525755
30.021,29.89,-4.51,0.22532879944914666,0.796657049901503,0.16388280223712914,0.6243733449518576,0.23402983047212497,0.37201981149204516
30.083,29.95,-4.39,0.22521533342642502,0.7979184879398188,0.16400570668525802,0.6243961618322439,0.233747430348203,0.37190682297457084
30.125,30.0,-4.47,0.22509615063025787,0.7991775340710414,0.16412409808493308,0.6244054632320315,0.23345401419736891,0.3717848641969094
30.186,30.06,-4.56,0.22497127074342946,0.8004337690552815,0.16423773700623642,0.6244017936898305,0.23314970447774525,0.3716541208661153
30.247,30.11,-4.47,0.2248407152120588,0.8016867739564224,0.1643463862765153,0.6243856977657501,0.23283462727249418,0.3715147796681617
30.308,30.17,-4.46,0.22470450682574697,0.8029361305838716,0.16444981100722064,0.6243577190122289,0.2325089117264532,0.3713670278680175
30.349,30.22,-4.62,0.22456266929977656,0.8041814219343859,0.16454777861496495,0.6243183989579375,0.23217268948560085,0.3712110529046334
30.432,30.28,-4.59,0.2244152268605717,0.8054222326324313,0.16464005883701482,0.6242682761059494,0.23182609414044153,0.37104704198165867
30.453,30.33,-4.52,0.22426220383562118,0.8066581493674463,0.16472642374150515,0.6242078849473558,0.2314692606743645,0.3708751816548105
30.576,30.39,-4.59,0.2241036242490249,0.8078887613264885,0.1648066477327707,0.6241377549914884,0.2311023249179727,0.3706956574169692
30.596,30.44,-4.6,0.22393951142371693,0.809113660621079,0.16488050755228198,0.6240584098138965,0.2307254230103119,0.37050865328225807
30.636,30.5,-4.45,0.2237698875912764,0.8103324427075297,0.1649477822757199,0.6239703661232052,0.23033869086788214,0.3703143513704973
30.696,30.55,-4.54,0.2235947735101337,0.8115447068004148,0.16500825330675312,0.6238741328479057,0.2299422636623063,0.3701129314934281
30.779,30.61,-4.6,0.22341418809289962,0.8127500562791024,0.1650617043680869,0.6237702102440438,0.22953627530755458,0.3699045707439885
30.799,30.66,-4.52,0.22322814804349916,0.8139480990873392,0.1651079214903079,0.6236590890247441,0.2291208579576774,0.36968944308973356
30.861,30.72,-4.51,0.22303666750477633,0.8151384481258291,0.16514669299899554,0.6235412495124641,0.2286961415160406,0.36946771897129327
30.944,30.77,-4.66,0.22283975771724585,0.8163207216375499,0.16517780950053965,0.6234171608148313,0.22826225315707654,0.36923956490664617
30.964,30.83,-4.59,0.2226374266896565,0.8174945435854126,0.16520106386706737,0.6232872800249684,0.22781931686155396,0.36900514310198634
31.027,30.88,-4.54,0.2224296788819791,0.8186595440218646,0.16521625122086936,0.6231520514473602,0.22736745296635022,0.36876461107002245
31.068,30.94,-4.63,0.22221651490137082,0.8198153594501796,0.16522316891875224,0.6230119058504627,0.22690677772967416,0.36851812125663336
31.129,30.99,-4.7,0.2219979312115712,0.8209616331774461,0.16522161653676917,0.6228672597473771,0.22643740291264064,0.36826582067686764
31.17,31.05,-4.57,0.2217739198560799,0.8220980156595165,0.165211395855759,0.6227185147060204,0.22595943537806354,0.3680078505612398
31.231,31.1,-4.7,0.22154446819535098,0.8232241648383578,0.16519231084808128,0.6225660566902306,0.2254729767072969,0.36774434601317
31.292,31.16,-4.8,0.22130955865814292,0.8243397464722751,0.1651641676659095,0.6224102554331301,0.2249781228358976,0.3674754356783024
31.354,31.21,-4.69,0.22106916850709515,0.8254444344593652,0.1651267746314097,0.6222514638438956,0.22447496370880993,0.3672012414263516
31.396,31.27,-4.65,0.22082326961859472,0.8265379111542994,0.16507994222910022,0.6220900174488818,0.22396358295568125,0.3669218780460905
31.456,31.32,-4.81,0.22057182827701605,0.82761986767822,0.16502348310064832,0.6219262338678184,0.22344405758681618,0.3666374529541245
31.517,31.38,-4.77,0.22031480498340827,0.8286900042213352,0.1649572120422919,0.6217604123256356,0.2229164577101961,0.3663480659181526
31.578,31.43,-4.69,0.2200521542786595,0.8297480303377766,0.16488094600500727,0.6215928332004015,0.22238084626994234,0.3660538087954584
31.6,31.49,-4.8,0.2197838245811048,0.8307936652324655,0.16479450409750207,0.6214237576078678,0.2218372788065616,0.36575476528743234
31.661,31.54,-4.82,0.21950975803847592,0.8318266380400756,0.16469770759205543,0.6212534270232255,0.22128580323924738,0.3654510107110348
31.723,31.6,-4.67,0.2192298903940197,0.8328466880965839,0.16459037993316783,0.6210820629408014,0.22072645967045018,0.3651426117881645
31.804,31.65,-4.75,0.21894415086657285,0.8338535652041783,0.16447234674895875,0.6209098665724301,0.22015928021288309,0.364829626453862
31.824,31.71,-4.86,0.2186524620443935,0.8348470298903528,0.16434343586522918,0.6207370185850822,0.21958428883909542,0.3645121036841315
31.885,31.76,-4.77,0.21835473979261089,0.8358268536618565,0.16420347732203358,0.6205636788781673,0.21900150125373585,0.3641900833439289
31.936,31.82,-4.77,0.21805089317425883,0.8367928192538188,0.16405230339250784,0.6203899864007814,0.21841092478860788,0.36386359605562807
32.034,31.87,-4.92,0.2177408243849436,0.8377447208740464,0.16388974860361394,0.6202160590090773,0.2178125583205799,0.3635326630881349
32.054,31.93,-4.85,0.2174244287011818,0.8386823644423504,0.1637156497583862,0.620041993363933,0.21720639221232338,0.36319729626681174
32.116,31.98,-4.77,0.21710159444237145,0.8396055678248475,0.1635298459592136,0.6198678648691724,0.21659240827576898,0.3628574979044294
32.177,32.04,-4.87,0.21677220294626576,0.8405141610633579,0.16333217863167718,0.6196937276506805,0.21597057975807935,0.36251326075345763
32.239,32.09,-4.87,0.21643612855773672,0.8414079866002805,0.16312249154843728,0.619519614576844,0.21534087134985433,0.36216456798008095
32.259,32.15,-4.73,0.21609323863055896,0.8422868994995153,0.16290063085265352,0.6193455373207968,0.21470323921524126,0.36181139316032446
32.32,32.2,-4.82,0.21574339354192731,0.8431507676641044,0.16266644508044237,0.6191714864648616,0.21405763104360384,0.36145370029857293
32.404,32.26,-4.92,0.21538644671946217,0.8439994720511904,0.16241978518192976,0.6189974316473577,0.21340398612239575,0.36109144386861614
32.445,32.31,-4.78,0.21502224468050593,0.8448329068847072,0.1621605045405295,0.6188233217516846,0.2127422354308805,0.3607245688771722
32.507,32.37,-4.78,0.2146506270835937,0.8456509798659108,0.16188845899022344,0.6186490851372801,0.2120723017543236,0.3603530109496705
32.569,32.42,-4.93,0.21427142679204064,0.8464536123815438,0.161603506830809,0.6184746299117152,0.21139409981825039,0.3599766964379704
32.61,32.48,-4.89,0.21388446994959265,0.8472407397091868,0.16130550884123884,0.6182998442429688,0.2107075364423126,0.3595955425496456
32.671,32.53,-4.79,0.2134895760680647,0.8480123112192811,0.16099432829126947,0.6181245967108298,0.21001251071327603,0.35920945749843136
32.773,32.59,-4.88,0.2130865581268374,0.8487682905734267,0.16066983095168905,0.617948736696399,0.20930891417658978,0.35881834067545376
32.794,32.64,-4.9,0.21267522268399305,0.8495086559188385,0.1603318851033808,0.6177720948088237,0.20859663104592863,0.3584220828409257
32.834,32.7,-4.73,0.21225536999879335,0.8502334000792127,0.15998036154538559,0.6175944833486413,0.2078755384300499,0.35802056633604307
32.895,32.75,-4.79,0.21182679416516315,0.8509425307424764,0.15961513360206417,0.6174156968072396,0.20714550657628952,0.35761366531477223
32.936,32.81,-4.87,0.21138928325587053,0.8516360706458855,0.15923607712947638,0.6172355124018101,0.2064063991300292,0.35720124599510594
32.998,32.86,-4.77,0.2109426194771403,0.852314057758716,0.15884307052118984,0.6170536906448456,0.20565807340949688,0.35678316692918477
33.142,32.92,-4.73,0.21048657933352088,0.8529765454623685,0.15843599471387712,0.616869975946817,0.20490038069530603,0.356359279291512
33.162,32.97,-4.87,0.2100209338028877,0.8536236027272254,0.15801473319316484,0.6166840972503228,0.20413316653415675,0.3559294271844022
33.182,33.03,-4.82,0.20954544852149676,0.8542553142852684,0.15757917200023383,0.616495768693889,0.20335627105613346,0.3554934479598022
33.202,33.08,-4.74,0.2090598839790076,0.8548717807973402,0.1571291997396744,0.6163046903036292,0.2025695293050243,0.3550511725566561
33.263,33.14,-4.88,0.20856399572337478,0.855473119013998,0.15666470758914774,0.6161105487109981,0.20177277158108659,0.35460242585301605
33.325,33.19,-4.94,0.20805753457547774,0.8560594619290828,0.1561855893114623,0.6159130178948857,0.20096582379564196,0.35414702703215256
33.366,33.25,-4.81,0.20754024685332925,0.8566309589252769,0.15569174126969437,0.6157117599463255,0.2001485078368487,0.3536847899619306
33.448,33.3,-4.87,0.20701187460571524,0.8571877759109007,0.15518306244597743,0.6155064258540704,0.1993206419459361,0.353215523586728
33.511,33.36,-4.94,0.20647215585517723,0.8577300954469678,0.1546594544645571,0.6152966563091865,0.19848204110309906,0.3527390323311758
33.531,33.41,-4.83,0.2059208248503334,0.8582581168631618,0.15412082161967483,0.6150820825266708,0.19763251742216928,0.35225511651498737
33.593,33.47,-4.78,0.20535761232761884,0.8587720563610266,0.15356707090883598,0.6148623270819583,0.1967718805531423,0.3517635727780877
33.634,33.52,-4.91,0.2047822457825876,0.8592721471023972,0.15299811207202496,0.614637004760105,0.19589993809161277,0.35126419451526886
33.718,33.58,-4.81,0.20419444975089351,0.8597586392811069,0.152413857637394,0.6144057234155584,0.19501649599417512,0.3507567723196862
33.76,33.63,-4.71,0.2035939460990029,0.860231800176198,0.15181422297389877,0.6141680848406839,0.19412135899886748,0.3502410944346593
33.82,33.69,-4.81,0.20298045432461675,0.8606919141851523,0.15119912635132457,0.6139236856414357,0.19321433104977265,0.34971694721338237
33.862,33.74,-4.82,0.20235369186671798,0.86113928283592,0.1505684890081154,0.6136721181187441,0.19229521572493033,0.3491841155862405
33.922,33.8,-4.67,0.20171337442512197,0.8615742247767836,0.1499222352273523,0.6134129711543238,0.19136381666677743,0.3486423835353962
33.982,33.85,-4.78,0.20105921628940765,0.8619970757432208,0.14926029242117922,0.6131458310996565,0.19041993801439722,0.3480915345761873
34.024,33.91,-4.85,0.20039093067712288,0.8624081885009783,0.1485825912239482,0.6128702826667856,0.18946338483690225,0.34753135224472587
34.085,33.96,-4.76,0.19970823008116845,0.8628079327644982,0.14788906559433715,0.6125859098193887,0.18849396356731515,0.34696162059095803
34.147,34.02,-4.69,0.19901082662629235,0.8631966950896726,0.14717965292667146,0.6122922966624298,0.18751148243632915,0.34638212467635604
34.249,34.07,-4.84,0.1982984324346355,0.863574878739758,0.14645429417164887,0.6119890283286188,0.18651575190532377,0.34579265107540597
34.269,34.13,-4.73,0.19757076000022292,0.8639429035233155,0.1457129339666,0.6116756918599889,0.18550658509800708,0.3451929883801043
34.311,34.18,-4.65,0.19682752257221203,0.8643012056032846,0.14495552077534582,0.6113518770831362,0.18448379823007913,0.3445829277067408
34.371,34.24,-4.72,0.1960684345466352,0.8646502372766378,0.14418200703765835,0.611017177476913,0.18344721103635794,0.34396226320432033
34.433,34.29,-4.76,0.1952932118663033,0.864990466724417,0.14339234932827916,0.6106711910316189,0.18239664719486254,0.34333079256405413
34.474,34.35,-4.61,0.19450157242848118,0.8653223777322999,0.14258650852538576,0.6103135210989531,0.18133193474742224,0.34268831752933937
34.516,34.4,-4.71,0.19369323649992157,0.865646469382081,0.14176444998836715,0.6099437772320924,0.18025290651645823,0.34203464440554376
34.599,34.46,-4.8,0.192867927138843,0.8659632557145039,0.14092614374474616,0.6095615760152258,0.17915940051764612,0.3413695845687762
34.64,34.51,-4.7,0.19202537062344513,0.8662732653638027,0.1400715646860455,0.6091665418818013,0.1780512603682036,0.34069295497269303
34.701,34.57,-4.67,0.1911652968865821,0.8665770411641454,0.1392006927723468,0.6087583079206645,0.17692833569058042,0.34000457865231015
34.762,34.62,-4.85,0.1902874399562461,0.8668751397279917,0.13831351324525668,0.6083365166692563,0.17579048251132395,0.3393042852237994
34.824,34.68,-4.79,0.18939153840152737,0.8671681309962403,0.13741001684891113,0.6079008208932162,0.17463756365488378,0.338591911379332
34.884,34.73,-4.69,0.18847733578374024,0.8674565977600248,0.13649020005857035,0.6074508843520834,0.17346944913211684,0.3378673013761397
34.904,34.79,-4.77,0.1875445811124381,0.8677411351540494,0.13555406531629133,0.6069863825511443,0.17228601652323614,0.33713030751909717
34.967,34.84,-4.82,0.1865930293060471,0.8680223501215586,0.13460162127311462,0.6065070034797866,0.17108715135492356,0.3363807906362654
35.008,34.9,-4.67,0.18562244165680783,0.868300860851308,0.1336328830371176,0.6060124483369377,0.16987274747132988,0.33561862054690467
35.068,34.95,-4.74,0.18463258629964316,0.8685772961871676,0.1326478724266329,0.6055024322442206,0.16864270739872222,0.33484367652144353
35.129,35.01,-4.86,0.18362323868446426,0.868852295011141,0.1316466182278774,0.6049766849473519,0.16739694270357386,0.33405584773283864
35.192,35.06,-4.78,0.18259418205132213,0.869126505600624,0.13062915645618367,0.6044349515061629,0.16613537434393455,0.3332550336986994
35.231,35.12,-4.71,0.18154520790776882,0.8694005849606712,0.12959553062000154,0.6038769929734754,0.16485793301394047,0.33244114471353414
35.332,35.17,-4.83,0.18047611650779713,0.8696751981319343,0.12854579198686797,0.6033025870629345,0.1635645594813248,0.3316141022705536
35.352,35.23,-4.82,0.17938671733176115,0.8699510174749644,0.1274799998505894,0.6027115288058565,0.16225520491778006,0.33077383947260486
35.394,35.28,-4.7,0.17827682956671836,0.8702287219316673,0.12639822179895976,0.6021036311971805,0.1609298312220387,0.32992030143191636
35.455,35.34,-4.82,0.17714628258666543,0.870508996264863,0.12530053398144456,0.6014787258306291,0.15958841133557508,0.32905344565838485
35.515,35.39,-4.88,0.17599491643211945,0.8707925302771035,0.124187021376348,0.6008366635231691,0.15823092955085713,0.3281732424361629
35.576,35.45,-4.75,0.1748225822884388,0.8710800180101412,0.12305777805702711,0.6001773149288221,0.15685738181210193,0.32727967518828815
35.659,35.5,-4.8,0.17362914296225246,0.8713721569265336,0.12191290745674149,0.5995005711417655,0.15546777600850656,0.32637274082904
35.719,35.56,-4.92,0.17241447335537108,0.8716696470748088,0.12075252263173859,0.5988063442885203,0.1540621322599193,0.32545245010365925
35.759,35.61,-4.85,0.17117846093559663,0.871973190239426,0.11957674652214323,0.5980945681089284,0.1526404831949084,0.32451882791502407
35.8,35.67,-4.83,0.16992100620390885,0.8722834890765311,0.11838571221019953,0.5973651985255466,0.15120287422118808,0.32357191363685944
35.861,35.72,-5.0,0.1686420231575844,0.8726012462362889,0.11717956317544671,0.5966182142009676,0.14974936378833983,0.3226117614131202
35.922,35.78,-4.99,0.16734143974886792,0.8729271634724797,0.1159584535464642,0.59585361708246,0.14828002364272325,0.321638440443343
35.963,35.83,-4.9,0.16601919833886217,0.8732619407400792,0.1147225483488684,0.5950714329332852,0.14679493907441885,0.3206520352539643
36.066,35.89,-4.99,0.1646752561463263,0.8736062752816884,0.11347202374926547,0.5942717118501007,0.14529420915597605,0.3196526459558051
36.087,35.94,-5.06,0.1633095856910511,0.8739608607039202,0.11220706729481826,0.593454528766022,0.14377794697266535,0.3186403884880975
36.128,36.0,-4.92,0.16192217523141356,0.8743263860451016,0.11092787814797404,0.592619983939108,0.1422462798438724,0.3176153948495079
36.169,36.05,-4.92,0.16051302919563049,0.8747035348357922,0.10963466731582537,0.5917682034260628,0.14069934953524224,0.3165778133165921
36.23,36.11,-5.0,0.15908216860615307,0.8750929841536087,0.10832765787357272,0.5908993395407524,0.13913731246116362,0.3155278086500403
36.291,36.16,-4.92,0.1576296314966006,0.8754954036737242,0.10700708518157731,0.5900135712968523,0.13756033987719418,0.3144655622889332
36.351,36.22,-4.86,0.15615547332064672,0.8759114547161952,0.10567319709552435,0.5891111048336822,0.1359686180620784,0.31339127253303295
36.434,36.27,-4.98,0.154659767352318,0.8763417892910863,0.10432625416925906,0.58819217382408,0.13436234848907272,0.3123051547129682
36.454,36.33,-4.99,0.15314260507720204,0.8767870491423239,0.10296652984988522,0.587257039863136,0.13274174798635724,0.3112074413480965
36.515,36.38,-4.86,0.15160409657406043,0.8772478647913798,0.10159431066472153,0.5863059928367348,0.13110704888636615,0.3100983822918209
36.556,36.44,-4.94,0.15004437088631292,0.8777248545821308,0.10020989639972301,0.5853393512690077,0.12945849916390645,0.30897824486415226
36.618,36.49,-5.0,0.1484635763827949,0.8782186237285206,0.09881360026897061,0.5843574626479424,0.12779636256294638,0.3078473139713027
36.68,36.55,-4.86,0.14686188110712473,0.878729763366834,0.09740574907479009,0.5833607037284606,0.12612091871198539,0.3067058922120243
36.722,36.6,-4.9,0.14523947311500993,0.879258849614346,0.09598668335802049,0.5823494808122703,0.1244324632279609,0.3055542999702826
36.802,36.66,-5.04,0.14359656079885275,0.8798064426358503,0.09455675753792757,0.5813242300037069,0.12273130780869301,0.304392875493758
36.844,36.71,-4.96,0.14193337319909224,0.8803730857191818,0.0931163400412207,0.5802854174407415,0.12101778031391444,0.30322197495761083
36.885,36.77,-4.91,0.14025016030183735,0.8809593043604292,0.09166581341961218,0.5792335395003595,0.11929222483496484,0.3020419725129226
36.947,36.82,-5.02,0.13854719332246543,0.881565605359209,0.09020557445534778,0.5781691229776149,0.11755500175323372,0.30085326031925413
37.007,36.88,-5.02,0.13682476497491874,0.8821924759243531,0.08873603425411944,0.5770927252378945,0.1158064877874267,0.2996562485608326
37.07,36.93,-4.88,0.1350831897264143,0.8828403827906339,0.0872576183247391,0.5760049343422567,0.1140470760297358,0.2984513654459199
37.172,36.99,-5.0,0.133322804037216,0.8835097713474865,0.08577076664494329,0.5749063691459666,0.11227717597101236,0.29723905718889876
37.191,37.04,-5.06,0.1315439665850512,0.8842010647809364,0.08427593371269937,0.5737976793704651,0.11049721351507455,0.29601978797455436
37.231,37.1,-4.99,0.1297470584737189,0.8849146632300235,0.08277358858236807,0.5726795456490216,0.1087076309823215,0.2947940399039218
37.294,37.15,-4.94,0.12793248342544525,0.8856509429589361,0.08126421488508775,0.5715526795461889,0.10690888710286751,0.29356231292095997
37.335,37.21,-5.07,0.12610066795660196,0.8864102555458101,0.07974831083279076,0.5704178235509733,0.10510145699942167,0.2923251247192489
37.419,37.26,-5.0,0.12425206153645021,0.8871929270888761,0.07822638920535609,0.5692757510434238,0.10328583216014348,0.2910830106279025
37.481,37.32,-4.95,0.12238713672861723,0.8879992574304572,0.0766989773205651,0.5681272662342479,0.10146252040173605,0.28983652347592825
37.501,37.37,-5.07,0.12050638931501803,0.8888295193993008,0.07516661698674544,0.5669732040770799,0.09963204582308657,0.28858623343438433
37.563,37.43,-5.11,0.11861033840189811,0.889683958071908,0.07362986443814042,0.5658144301532492,0.097794948749796,0.2873327278358548
37.604,37.48,-4.99,0.11669952650762583,0.8905627900537311,0.07208929025310272,0.5646518405291281,0.09595178566997276,0.2860766109708795
37.666,37.54,-5.11,0.11477451963185135,0.8914662027811843,0.0705454792552463,0.5634863615861415,0.09410312916167284,0.28481850386097274
37.707,37.59,-5.2,0.11283590730567218,0.8923943538453286,0.0689990303977467,0.5623189498232416,0.09224956781235523,0.28355904400779236
37.771,37.65,-5.13,0.11088430262246946,0.8933473703379152,0.06745055663102706,0.5611505916312689,0.09039170613069201,0.28229888511789614
37.831,37.7,-5.18,0.10892034224911243,0.8943253482202498,0.06590068475413485,0.5599823030382525,0.08853016445104332,0.28103869680241833
37.911,37.76,-5.35,0.10694468641724501,0.8953283517151892,0.06435005525017497,0.5588151294244521,0.08666557883084616,0.27977916425098737
37.932,37.81,-5.27,0.10495801889432876,0.8963564127226564,0.06279932210620878,0.5576501452058469,0.08479860094107967,0.27852098787933854
37.994,37.87,-5.17,0.10296104693405134,0.8974095302593424,0.0612491526180747,0.5564884534848193,0.08292989794987886,0.27726488295032653
38.055,37.92,-5.28,0.10095450120565491,0.8984876699235902,0.05970022718065793,0.5553311856668732,0.08106015239926095,0.2760115791683805
38.095,37.98,-5.34,0.09893913570169867,0.8995907633868186,0.058153239064158375,0.5541795010424074,0.0791900620748544,0.2747618202477389
38.157,38.03,-5.19,0.09691572762374547,0.9007187079131184,0.056608894176857105,0.5530345863328241,0.07732033986850635,0.27351636345492425
38.219,38.09,-5.26,0.09488507724547109,0.9018713659088045,0.05506791081481621,0.5518976552004022,0.07545171363366414,0.27227597912590235
38.281,38.14,-5.41,0.09284800775272638,0.9030485645036502,0.05353101939889016,0.5507699477213627,0.0735849260334363,0.2710414501583046
38.342,38.2,-5.28,0.09080536506013186,0.9042500951653286,0.051998962199362446,0.5496527298214476,0.07172073438124199,0.26981357147900753
38.404,38.25,-5.25,0.08875801760385378,0.9054757133482869,0.05047249304847647,0.548547292673204,0.06985991047395435,0.26859314948724794
38.425,38.31,-5.37,0.08670685611028231,0.9067251381779651,0.048952377041111265,0.5474549520539906,0.06800324041741675,0.26738100147335153
38.486,38.36,-5.36,0.0846527933403956,0.9079980521710119,0.047439390223868005,0.546377047663567,0.06615152444418783,0.2661779550130826
38.546,38.42,-5.26,0.08259676380967419,0.9092941009919512,0.045934319272883314,0.5453149423999896,0.06430557672337085,0.2649848473375594
38.588,38.47,-5.39,0.08053972348353268,0.9106128932465848,0.04443796116077652,0.5442700215924237,0.06246622516239597,0.26380252467864374
38.65,38.53,-5.44,0.0784826494483016,0.9119540003123722,0.042951122813193035,0.5432436921894576,0.06063431120061936,0.26263184158972047
38.711,38.58,-5.29,0.07642653955781926,0.9133169562060297,0.04147462075536379,0.5422373819015891,0.0588106895945918,0.2614736602417881
38.773,38.64,-5.28,0.07437241205571687,0.9147012574885569,0.0400092807490093,0.5412525382965936,0.056996228194835144,0.2603288496947742
38.815,38.69,-5.43,0.07232130517350378,0.9161063632077706,0.03855593741981341,0.5402906278463996,0.05519180771395235,0.25919828514398324
38.878,38.75,-5.32,0.07027427670459853,0.9175316948783053,0.03711543387559198,0.539353134923959,0.05339832148591533,0.25808284714154267
38.919,38.8,-5.3,0.06823240355452871,0.9189766364988586,0.03568862131523532,0.5384415607484418,0.05161667521643582,0.2569834207926392
39.003,38.86,-5.43,0.06619678126765789,0.9204405346062163,0.03427635862852422,0.5375574222770131,0.04984778672437791,0.2559008949263058
39.044,38.91,-5.4,0.06416852353095324,0.9219226983653707,0.03287951198695312,0.5367022510415485,0.048092585674197046,0.25483616124060493
39.085,38.97,-5.29,0.06214876165546414,0.9234223996949485,0.03149895442575506,0.5358775919289274,0.04635201329940438,0.25379011342226393
39.147,39.02,-5.41,0.06013864403633054,0.924938873427256,0.03013556541744636,0.53508500190379,0.04462702211705823,0.2527636462411338
39.209,39.08,-5.5,0.05813933559222792,0.926471317502488,0.028790230437371722,0.5343260486728387,0.042918575633276036,0.25175765462022065
39.251,39.13,-5.35,0.05615201718516669,0.9280188931969557,0.02746384052187897,0.5336023092899481,0.0412276480397678,0.2507730326823855
39.313,39.19,-5.34,0.05417788502152715,0.9295807253853743,0.02615729181984559,0.5329153687015912,0.03955522390140372,0.24981067277511157
39.395,39.24,-5.49,0.05221815003515537,0.9311559028373446,0.024871485138313904,0.5322668182324287,0.0379022978348118,0.2488714644750147
39.415,39.3,-5.44,0.05027403725327219,0.9327434785482606,0.023607325482961166,0.5316582540113836,0.036269874178008664,0.2479562935739692
39.498,39.35,-5.37,0.04834678514586582,0.934342470105028,0.022365721594122683,0.531091275339015,0.034658966651100326,0.2470660410488221
39.539,39.41,-5.52,0.046437644959181686,0.935951860087184,0.021147585479129146,0.5305674829974183,0.03307059800810916,0.24620158201675177
39.601,39.46,-5.57,0.04454788003385081,0.9375705965042875,0.01995383194175005,0.5300884775042783,0.031505799679980455,0.24536378467845846
39.682,39.52,-5.43,0.04267876510812384,0.939197593270813,0.018785378109513737,0.5296558573131357,0.029965611408807442,0.24455350925150457
39.744,39.57,-5.54,0.04083158560664864,0.940831730719994,0.0176431429596419,0.5292712169622606,0.0284510808732723,0.2437716068961928
39.764,39.63,-5.64,0.03900763691524971,0.9424718561580483,0.016528046844285084,0.5289361451747817,0.026963263305255458,0.24301891863638814
39.807,39.68,-5.53,0.03720822364221928,0.9441167844600122,0.015441011015636103,0.5286522229129714,0.025503221097514184,0.2422962742776417
39.869,39.74,-5.51,0.03543465886669072,0.9457652987081103,0.014382957151387828,0.5284210213898518,0.024072023402304497,0.2416044913249082
39.909,39.79,-5.68,0.03368826337468019,0.9474161508733528,0.013354806880924384,0.528244100041427,0.022670745720774533,0.2409443739021239
39.971,39.85,-5.64,0.03197036488333052,0.9490680625410117,0.012357481312595373,0.5281230044629368,0.02130046948292372,0.24031671167592877
40.033,39.9,-5.57,0.03028229725381716,0.9507197256807185,0.011391900562418804,0.5280592643125867,0.019962281617890584,0.23972227878584632
40.136,39.96,-5.66,0.028625399693317517,0.9523698034620759,0.010458983284566762,0.5280543911862725,0.018657274114303037,0.23916183278332484
40.157,40.01,-5.66,0.02700101594638404,0.9540169311168427,0.009559646203969506,0.5281098764669201,0.01738654357037125,0.23863611358218415
40.197,40.07,-5.51,0.02541049347601561,0.9556597168488187,0.008694803651295272,0.5282271891521687,0.016151190733371176,0.23814584242307527
40.238,40.12,-5.58,0.02385518263470384,0.9572967427924237,0.007865367100485665,0.5284077736641319,0.014952320028162682,0.23769172085446122
40.301,40.18,-5.67,0.02233643582573332,0.9589265660205731,0.007072244708947615,0.5286530476448568,0.013791039074425915,0.23727442973238302
40.363,40.23,-5.57,0.02085560665505087,0.960547719601903,0.006316340860423572,0.5289643997409629,0.012668458192349017,0.23689462824096463
40.403,40.29,-5.53,0.019414049074083485,0.9621587137067756,0.005598555710502833,0.5293431873808448,0.011585689896575735,0.23655295293532808
40.486,40.34,-5.67,0.018013116513981225,0.9637580367609435,0.004919784734716463,0.5297907345477536,0.010543848378251827,0.23625001680842414
40.527,40.4,-5.65,0.01665416101184573,0.9653441566453854,0.004280918279138245,0.5303083295521529,0.009544048975029088,0.23598640838322418
40.569,40.45,-5.54,0.015338532329556334,0.9669155219407158,0.0036828411134107696,0.5308972228069091,0.00858740762890805,0.2357626908316904
40.631,40.51,-5.65,0.01406757706581656,0.9684705632147123,0.0031264319861557697,0.5315586246089956,0.007675040331817343,0.23557940112193923
40.673,40.56,-5.71,0.01284263776196715,0.9700076943518174,0.002612563182754348,0.5322937029314597,0.00680806255881512,0.23543704919502023
40.754,40.62,-5.58,0.011665052002019848,0.971525313923795,0.0021421000854576766,0.5331035812294032,0.005987588688802295,0.23533611717269978
40.795,40.67,-5.6,0.010536151507309795,0.9730218066008057,0.0017159007357363753,0.5339893362636642,0.005214731412645818,0.2352770585975458
40.857,40.73,-5.7,0.009457261226174268,0.9744955446020276,0.0013348153987184912,0.534951995945728,0.004490601128604741,0.2352602977065144
40.898,40.78,-5.58,0.008429698419130433,0.9759448891846606,0.0009996861295212191,0.5359925372072581,0.003816305324972692,0.23528622873914354
40.96,40.84,-5.51,0.0074547717401398554,0.9773681921698258,0.0007113463412698303,0.5371118838975553,0.0031929479498790693,0.23535521528135092
41.02,40.89,-5.64,0.006533780314682794,0.9787637975035947,0.0004706203746252735,0.5383109047122415,0.002621628768241542,0.2354675896457465
41.061,40.95,-5.65,0.005668012815418444,0.9801300428513819,0.00027832306864177247,0.5395904111566018,0.0021034427059312437,0.23562365228930807
41.123,41.0,-5.5,0.004858746536173355,0.981465261224228,0.0001352593327703439,0.5409511555472353,0.001639479181290006,0.23582367126920753
41.227,41.06,-5.61,0.0041072464648973525,0.9827677826359497,4.222371985112468e-05,0.5423938290557572,0.0012308214242069359,0.23606788173751414
41.248,41.11,-5.69,0.0034147643560989943,0.9840359357905276,0.0,0.5439190597981897,0.0008785457830018053,0.23635648547543672
41.29,41.17,-5.55,0.0027825378031691096,0.9852680497992374,9.360735361974816e-06,0.5455274109734193,0.0005837210193908744,0.23668965046763793
41.352,41.22,-5.54,0.002211789310957301,0.9864624559268752,7.106685579194633e-05,0.5472193790537188,0.0003474075918514403,0.23706751051696598
41.415,41.28,-5.67,0.0017037253689417403,0.987617489366077,0.00018586723560890775,0.548995392029925,0.00017065692771842626,0.2374901648997713
41.478,41.33,-5.6,0.0012595355253104392,0.9887314910383789,0.00035449827160780533,0.550855807713572,5.451068438125254e-05,0.23795767806181145
41.499,41.39,-5.55,0.0008803914622831756,0.9898028094203288,0.0005776834625131213,0.552800912098146,0.0,0.23847007935458597
41.582,41.44,-5.64,0.0005674460730573155,0.9908298023926465,0.0008561329900248546,0.5548309177816305,8.14473420474948e-06,0.23902736281182876
41.624,41.5,-5.66,0.00032183254080583423,0.9918108391102537,0.0011905433015388278,0.5569459624526986,7.995269926694447e-05,0.2396294869658465
41.665,41.55,-5.51,0.0001446634201768021,0.9927443018909324,0.0015815966945432645,0.5591461074431221,0.0002164188822586144,0.240276374703372
41.728,41.61,-5.58,3.702972175694369e-05,0.9936285881202717,0.002029960902692988,0.5614313363490019,0.0004185246587476832,0.24096791316056124
41.789,41.66,-5.67,0.0,0.9944621121704165,0.002536288683631034,0.5638015537231801,0.0006872369986111563,0.24170395365668185
41.852,41.72,-5.58,3.4619445178754275e-05,0.9952433073299336,0.003101217408698615,0.5662565838408381,0.0010235076646146087,0.24248431166590415
41.893,41.77,-5.56,0.00014190898001896588,0.9959706277418459,0.0037253686547318887,0.5687961695399427,0.0014282724044640883,0.2433087668264379
41.955,41.83,-5.69,0.00032286436177352066,0.9966425503466123,0.004409347798167794,0.5714199711379717,0.0019024501370783825,0.2441770629861514
42.017,41.88,-5.65,0.0005784552905570509,0.9972575768266436,0.005153743611645571,0.5741275654263338,0.002446942133841736,0.24508890828379226
42.058,41.94,-5.56,0.0009096245247784315,0.9978142355488934,0.00595912786322933,0.5769184447440063,0.0030626311956141582,0.24604397526496938
42.119,41.99,-5.67,0.0013172870044899066,0.9983110835021417,0.00682605491832521,0.5797920161320577,0.003750380826288247,0.24704190103214677
42.161,42.05,-5.7,0.0018023289834091163,0.9987467082257632,0.007755061344302402,0.5827476005708422,0.004511034403681979,0.24808228742800972
42.222,42.1,-5.53,0.0023656071703062977,0.9991197297269384,0.008746665517753797,0.5857844323017848,0.00534541434857429,0.24916470125162377
42.324,42.16,-5.64,0.0030079478804296146,0.9994288023832724,0.009801367234277778,0.5889016582356681,0.006254321292707619,0.25028867450676917
42.364,42.21,-5.75,0.003730146197670284,0.9996726168276007,0.010919647320645773,0.5920983374491985,0.007238533246600354,0.2514537046817334
42.385,42.27,-5.62,0.004532965148217505,0.9998499018115062,0.012101967249206372,0.5953734407714334,0.00829880476804498,0.2526592550597151
42.447,42.32,-5.57,0.005417134886507517,0.9999594260437956,0.013348768754412798,0.5987258504614187,0.009435866132194893,0.2539047550589012
42.508,42.38,-5.71,0.006383351894320255,1.0,0.01466047345143928,0.6021543599781572,0.010650422504134087,0.25518960060130164
42.55,42.43,-5.68,0.0074322781939067505,0.9999704776988856,0.01603748245691029,0.6056576738438953,0.011943153114826426,0.25651315450953593
42.611,42.49,-5.56,0.008564540576069377,0.9998697584420004,0.017480176011791613,0.6092344076017332,0.013314710441357448,0.25787474693087564
42.714,42.54,-5.68,0.009780729844156483,0.9996967885123565,0.018988913106503465,0.6128830878686677,0.014765719392416336,0.25927367578794425
42.734,42.6,-5.76,0.011081400074965964,0.9994505628285034,0.0205640311083066,0.6166021524852915,0.016296776499980428,0.2607092072555685
42.797,42.65,-5.61,0.012467067897581924,0.9991301265503899,0.02220584539097635,0.6203899507634453,0.01790844911817405,0.26218057626330504
42.858,42.71,-5.6,0.013938211791224333,0.9987345766334546,0.023914648966741243,0.624244743833079,0.019601274630278512,0.2636869870231366
42.899,42.76,-5.68,0.015495271403258796,0.9982630633272935,0.025690712120422884,0.6281647050894291,0.02137575966485581,0.26522761358180263
42.961,42.82,-5.59,0.01713864688857007,0.9977147916151459,0.02753428204565915,0.632147920741494,0.023232379321954585,0.2668016003971935
43.062,42.87,-5.56,0.01886869827156473,0.9970890225903201,0.029445582483090663,0.636192390462722,0.025171576410415522,0.2684080629381728
43.082,42.93,-5.69,0.020685744832119286,0.9963850747656972,0.03142481336045057,0.6402960281447725,0.027193760697363054,0.27004608830714305
43.123,42.98,-5.71,0.022590064516781125,0.995602325312667,0.033472150434553614,0.6444566627552563,0.02929930817102579,0.27171473588468126
43.184,43.04,-5.57,0.024581893376471785,0.9947402112262257,0.03558774493519483,0.6486720393004968,0.031488560318056115,0.2734130379956277
43.225,43.09,-5.64,0.02666142503188886,0.9937982304133041,0.037771723210967584,0.652939819894403,0.03376182341650013,0.27514000059607613
43.287,43.15,-5.72,0.028828810167748305,0.9927759427016234,0.04002418637698137,0.657257584934491,0.03611936784553719,0.27689460398074345
43.328,43.2,-5.62,0.03108415605694982,0.9916729707665495,0.04234520996441297,0.6616228343859296,0.03856142741308704,0.2786758035101353
43.431,43.26,-5.6,0.033427526115697694,0.9904890009735408,0.044734843571805176,0.6660329891742387,0.04108819870238519,0.2804825303567644
43.451,43.31,-5.81,0.035858939490520006,0.9892237841339719,0.04719311051803806,0.6704853926869271,0.043699840438614336,0.2823136922695238
43.491,43.37,-5.73,0.038378370678013196,0.9878771361723717,0.04972000749692559,0.6749773123840177,0.04639647287665513,0.2841681743552196
43.552,43.42,-5.64,0.040985749178043165,0.986448938703398,0.052315504233423786,0.6795059415171287,0.049178177210982665,0.28604483987627766
43.613,43.48,-5.73,0.04368095918107843,0.9849391395171335,0.054979543141487786,0.684068400956567,0.05204499500865367,0.28794253106378787
43.674,43.53,-5.71,0.04646383929027396,0.9833477529716571,0.057712038983640634,0.6886617411258107,0.054996927666246136,0.2898600699452802
43.715,43.59,-5.54,0.04933418227886831,0.9816748602923099,0.06051287853231873,0.6932829440427954,0.05803393589156373,0.29179625918677415
43.798,43.64,-5.6,0.05229173488344016,0.9799206097774431,0.06338192023307714,0.6979289254673837,0.06115593921091731,0.2937498829486339
43.819,43.7,-5.71,0.0553361976335835,0.9780852169106291,0.06631899386977269,0.70259653715422,0.06436281550282773,0.29571970775462475
43.881,43.75,-5.6,0.058467224718587334,0.9761689643793395,0.06932390023186713,0.7072825692098831,0.06765440055906062,0.2977044833733408
43.942,43.81,-5.55,0.061684423891726,0.9741722020000011,0.0723964107840474,0.711983752552775,0.07103048767394993,0.2997029437109375
43.984,43.86,-5.71,0.06498735641274345,0.972095346549269,0.0755362673384462,0.7166967614736556,0.07449082726297576,0.3017138077139273
44.047,43.92,-5.63,0.06837553702902988,0.9699388815014007,0.07874318172984988,0.7214182162942252,0.07803512651154,0.3037357802806901
44.151,43.97,-5.51,0.07184843399588263,0.967703356671814,0.08201683549442892,0.7261446861208006,0.08166304905485618,0.30576755318027454
44.172,44.03,-5.62,0.0754054691361231,0.9653893877671984,0.08535687955272005,0.7308726916898548,0.08537421468984106,0.30780780597708224
44.193,44.08,-5.64,0.07904601793922318,0.9629976558429777,0.08876293389774387,0.7355987083021368,0.08916819911986962,0.30985520696015634
44.255,44.14,-5.5,0.08276940969995004,0.9605289066694467,0.09223458728921564,0.7403191688422407,0.09304453373325179,0.31190841407598613
44.316,44.19,-5.6,0.08657492769644881,0.9579839500083653,0.09577139695489453,0.7450304668807055,0.09700270541629748,0.3139660758639481
44.377,44.25,-5.68,0.09046180940761642,0.9553636588020935,0.09937288830025416,0.7497289598558136,0.10104215640182318,0.31602683239374785
44.419,44.3,-5.59,0.09442924676960301,0.9526689682774756,0.1030385546278495,0.7544109723322115,0.10516228415391964,0.3180893162044913
44.521,44.36,-5.57,0.09847638647129199,0.9499008749666397,0.10676785686798144,0.7590727993333495,0.10936244128975031,0.3201521532452526
44.542,44.41,-5.73,0.10260233028861747,0.9470604356468214,0.11056022332247455,0.7637107097445718,0.1136419355390579,0.3222139638172197
44.603,44.47,-5.72,0.10680613545751812,0.9441487662013723,0.11441504942348939,0.7683209497836433,0.11800002974195864,0.32427336351764924
44.644,44.52,-5.6,0.11108681508523412,0.9411670404043064,0.11833169750931814,0.7728997465354873,0.12243594188549946,0.3263289641859316
44.705,44.58,-5.71,0.11544333859957294,0.9381164886309231,0.1223094966191036,0.7774433115478664,0.12694884517932178,0.3283793748521047
44.745,44.63,-5.78,0.11987463223569125,0.9349983964972375,0.12634774230836235,0.7819478444846478,0.13153786817062754,0.3304232026882083
44.807,44.69,-5.59,0.12437957955985517,0.9318141034310822,0.13044569648707824,0.7864095368331986,0.13620209489850557,0.3324590539628903
44.889,44.74,-5.61,0.12895702202954573,0.9285650011778337,0.13460258728200525,0.7908245756622861,0.1409405650875573,0.3344855349996454
44.909,44.8,-5.71,0.13360575958919776,0.92525253224369,0.13881760892468506,0.7951891474266553,0.14575227438065216,0.3365012531390027
44.993,44.85,-5.56,0.1383245513007794,0.9218781882793546,0.1430899216665501,0.7994994418142635,0.15063617461055973,0.33850481770488305
45.034,44.91,-5.49,0.14311211600836332,0.9184435084068849,0.14741865172236127,0.8037516556320317,0.15559117411017195,0.3404948409752032
45.097,44.96,-5.61,0.14796713303580392,0.9149500774923773,0.15180289124313764,0.8079419967258991,0.16061613806098943,0.34246993915667345
45.158,45.02,-5.57,0.1528882429165829,0.9113995243672123,0.15624169831961582,0.8120666879310117,0.1657098888795273,0.34442873336362734
45.261,45.07,-5.43,0.15787404815481262,0.9077935200007521,0.16073409701714322,0.8161219710480013,0.17087120664128116,0.34636985060061026
45.303,45.13,-5.53,0.16292311401629067,0.9041337756276687,0.16527907744281298,0.8201041108413119,0.176098829541869,0.3482919247483431
45.324,45.18,-5.56,0.16803396934835652,0.9004220408334069,0.16987559584557782,0.8240093990553349,0.18139145439492343,0.35019359755257656
45.365,45.24,-5.37,0.17320510742716244,0.8966601016015985,0.17452257475000263,0.8278341584438018,0.18674773716624982,0.35207351961524513
45.427,45.29,-5.34,0.1784349868309087,0.8928497783273209,0.1792189031242438,0.8315747468074878,0.19216629354372405,0.3539303513872094
45.509,45.35,-5.44,0.1837220323376394,0.8889929237999057,0.1839634365827682,0.835227561034961,0.19764569954235706,0.35576276416180597
45.529,45.4,-5.33,0.18906463584630478,0.8850914211586954,0.18875499762424275,0.8387890411409406,0.20318449214393916,0.35756944106839833
45.612,45.46,-5.31,0.19446115731992203,0.8811471818248754,0.19359237590499792,0.8422556742967434,0.20878116997070334,0.3593490780651259
45.632,45.51,-5.41,0.19990992574974667,0.8771621434123786,0.19847432854852137,0.8456239988472067,0.21443419399245206,0.3611003849301243
45.694,45.57,-5.38,0.2054092401393531,0.8731382676209816,0.20339958049148033,0.8488906083084068,0.22014198826655923,0.3628220862506051
45.756,45.62,-5.22,0.21095737050746782,0.8690775381149436,0.2083668248667475,0.8520521553404927,0.22590294071018693,0.3645129224093022
45.796,45.68,-5.26,0.21655255890837066,0.8649819583907261,0.2133747234238288,0.855105355689877,0.23171540390396891,0.3661716505678439
45.859,45.73,-5.31,0.22219302046868772,0.860853549637346,0.21842190698698777,0.8580469920948431,0.23757769592632103,0.36779704564656585
45.901,45.79,-5.12,0.22787694443943346,0.8566943485928209,0.22350697595123697,0.8608739181483599,0.24348810121749626,0.36938790130011034
46.004,45.84,-5.06,0.23360249526220533,0.8525064053999527,0.22862850081624686,0.8635830621115699,0.24944487147249458,0.37094303088789293
46.025,45.9,-5.18,0.23936781364847542,0.8482917814645073,0.23378502275810714,0.8661714306711061,0.25544622656194366,0.37246126843828126
46.066,45.95,-5.1,0.2451710176709036,0.8440525473187805,0.23897505423871365,0.8686361126332389,0.2614903554800897,0.373941469605137
46.127,46.01,-4.98,0.25101020386553685,0.8397907804936549,0.24419707965239829,0.870974282547823,0.26757541731907664,0.37538251261521255
46.19,46.06,-5.07,0.256883448343694,0.8355085634024695,0.24944955600929908,0.8731832042550516,0.2736995422687,0.37678329920481984
46.231,46.12,-5.06,0.2627888079122937,0.8312079812403007,0.25473091365485234,0.8752602343481117,0.2798608326408021,0.378142755544182
46.293,46.17,-4.89,0.2687243212013852,0.8268911199024688,0.26003955702466486,0.8772028255449842,0.28605736391744296,0.37945983314785314
46.356,46.23,-4.94,0.2746880097977112,0.8225600639261325,0.26537386543392916,0.8790085299626272,0.2922871858219533,0.3807335097694794
46.418,46.28,-5.0,0.280677879383178,0.8182168944587457,0.2707321939004741,0.8806750022866184,0.2985483234119447,0.38196279027899077
46.481,46.34,-4.89,0.2866919208770982,0.8138636872570343,0.276112874000475,0.8822000028290379,0.30483877819333627,0.3831467075200702
46.542,46.39,-4.82,0.29272811158104206,0.8095025107199484,0.28151421475579247,0.8835814004671703,0.31115652925443615,0.38428432314549044
46.562,46.45,-4.95,0.2987844163251122,0.8051354239588183,0.2869345035518044,0.8848171754555386,0.31749953441907836,0.38537472842773873
46.623,46.5,-4.83,0.304858788614465,0.8007644749077273,0.2923720070844291,0.8859054221039562,0.32386573141775865,0.3864170450422553
46.684,46.56,-4.7,0.31094917177491493,0.796391698476985,0.29782497233485844,0.8868443513144258,0.33025303907566034,0.3874104258205075
46.724,46.61,-4.75,0.3170535000964982,0.7920191147524525,0.3032916275704303,0.8876322929696597,0.336659358516409,0.3883540554699376
46.806,46.67,-4.76,0.32316969997391093,0.7876487272433227,0.30877018337001416,0.8882676981656912,0.3430825743803627,0.3892471512575423
46.846,46.72,-4.57,0.32929569104279843,0.783282521180761,0.314258833672223,0.8887491412807172,0.34952055605624704,0.390088963653515
46.909,46.78,-4.6,0.33542938731096955,0.7789224618694952,0.31975575684475604,0.8890753218720163,0.3559711589249663,0.39087877693114526
46.972,46.83,-4.69,0.34156869828372227,0.7745704930940831,0.3252591167731613,0.8892450663927516,0.3624322256144458,0.39161590971912696
47.012,46.89,-4.53,0.34771153008257677,0.7702285355811632,0.3307670639672781,0.889257329720806,0.3689015872643775,0.39229971550255505
47.094,46.94,-4.45,0.3538557865568338,0.7658984855185246,0.3362777366836154,0.8891111964923524,0.3753770647997518,0.3929295830691175
47.115,47.0,-4.6,0.35999937038751584,0.7615822131313247,0.34178926206197224,0.8888058822335032,0.38185647021204555,0.39350493689730676
47.176,47.05,-4.49,0.3661401841833608,0.7572815613153835,0.3472997572746356,0.8883407342843008,0.3883376078469111,0.3940252374838713
47.237,47.11,-4.33,0.3722761315686333,0.7529983443272145,0.35280733068646936,0.8877152325106168,0.39481827569719447,0.3944899816081707
47.278,47.16,-4.43,0.37840511826254797,0.7487343465303565,0.35831008302414097,0.8869289898010834,0.40129626670008606,0.3948987025315762
47.34,47.22,-4.45,0.3845250531500456,0.7444913211976621,0.3638061085526248,0.8859817523477268,0.40776937003718217,0.3952509701305298
47.4,47.27,-4.27,0.39063384934354156,0.7402709893693695,0.36929349625700464,0.8848733997103321,0.41423537243622777,0.3955463909622299
47.462,47.33,-4.28,0.39672942523515575,0.7360750387668642,0.37477033102755647,0.8836039446655852,0.4206920594733034,0.39578460826214085
47.525,47.38,-4.37,0.4028097055388803,0.7319051227619267,0.38023469484612926,0.8821735328427771,0.4271372168741971,0.39596530187273105
47.608,47.44,-4.22,0.4088726223221326,0.7277628594009921,0.38568466797191936,0.8805824421484566,0.4335686318136764,0.39608818810308155
47.628,47.49,-4.12,0.41491611602619277,0.7236498304835225,0.3911183301248806,0.8788310819829157,0.43998409421136764,0.396153019519313
47.669,47.55,-4.22,0.42093813647514094,0.7195675806930938,0.39653376166523463,0.8769199922518492,0.4463813980229338,0.3961595846662207
47.73,47.6,-4.13,0.4269366438730222,0.7155176167793751,0.40192904476771624,0.8748498421771688,0.4527583425252295,0.39610770772107623
47.874,47.66,-3.96,0.43290960978904186,0.7115014067889972,0.40730226458929303,0.8726214289118798,0.4591127335941189,0.39599724808116343
47.895,47.71,-4.05,0.43885501813062383,0.707520379343356,0.4126515104291377,0.8702356759650278,0.465442384973666,0.3958280998872187
47.916,47.77,-4.06,0.44477086610413824,0.7035759229616305,0.41797487687961266,0.867693631443851,0.4717451195354302,0.39560019148550346
47.937,47.82,-3.87,0.4506551651630404,0.6996693854275625,0.42327046496695103,0.8649964661213734,0.4780187705266318,0.3953134848316978
47.998,47.88,-3.85,0.4565059419430956,0.6958020731986877,0.4285363832803036,0.8621454713385073,0.48426118280599173,0.39496797484015816
48.059,47.93,-3.98,0.4623212391843073,0.6919752508567036,0.43377074908787566,0.8591420567502643,0.4904702140660664,0.3945636886823949
48.141,47.99,-3.78,0.4680991166391115,0.688190140597605,0.4389716894389449,0.8559877479260963,0.4966437360409124,0.3941006850389133
48.203,48.04,-3.67,0.4738376519663776,0.6844479217601466,0.444137342250638,0.852684183814692,0.5027796356979488,0.39357905330883386
48.223,48.1,-3.78,0.4795349416107669,0.6807497303911754,0.449265857378494,0.849233114083662,0.5088758164128998,0.3929989127819688
48.264,48.15,-3.71,0.485189101667041,0.6770966588464272,0.45435539767002214,0.845636396344483,0.5149301991267321,0.39236041177825776
48.328,48.21,-3.51,0.49079826872899207,0.673489755425455,0.4594041400006591,0.8418959932729044,0.5209407234835561,0.3916637267595779
48.39,48.26,-3.57,0.49636060072276295,0.6699300240394525,0.4644102762917362,0.8380139696347684,0.5269053489485355,0.3909090614189768
48.453,48.32,-3.6,0.5018742777243834,0.6664184239108878,0.4693720145102152,0.8339924892269301,0.5328220559049025,0.3900966457523507
48.515,48.37,-3.49,0.5073375027613414,0.6629558693040736,0.47428757964999557,0.8298338117427313,0.5386888467292535,0.3892267351174615
48.557,48.43,-3.44,0.5127485025980014,0.6595432292858879,0.4791552146945957,0.8255402895712037,0.544503746844365,0.38829960928498514
48.618,48.48,-3.52,0.5181055285046996,0.6561813275157965,0.4839731815609986,0.8211143645388388,0.5502648057488073,0.3873155714860844
48.68,48.54,-3.38,0.523406857010374,0.6528709420642015,0.4887397620244354,0.8165585646024065,0.5559700980226452,0.3862749474608358
48.722,48.59,-3.24,0.528650790638669,0.6496128052579709,0.49345325862389616,0.8118755005010149,0.5616177243085213,0.38517808451169794
48.764,48.65,-3.34,0.5338356586275549,0.6464076035518914,0.49811199554824886,0.8070678623752667,0.5672058122674478,0.3840253505661155
48.825,48.7,-3.33,0.5389598176325848,0.643255977424838,0.5027143195029707,0.8021384163610897,0.5727325175086863,0.38281713325228867
48.949,48.76,-3.12,0.5440216524139561,0.6401585212996586,0.5072586005576252,0.7970900011655623,0.5781960244931803,0.38155383899204187
48.969,48.81,-3.23,0.549019576507554,0.6371157834860327,0.5117432329743516,0.7919255246317792,0.5835945474100832,0.3802358921145762
48.989,48.87,-3.28,0.5539520328801448,0.6341282661458111,0.5161666360177255,0.7866479602994979,0.5889263310259629,0.3788637339947158
49.051,48.92,-3.12,0.558817494568835,0.631196425280537,0.5205272547463445,0.7812603439680236,0.5941896515062967,0.3774378222190307
49.113,48.98,-3.12,0.563614465304898,0.6283206707408876,0.5248235607864706,0.775765770267434,0.5993828172088715,0.37595862978293465
49.153,49.03,-3.27,0.568341480122063,0.6255013662576441,0.5290540530880059,0.7701673892438576,0.6045041694486962,0.3744266443215683
49.215,49.09,-3.14,0.5729971059493455,0.6227388294936722,0.5332172586630035,0.7644684029642169,0.6095520832339937,0.3728423673770298
49.297,49.14,-3.06,0.5775799421885008,0.6200333321163098,0.5373117333068222,0.7586720621457105,0.6145249679728185,0.3712063137043029
49.317,49.2,-3.22,0.5820886212762131,0.6173850998895339,0.5413360623019692,0.7527816628152494,0.6194212681497858,0.36951901061811737
49.38,49.25,-3.22,0.5865218092311768,0.6147943127853873,0.5452888611045987,0.7468005430040912,0.6242394639723293,0.36778099738289943
49.442,49.31,-3.05,0.5908782061862401,0.6122611051143703,0.5491687760135643,0.7407320794829174,0.6289780719858309,0.36599282464785077
49.505,49.36,-3.12,0.5951565469057374,0.6097855656748085,0.552974484821874,0.7345796845424267,0.6336356456568728,0.3641550539289979
49.546,49.42,-3.18,0.5993556012880462,0.6073677379214866,0.5567046974503481,0.7283468028241395,0.6382107759237471,0.362268257139775
49.606,49.47,-2.97,0.6034741748532672,0.605007620154006,0.560358156563155,0.7220369082056183,0.6427020917132726,0.36033301617127833
49.668,49.53,-2.89,0.6075111092157723,0.6027051657252792,0.5639336381647723,0.7156535007435842,0.6471082604229139,0.3583499225227125
49.729,49.58,-2.94,0.6114652825411958,0.6004602832702962,0.5674299521778041,0.7092001036773987,0.6514279883671779,0.35631957698178857
49.75,49.64,-2.76,0.6153356099872482,0.5982728369548894,0.5708459430009685,0.7026802604942215,0.6556600211872955,0.35424258935402636
49.813,49.69,-2.61,0.6191210441275941,0.5961426467437712,0.574180490046478,0.6960975320560967,0.6598031442232943,0.35211957823919315
49.874,49.75,-2.67,0.6228205753579472,0.5940694886867658,0.5774325082559679,0.6894554937884327,0.6638561828477246,0.34995117085260463
49.937,49.8,-2.64,0.6264332322834897,0.5920530952220958,0.5806009485940254,0.6827577329290154,0.6678180027604852,0.34773800288872836
49.979,49.86,-2.45,0.6299580820866754,0.5900931554957954,0.5836847985182301,0.6760078458366641,0.6716875102443942,0.34548071842431854
