Time_Host,Time_Arduino,easingdata,CH1_Oxy,CH1_Deoxy,CH2_Oxy,CH2_Deoxy,CH3_Oxy,CH3_Deoxy
0.012,45.75,8.52,0.0,0.8731664032704949,0.4604087335975292,0.0,1.0,0.3492123271309639
1.388,0.04,0.0,0.004632222416605981,0.8752757624709427,0.4518097594839171,0.016940416029324185,0.9843458538558562,0.34326773790598025
1.408,0.1,0.0,0.009277031486511104,0.8773911583445112,0.44322320651430813,0.0338730379290363,0.9686909472957735,0.33731987582044975
1.428,0.16,0.0,0.013932751760325716,0.8795117873745102,0.43465252210934524,0.050790924316891806,0.9530415680967116,0.33137120282033333
1.449,0.21,0.0,0.018597704685969337,0.8816368398056893,0.4261011381273857,0.06768714863111429,0.937403995694101,0.32542418104990406
1.469,0.27,0.0,0.02327021032242372,0.8837655002324337,0.4175724675648402,0.08455480600819887,0.9217844950317087,0.31948127033503343
1.489,0.32,0.0,0.027948589050272497,0.885896948188139,0.40906990129128445,0.10138702011663218,0.9061893104470032,0.3135449256679125
1.509,1.07,0.0,0.032631163275300926,0.888030358734855,0.400596804825411,0.11817694993252187,0.8906246596043779,0.3076175946981848
1.53,1.13,0.0,0.03731625912158443,0.8901649030523604,0.39215651515756444,0.1349177964438333,0.8750967274879415,0.3017017152353102
1.572,1.18,0.0,0.04200220811064528,0.8922997490258925,0.3837523376242827,0.15160280927062428,0.8596116604649839,0.29579971276682204
1.632,1.24,0.0,0.046687348823402974,0.8944340618318305,0.37538754283995507,0.16822529318934676,0.8441755604306093,0.28991399799699424
1.694,1.29,-0.08,0.05137002854178581,0.8965670045206824,0.3670653636904058,0.18477861454994268,0.8287944790434454,0.28404696441029115
1.735,1.35,-0.07,0.05604860486701097,0.8986977385967959,0.3587889923929113,0.20125620757510732,0.81347441206176,0.27820098586385766
1.796,1.4,-0.01,0.06072144731167513,0.900825424594267,0.35056157762686424,0.21765158053172795,0.7982212937887359,0.2723784142132359
1.856,1.46,-0.05,0.06538693886293369,0.9029492226485842,0.3423862217389846,0.23395832176515097,0.7830409916350904,0.26658157697547213
1.917,1.51,-0.05,0.07004347751417928,0.9050682930636443,0.33426597802665586,0.25017010558759845,0.767939300806665,0.2608127750337246
1.958,1.57,0.03,0.07468947776276925,0.9071817968738637,0.3262038481026597,0.26628069801271137,0.7529219391240777,0.25507428038732505
2.04,1.62,0.01,0.0793233720715014,0.9092888964011934,0.31820277934430563,0.28228396232877984,0.7379945419810441,0.24936833395098493
2.061,1.68,-0.05,0.08394361229169402,0.9113887558068707,0.31026566242970577,0.2981738645037197,0.7231626574474803,0.2436971434065229
2.122,1.73,-0.01,0.0885486710458887,0.9134805416377391,0.3023953289637119,0.3139444784153057,0.7084317415230603,0.23806288111016433
2.164,1.79,-0.01,0.09313704306836114,0.9155634233669373,0.2945945491958218,0.3295899909005975,0.693807153546447,0.2324676820581726
2.226,1.84,-0.09,0.09770724650179094,0.9176365739287425,0.2868660298321646,0.34510470661894066,0.6792941517649782,0.2269136419133939
2.287,1.9,-0.11,0.10225782414859468,0.9196991702473637,0.2792124119434734,0.36048305272341885,0.6648978890691462,0.22140281509521514
2.329,1.95,-0.09,0.10678734467556401,0.9217503937595286,0.27163626897074117,0.37571958333616506,0.6506234088957683,0.21593721293537163
2.413,2.01,-0.18,0.11129440377057864,0.9237894309307603,0.2641401048300304,0.3908089838235014,0.6364756413033246,0.21051880190195604
2.433,2.06,-0.21,0.11577762525027882,0.9258154737652754,0.25672635211765804,0.4057460748674704,0.622459399222493,0.20514950189386313
2.496,2.12,-0.14,0.12023566211768637,0.9278277203094603,0.2493973704167106,0.42052581633092917,0.6085793748844948,0.19983118460771562
2.559,2.17,-0.14,0.12466719756886412,0.9298253751488668,0.24215544470559916,0.4351433109139227,0.5948401364294352,0.19456567197906197
2.601,2.23,-0.19,0.1290709459477963,0.9318076498986781,0.2350027838691467,0.449593807599504,0.5812461246964344,0.18935473469936526
2.663,2.28,-0.15,0.13344565364875602,0.9337737636875986,0.227941519312495,0.4638727048875864,0.5678016501969625,0.18420009081004748
2.726,2.34,-0.11,0.13779009996552274,0.9357229436351242,0.22097370367793506,0.4779755538158383,0.5545108902724627,0.17910340437465114
2.788,2.39,-0.19,0.14210309788695796,0.9376544253220911,0.2141013096645996,0.4918980607670517,0.54137788643703,0.1740662842300764
2.85,2.45,-0.18,0.1463834948386599,0.9395674532542104,0.20732622895081076,0.5056360900628388,0.5284065419056027,0.169090282817829
2.89,2.5,-0.12,0.15063017337066437,0.9414612813180739,0.20065027121874324,0.5191856663439114,0.5156006193078392,0.16417689509618816
2.973,2.56,-0.17,0.15484205179137317,0.9433351732289403,0.1940751632809484,0.5325429767375327,0.5029637385875639,0.15932755753415292
2.993,2.61,-0.24,0.1590180847480276,0.9451884029695622,0.18760254830816944,0.5457043728130063,0.49049937508739283,0.15454364718794106
3.056,2.67,-0.21,0.16315726375412373,0.947020255219343,0.18123398515775008,0.5586663723263299,0.47821085781788,0.14982648086067057
3.159,2.72,-0.25,0.16725861766422226,0.9488300257731747,0.17497094780181172,0.5714256607553819,0.4661013679102718,0.1451773143456768
3.18,2.78,-0.29,0.17132121309665724,0.9506170219493514,0.16881482485425173,0.5839790926272755,0.4541739372516905,0.14059734175377878
3.222,2.83,-0.26,0.17534415480469442,0.9523805629860187,0.1627669191954884,0.5963236926397825,0.4424314473013083,0.13608769492474712
3.263,2.89,-0.16,0.17932658599673432,0.9541199804256766,0.15682844769374876,0.6084566565790548,0.4308766280858213,0.13164944292318614
3.325,2.94,-0.21,0.18326768860619602,0.9558346184873264,0.15100054102157545,0.6203753520361659,0.41951205737229524,0.12728359161899014
3.385,3.0,-0.21,0.1871666835117617,0.9575238344259334,0.1452842435661231,0.6320773189252717,0.4083401600162608,0.12299108335238704
3.447,3.05,-0.16,0.19102283070870588,0.9591869988789593,0.13968051343173116,0.6435602698064149,0.3973632074827714,0.11877279668326868
3.527,3.11,-0.21,0.19483542943208607,0.9608234961998073,0.1341902225332001,0.6548220900161643,0.3865833175379968,0.11462954622407727
3.547,3.16,-0.26,0.19860381823262063,0.9624327247780731,0.12881415677813923,0.6658608376094087,0.37600245410878985,0.1105620825551219
3.609,3.22,-0.23,0.20232737500612658,0.964014097346535,0.12355301633667115,0.6766747431157483,0.3656224273075209,0.10657109222091969
3.651,3.27,-0.24,0.20600551697744157,0.9655670412748226,0.11840741599669705,0.6872622091140468,0.3554448936193317,0.10265719780600353
3.713,3.33,-0.31,0.2096377006398119,0.9670909988496772,0.11337788560286036,0.6976218096288145,0.3454713562488107,0.09882095808861265
3.776,3.38,-0.32,0.21322342165077893,0.9685854275417227,0.10846487057729695,0.7077522893522122,0.33570316562294905,0.09506286827074194
3.817,3.44,-0.33,0.21676221468563428,0.9700498002586719,0.10366873252022471,0.7176525626956091,0.3261415200470943,0.09138336028307793
3.878,3.49,-0.4,0.22025365324954288,0.9714836055849392,0.09898974988839608,0.7273217126747716,0.31678746651048206,0.0877828031633518
3.96,3.55,-0.4,0.22369734944944444,0.9728863480076848,0.09442811874938818,0.7367589896329017,0.307641901637787,0.08426150350658201
3.98,3.6,-0.34,0.22709295372684762,0.9742575481293756,0.0899839536096278,0.7459638098058792,0.2987055727829961,0.08081970598556228
4.044,3.66,-0.35,0.23044015455263311,0.9755967428670016,0.08565728831396294,0.7549357537341783,0.28997907926178496,0.07745759393979408
4.126,3.71,-0.4,0.23373867808498366,0.9769034856381058,0.08144807701451258,0.7636745645260029,0.2814628737184693,0.07417529003090356
4.147,3.77,-0.36,0.23698828779157669,0.9781773465338034,0.07735619520646422,0.7721801459762647,0.2731572636235285,0.0709728569624141
4.21,3.82,-0.35,0.2401887840372176,0.9794179124789151,0.07338144082845265,0.7804525605460986,0.26506241289764176,0.06785029826159214
4.272,3.88,-0.43,0.24334000363816363,0.980624787379285,0.06952353542514109,0.788492027207677,0.25717834365813186,0.06480755912099577
4.334,3.93,-0.45,0.2464418193844625,0.9817975922562866,0.06578212536961305,0.7962989191591887,0.24950493808366467,0.061844527297343514
4.375,3.99,-0.43,0.24949413953169725,0.9829359653684768,0.062156783143171045,0.8038737614149566,0.24204194039300952,0.05896103406535783
4.416,4.04,-0.5,0.25249690726357593,0.9840395623203332,0.05864700867013666,0.8112172282757519,0.23478895893361448,0.05615685522431635
4.498,4.1,-0.54,0.2554501001268214,0.9851080561579995,0.05525223070524135,0.8183301406844026,0.2277454683756914,0.053431712155151606
4.54,4.15,-0.51,0.25835372943981644,0.986141137451971,0.05197180827118039,0.8252134634718057,0.22091081200744644,0.050785272925998146
4.621,4.21,-0.53,0.2612078396764474,0.9871385143666424,0.04880503214388013,0.8318683024984429,0.21428420412703494,0.04821715344405529
4.642,4.26,-0.6,0.26401250782657665,0.9880999127166071,0.045751126383004714,0.838295901696465,0.20786473252676943,0.04572691865155065
4.704,4.32,-0.55,0.26676784273454557,0.9890250760095877,0.04280924990520468,0.844497640017402,0.2016513610650681,0.043314083763495236
4.767,4.37,-0.51,0.26947398441706516,0.9899137654758824,0.039978498097597924,0.8504750282905768,0.19564293232160077,0.04097811554486163
4.828,4.43,-0.56,0.2721311033618069,0.9907657600842742,0.037257904468984325,0.8562297059973181,0.18983817033107506,0.038718433624843125
4.869,4.48,-0.56,0.2747393998079655,0.9915808565444062,0.034646442336315156,0.8617634379661165,0.18423568339110144,0.036534411845942
4.931,4.54,-0.5,0.2772991030100488,0.9923588692957088,0.03214302654395999,0.8670781109938869,0.17883396693959958,0.03442537964570115
4.992,4.59,-0.53,0.27981047048615026,0.9930996304829978,0.029746515213337658,0.8721757303985144,0.1736314064972367,0.03239062346889599
5.054,4.65,-0.55,0.282273787251974,0.9938029899188786,0.027455711520489867,0.8770584165078531,0.16862628067042904,0.03042938820796174
5.095,4.7,-0.51,0.2846893650418784,0.9944688150330927,0.02526936549917671,0.8817284010903294,0.16381676421047922,0.02854087866934144
5.156,4.76,-0.53,0.28705754151821145,0.9950969908089181,0.023186175867081757,0.8861880237322695,0.1592009311244722,0.0267242610633183
5.237,4.81,-0.62,0.28937867947020945,0.9956874197067093,0.021204791872740332,0.8904397281670025,0.15477675783360142,0.02497866451479859
5.258,4.87,-0.61,0.2916531660037426,0.9962400215746255,0.019323815160840245,0.8944860585607373,0.15054212637464107,0.023303182592475203
5.299,4.92,-0.6,0.29388141172318843,0.9967547335465803,0.017541801653594792,0.8983296557601776,0.14649482764032024,0.021696874853825668
5.361,4.98,-0.65,0.2960638499067173,0.9972315099274476,0.015857263445954888,0.9019732535067829,0.14263256465438268,0.02015876840346958
5.403,5.03,-0.64,0.29820093567624656,0.9976703220655815,0.014268670712492057,0.9054196746225291,0.1389529558771414,0.018687859462477793
5.463,5.09,-0.57,0.30029314516328054,0.9980711582127468,0.01277445362383118,0.9086718271719649,0.13545353853736636,0.01728311494622315
5.525,5.14,-0.6,0.3023409746717962,0.9984340233715896,0.011373004270547143,0.9117327006052754,0.13213177198638823,0.015943474048309175
5.606,5.2,-0.64,0.30434493983927247,0.9987589391308189,0.010062678592463513,0.9146053618869777,0.12898504107035985,0.01466784982806721
5.626,5.25,-0.58,0.3063055747969037,0.9990459434883006,0.008841798311309436,0.9172929516147736,0.1260106595166918,0.013455130799095289
5.728,5.31,-0.57,0.30822343133000424,0.999295090662289,0.007708652864725079,0.9197986801329902,0.12320587333076492,0.012304182516337917
5.749,5.36,-0.63,0.3100990780395912,0.9995064508910411,0.00666150133965411,0.9221258236449447,0.12056786419910882,0.01121384915931322
5.83,5.42,-0.61,0.311933099506116,0.9996801102210792,0.005698574403205977,0.9242777203285228,0.11809375289532056,0.010182955109268671
5.85,5.47,-0.59,0.31372609545630253,0.9998161702844026,0.004818076229106909,0.9262577664592457,0.11578060268508707,0.009210306518241106
5.911,5.53,-0.65,0.31547867993404516,0.9999147480649719,0.004018186417894643,0.9280694125450815,0.11362542272676301,0.00829469286818777
5.972,5.58,-0.68,0.31719148047631074,0.9999759756548022,0.0032970619090401973,0.9297161594772215,0.11162517146403898,0.007434888518510357
6.033,5.64,-0.65,0.31886513729498095,1.0,0.0026528388832015265,0.9312015547009642,0.10977676000731518,0.006629654240353842
6.095,5.69,-0.67,0.32050030246555167,0.9999869826370555,0.0020836346528409974,0.9325291884107345,0.10807705550047361,0.005877738736033344
6.136,5.75,-0.73,0.32209763912358796,0.9999370994196661,0.0015875495394696514,0.933702689773097,0.106522884469811,0.0051778801418785455
6.177,5.8,-0.66,0.32365782066979065,0.9998505402363237,0.0011626687358123303,0.9347257231814592,0.105111036151964,0.004528807512727047
6.238,5.86,-0.63,0.3251815299844859,0.9997275087188946,0.0008070641512323774,0.9356019845459922,0.10383826579773307,0.0039292422862784
6.299,5.91,-0.68,0.32666945865229124,0.9995682219424289,0.0005187962388182776,0.9363351976221507,0.10270129794879254,0.0033778997255970167
6.361,5.97,-0.67,0.32812230619764676,0.9993729101165194,0.0002959158026071731,0.9369291103810371,0.10169682968436693,0.0028734903382131418
6.402,6.02,-0.61,0.3295407793318216,0.9991418162686472,0.0001364657834987232,0.9373874914247342,0.1008215338350612,0.002414721270447023
6.464,6.08,-0.65,0.3309255912119317,0.9988751959200843,3.84830224976145e-05,0.9377141264495822,0.1000720621611456,0.0020002976757391966
6.526,6.13,-0.69,0.3322774607124401,0.9985733167550074,0.0,0.9379128147601984,0.09944504849270767,0.0016289240558974556
6.568,6.19,-0.64,0.3335971117095575,0.9982364582835214,1.904654989604507e-05,0.9379873658368668,0.0989371118291975,0.0012993055742469906
6.629,6.24,-0.65,0.33488527237891613,0.9978649114993066,9.365154731200977e-05,0.9379415959587334,0.09854485939600019,0.0010101493397198743
6.69,6.3,-0.73,0.33614267450684804,0.9974589785326139,0.0002218445688665343,0.9377793248850577,0.09826488965577153,0.0007601656610123924
6.73,6.35,-0.71,0.33737005281556076,0.9970189722993499,0.00040165752436343536,0.937504372596628,0.09809379527236879,0.0005480692700692752
6.833,6.41,-0.71,0.33856814430247656,0.996545216147018,0.0006311262588936665,0.9371205560993193,0.0980281660253018,0.00037258051428088476
6.855,6.46,-0.77,0.3397376875939866,0.9960380434982729,0.0009082921243765155,0.9366316862916851,0.09806459167271486,0.00023242651690200312
6.917,6.52,-0.75,0.34087942231386004,0.9954977974928505,0.0012312035196205605,0.9360415648983753,0.0981996647609856,0.00012634230530418226
6.979,6.57,-0.69,0.34199408846652385,0.9949248306286177,0.001597917398027231,0.9353539814710835,0.09842998337910043,5.307190670446115e-05
7.0,6.63,-0.72,0.3430824258354027,0.9943195044024674,0.002006500742097192,0.9345727104586207,0.0987521538560446,1.136941096749135e-05
7.062,6.68,-0.75,0.34414517339647116,0.9936821889517554,0.0024550320039234364,0.9337015083476077,0.09916279339953442,0.0
7.124,6.74,-0.69,0.34518306874713534,0.9930132626969386,0.002941602510860738,0.9327441108752252,0.09965853267452257,1.7740943185658376e-05
7.206,6.79,-0.66,0.34619684755053914,0.9923131119860321,0.0034643178355716698,0.9317042303154056,0.1002360183200198,6.338255829404776e-05
7.226,6.85,-0.72,0.34718724299537346,0.9915821307414457,0.004021299129681796,0.9305855528397815,0.10089191540288661,0.00013572913738105243
7.287,6.9,-0.69,0.34815498527125616,0.9908207201097026,0.00461068442032465,0.9293917359546154,0.10162290980735927,0.00023359983734889175
7.328,6.96,-0.66,0.3491008010597466,0.9900292881145046,0.005230629868918107,0.9281264060148539,0.10242571055918974,0.0003558295349784878
7.389,7.01,-0.73,0.3500254130410624,0.989208249313558,0.005879310991585018,0.9267931558163632,0.10329705208339482,0.000501269646373176
7.45,7.07,-0.77,0.3509295394165772,0.98835802445953,0.00655492384069517,0.9253955422673397,0.10423369639471838,0.0006687889108451467
7.512,7.12,-0.74,0.3518138934471807,0.9874790401654634,0.0072556861470586854,0.923937084139806,0.10523243522000938,0.0008572741393038626
7.554,7.18,-0.79,0.35267918300757894,0.9865717285749204,0.007979838422349447,0.9224212599020045,0.10629009205180456,0.0010656309271831134
7.615,7.23,-0.82,0.35352611015659036,0.9856365270370683,0.008725645021376538,0.920851505632351,0.10740352413247252,0.0012927843319206808
7.676,7.29,-0.76,0.35435537072346857,0.9846738777868513,0.009491395163846334,0.9192312130154848,0.10856962436833312,0.0015376795149798182
7.737,7.34,-0.73,0.3551676539102596,0.9836842276303139,0.01027540391528293,0.9175637274208138,0.10978532317322591,0.0017992823483661674
7.778,7.4,-0.79,0.3559636419101868,0.9826680276350848,0.011076013126813552,0.9158523460638266,0.11104759024106693,0.002076579985573919
7.86,7.45,-0.78,0.35674400954204116,0.9816257328260134,0.011891592333573705,0.914100316250346,0.11235343624701528,0.002368581396908802
7.923,7.51,-0.72,0.35750942390052576,0.9805578018859813,0.012720539611546199,0.9123108337038129,0.11369991447696619,0.002674317869175694
7.966,7.56,-0.8,0.35826054402248103,0.979464696861954,0.01356128239271676,0.9104870409756023,0.11508412238518495,0.0029928434698020313
8.006,7.62,-0.83,0.3589980205688985,0.9783468828763848,0.014412278238487439,0.9086320259382662,0.116503203079985,0.0033232354755816642
8.048,7.67,-0.77,0.3597224955226167,0.9772048278441049,0.015272015571330493,0.9067488203614821,0.11795434673743335,0.0036645947663069556
8.111,7.73,-0.78,0.3604346019015806,0.9760390021948336,0.016139014364703556,0.9048403985703642,0.11943479194313908,0.004016046183607788
8.152,7.78,-0.84,0.36113496348752544,0.9748498786014381,0.01701182679128963,0.9029096761856655,0.12094182696224205,0.004376738855383286
8.233,7.84,-0.82,0.3618241945699185,0.9736379317140679,0.01788903782966693,0.9009595089453007,0.12247279093778377,0.004745846486294697
8.313,7.89,-0.83,0.3625028997049617,0.9724036379002938,0.018769265829560584,0.8989926916065571,0.12402507501771118,0.0051225676148664865
8.334,7.95,-0.89,0.3631716734894303,0.9711474749913968,0.019651163035879198,0.8970119569283137,0.12559612341082851,0.005506125837844878
8.375,8.0,-0.84,0.36383110034909877,0.9698699220349579,0.02053341607177998,0.8950199747325741,0.12718343437206361,0.005895770002579321
8.436,8.06,-0.77,0.36448175434147345,0.9685714590539372,0.021414746381032773,0.8930193510446026,0.1287845611174607,0.006290774368233521
8.499,8.11,-0.8,0.3651241989725299,0.9672525668124272,0.0222939106299762,0.8910126273109265,0.1303971126693614,0.006690438736511812
8.56,8.17,-0.83,0.3657589870271337,0.9659137265882636,0.023169701069378153,0.889002279694402,0.1320187546323004,0.0070940885522997035
8.601,8.22,-0.79,0.36638666041281864,0.9645554199526238,0.02404094585653401,0.8869907184454632,0.13364720990022586,0.007501074974258702
8.662,8.28,-0.79,0.3670077500166044,0.9631781285566846,0.024906509337976175,0.8849802873485703,0.13528025929574133,0.007910774915162224
8.725,8.33,-0.84,0.36762277557454753,0.9617823339253446,0.025765292293224842,0.8829732632427791,0.13691574214214194,0.008322591051734404
8.766,8.39,-0.8,0.36823224555372713,0.9603685172579737,0.02661623214006367,0.880971855615274,0.13855155676907863,0.00873595180391011
8.828,8.44,-0.77,0.3688366570463781,0.9589371592361328,0.027458303101876483,0.8789782062666716,0.1401856609527444,0.009150311283646153
8.889,8.5,-0.82,0.36943649567589676,0.9574887398382123,0.028290516337632656,0.8769943890468923,0.14181607229153256,0.009565149213623399
8.951,8.55,-0.84,0.3700322355144563,0.9560237381609276,0.029111920035144123,0.875022409660411,0.14344086851817617,0.009979970816349238
9.034,8.61,-0.8,0.37062433901197134,0.9545426322476234,0.029921599468233882,0.8730642055397189,0.14505818774943466,0.01039430667425619
9.053,8.66,-0.84,0.3712132569361504,0.9530458989233188,0.03071867701847087,0.8711216457858232,0.14666622867444887,0.010807712561392372
9.096,8.72,-0.91,0.3717994283233695,0.9515340136364062,0.03150231216214165,0.8691965311745364,0.14826325068292795,0.011219769247250497
9.158,8.77,-0.87,0.3723832804400837,0.9500074503068914,0.03227170142313999,0.8672905942272303,0.14984757393436735,0.011630082273196292
9.199,8.83,-0.85,0.37296522875448834,0.9484666811810373,0.03302607829246941,0.8654054993446424,0.15141757936952574,0.012038281701862403
9.262,8.88,-0.9,0.37354567691813145,0.9469121766922504,0.03376471311507274,0.8635428430022698,0.15297170866540688,0.012444021839835147
9.325,8.94,-0.89,0.37412501675717663,0.9453444053280357,0.034486912944721684,0.8617041540058773,0.1545084641350087,0.012846980933995585
9.408,8.99,-0.84,0.37470362827301407,0.9437638335028657,0.035192021367723654,0.8598908938056656,0.15602640857312775,0.01324686084195342
9.428,9.05,-0.9,0.37528187965191523,0.9421709254368124,0.03587941829623889,0.8581044568676487,0.15752416504953928,0.013643386677121942
9.491,9.1,-0.91,0.37586012728342477,0.9405661430397971,0.03654851973203175,0.8563461711007636,0.1590004166509094,0.01403630642910571
9.553,9.16,-0.88,0.37643871578717675,0.9389499458013052,0.03719877750149315,0.8546172983382044,0.1604539061728272,0.014425390560157084
9.616,9.21,-0.89,0.37701797804782433,0.9373227906853897,0.03782967896277679,0.8529190348714383,0.16188343576337486,0.014810431578505411
9.676,9.27,-0.93,0.37759823525776826,0.9356851320307686,0.03844074668589439,0.8512525120353167,0.16328786651967414,0.015191243589435586
9.779,9.32,-0.91,0.3781797969673738,0.9340374214557945,0.03903153810661663,0.8496187968426654,0.16466611803886685,0.015567661825105914
9.799,9.38,-0.92,0.3787629611423769,0.9323801077680439,0.03960164515503992,0.8480188926667258,0.16601716792500446,0.01593954215420869
9.841,9.43,-0.99,0.37934801422820863,0.9307136368782349,0.04015069385970598,0.8464537399698074,0.1673400512533372,0.016306760572663982
9.881,9.49,-1.0,0.37993523122098233,0.929038451718157,0.04067834392817947,0.8449242170765361,0.16863385999349978,0.016669212676575833
9.942,9.54,-0.95,0.3805248757448947,0.9273549921622896,0.041184288304985724,0.8434311409901135,0.16989774239309105,0.017026813118650074
10.003,9.6,-0.97,0.3811172001357905,0.9256636949527722,0.04166825270779144,0.8419752682500175,0.17113090232313527,0.017379495049187486
10.044,9.65,-1.0,0.3817124455306292,0.923964993627361,0.042129995142679906,0.8405572958295296,0.17233259858689692,0.017727209542652292
10.127,9.71,-0.93,0.38231084196259857,0.9222593184499578,0.04256930539934585,0.8391778620714139,0.17350214419351778,0.01806992501069193
10.147,9.76,-0.93,0.38291260846163633,0.9205470963432444,0.04298600452703326,0.8378375476599808,0.1746389055979513,0.01840762660239441
10.209,9.82,-1.01,0.383517953160158,0.9188287508229008,0.04337994429206145,0.8365368766276888,0.1757423019086847,0.018740315592567808
10.251,9.87,-0.98,0.3841270734038187,0.9171047019328676,0.04375100661781313,0.8352763173943805,0.17681180406475536,0.01906800875890084
10.314,9.93,-0.95,0.38474015586715643,0.9153753661811397,0.04409910300809416,0.8340562838372131,0.17784693398358517,0.01939073774897095
10.356,9.98,-1.0,0.3853573766739791,0.9136411564756379,0.04442417395481854,0.8328771363893158,0.17884726368115988,0.01970854843820696
10.418,10.04,-1.03,0.3859789015223599,0.9119024820597701,0.04472618833100492,0.8317391831651773,0.1798124143660785,0.020021500280054293
10.52,10.09,-1.0,0.38660488581411284,0.910159748447347,0.04500514277008266,0.830642681110758,0.18074205550899328,0.020329665649657953
10.541,10.15,-1.07,0.387235474788635,0.908413357356525,0.04526106103250346,0.8295878371763018,0.18163590388895226,0.02063312918234794
10.582,10.2,-1.13,0.3878708036610182,0.9066637066424164,0.04549399336064237,0.8285748095097729,0.18249372261813981,0.0209319871081413
10.644,10.26,-1.08,0.3885109977643494,0.9049111902279691,0.0457040158229539,0.8276037086688138,0.1833153201464786,0.021226346583407718
10.706,10.31,-1.05,0.38915617269611785,0.9031561980326781,0.045891229648339,0.8266745988490716,0.18410054924751262,0.021516325020801693
10.768,10.37,-1.1,0.3898064344686414,0.9013991158986819,0.04605576055167631,0.8257874991267256,0.1848493059869445,0.02180204941854722
10.81,10.42,-1.08,0.3904618796633972,0.8996403255138224,0.046197758051466524,0.8249423847130702,0.18556152867516335,0.022083655690141372
10.893,10.48,-1.03,0.391122595589129,0.8978802043312986,0.046317394780537806,0.8241391882190575,0.18623719680508488,0.022361287995509346
10.913,10.53,-1.08,0.3917886604435878,0.8961191254856076,0.04641486579077758,0.8233778009277245,0.18687632997662015,0.02263509807464224
10.975,10.59,-1.09,0.3924601434787531,0.8943574577045389,0.04649038785287986,0.8226580740724169,0.18747898680908498,0.02290524458479824
11.017,10.64,-1.01,0.39313710516935996,0.8925955652170733,0.046544198752113075,0.8219798201186899,0.18804526384285483,0.02317189244238466
11.077,10.7,-1.02,0.39381959738452543,0.8908338076571372,0.04657655658112158,0.8213428140477298,0.18857529443156465,0.023435212170634597
11.18,10.75,-1.08,0.3945076635622355,0.8890725399632463,0.04658773903077517,0.8207467946390999,0.18906924762614644,0.023695379254166305
11.242,10.81,-1.04,0.39520133888642234,0.8873121122741618,0.04657804268007242,0.8201914657506013,0.1895273270519977,0.023952573501469274
11.263,10.86,-1.05,0.3959006504663441,0.8855528698207419,0.046547782286097385,0.8196764975930705,0.18994976978057604,0.024206978416296942
11.304,10.92,-1.12,0.39660561751798246,0.8837951528142218,0.046497290075028286,0.8192015279979682,0.19033684519670785,0.024458780578893922
11.366,10.97,-1.15,0.39731625154717676,0.8820392963311773,0.04642691503518659,0.8187661636757085,0.1906888538628802,0.024708169037943158
11.428,11.03,-1.08,0.3980325565342231,0.8802856301954552,0.04633702221308619,0.8183699814627725,0.19100612638175163,0.02495533471405346
11.47,11.08,-1.11,0.3987545291196655,0.8785344788573874,0.04622799201339099,0.8180125295557895,0.19128902225807431,0.02520046981552501
11.532,11.14,-1.13,0.399482158791001,0.8767861612706209,0.046100219503597474,0.8176933287309535,0.19153792876117004,0.025443767267048077
11.594,11.19,-1.08,0.40021542807001403,0.8750409907669231,0.0459541137241288,0.8174118735474276,0.1917532597890643,0.025685420151890414
11.635,11.25,-1.08,0.4009543127004498,0.8732992749293413,0.04579009700440232,0.8171676335336918,0.19193545473535842,0.0259256211680242
11.675,11.3,-1.15,0.4016987818357398,0.8715613154641109,0.04560860428534677,0.816960054356011,0.1920849773599036,0.026164562098593143
11.777,11.36,-1.11,0.4024487982264857,0.8698274080717262,0.04541008244879302,0.8167885589683579,0.19220231466432675,0.026402433297148902
11.798,11.41,-1.08,0.4032043184074198,0.8680978423176218,0.04519498965412635,0.8166525487432701,0.1922879757734416,0.026639423188176154
11.86,11.47,-1.13,0.4039652928835786,0.8663729015029047,0.0449637946825595,0.816551404583281,0.19234249082355392,0.026875717783554052
11.922,11.52,-1.16,0.4047316663154548,0.8646528625355968,0.04471697628935129,0.8164844880127128,0.19236640985864553,0.027111500215712684
11.984,11.58,-1.13,0.4055033777029167,0.862937995802826,0.0444550225642529,0.8164511422497587,0.19236030173539406,0.027346950288259408
12.025,11.63,-1.18,0.40628036056769085,0.8612285650444157,0.044178430300422095,0.8164506932588295,0.19232475303795815,0.027582244044781823
12.088,11.69,-1.24,0.40706254313420487,0.8595248272282956,0.04388770437200651,0.8164824507831674,0.1922603670034146,0.027817553356445972
12.15,11.74,-1.2,0.40784984850856815,0.8578270324281524,0.043583357120565255,0.8165457093577155,0.19216776245868247,0.02805304552892298
12.213,11.8,-1.17,0.4086421948554579,0.8561354237037068,0.04326590775049076,0.8166397493022244,0.1920475727697139,0.028288882929097623
12.234,11.85,-1.21,0.4094394955726819,0.8544502369839643,0.04293588173360449,0.8167638376945635,0.1919004448036684,0.028525222631957392
12.336,11.91,-1.2,0.41024165946320834,0.8527717009537611,0.04259381022310906,0.8169172293242297,0.19172703790474094,0.028762216088027252
12.356,11.96,-1.15,0.41104859090447515,0.8511000369439202,0.0422402294770811,0.8170991676261107,0.19152802288427484,0.02900000881168547
12.397,12.02,-1.19,0.41186019001481927,0.8494354588253333,0.04187568029169038,0.8173088855946198,0.19130408102576948,0.02923874009067443
12.458,12.07,-1.2,0.41267635281688925,0.8477781729072945,0.04150070744432184,0.8175456066783775,0.19105590310536852,0.02947854271710527
12.521,12.13,-1.15,0.4134969713979171,0.8461283778404025,0.04111585914675406,0.8178085456556513,0.1907841884283948,0.029719542740208202
12.583,12.18,-1.16,0.4143219340667421,0.8444862645243175,0.04072168650852264,0.8180969094907597,0.19048964388247833,0.029961859241000553
12.644,12.24,-1.21,0.4151511255074856,0.8428520160206141,0.04031874301057219,0.8184098981716186,0.1901729830078006,0.030205604128967056
12.707,12.29,-1.19,0.4159844269297798,0.8412258074709295,0.03990758398927284,0.8187467055285896,0.18983492508495953,0.03045088196078445
12.728,12.35,-1.2,0.4168217162154554,0.8396078060205853,0.0394887661308606,0.8191065200347959,0.1894761942409383,0.030697789781077126
12.79,12.4,-1.3,0.41766286806160347,0.8379981707478503,0.03906284697636078,0.8194885255880808,0.18909751857363163,0.030946416985187224
12.831,12.46,-1.31,0.41850775411994057,0.836397052599025,0.03863038443705242,0.8198919022748271,0.188699629295338,0.031196845203977468
12.892,12.51,-1.24,0.41935624313242775,0.8348045943295271,0.03819193632052168,0.8203158271159011,0.18828325989556793,0.03144914821071114
12.954,12.57,-1.27,0.42020820106312473,0.8332209304511525,0.0377480598673364,0.8207594747950279,0.18784914532344615,0.03170339185005782
13.015,12.62,-1.27,0.4210634912262828,0.8316461871856355,0.03729931129834824,0.8212220183699079,0.1873980211899172,0.031959633989258496
13.128,12.68,-1.22,0.42192197441070783,0.8300804824245909,0.036846245372593865,0.8217026299663616,0.18693062298990884,0.03221792449143379
13.15,12.73,-1.14,0.4227835090004447,0.8285239256958581,0.03638941495574311,0.8222004814557319,0.18644768534458253,0.03247830521094337
13.19,12.79,-1.18,0.423647951091855,0.8269766181362266,0.03592937059903523,0.8227147451156985,0.18594994126378359,0.032740810010640574
13.232,12.84,-1.15,0.4245151546071793,0.8254386524704906,0.03546666012864432,0.8232445942745986,0.18543812142880817,0.03300546480081992
13.273,12.9,-1.12,0.42538497140469295,0.8239101129967806,0.03500182824541584,0.8237892039393485,0.18491295349561993,0.033272287599597446
13.336,12.95,-1.18,0.42625725138558457,0.822391075578126,0.03453541613491004,0.8243477514070942,0.18437516141867125,0.03354128861440702
13.397,13.01,-1.2,0.4271318425977001,0.8208816076402391,0.034067961087664723,0.8249194168607972,0.18382546479549905,0.033812470344236026
13.438,13.06,-1.18,0.4280085913362891,0.8193817681755434,0.03359999612955534,0.8255033839490564,0.18326457823226217,0.03408582770213455
13.52,13.12,-1.22,0.428887342241889,0.817891607753494,0.03313204966210391,0.8260988403505106,0.18269321073036643,0.034361348157411195
13.563,13.17,-1.25,0.4297679383954782,0.8164111685372168,0.03266464511256698,0.8267049783231807,0.18211206509428635,0.03463901189678996
13.623,13.23,-1.18,0.43065022141102954,0.8149404843064533,0.03219830059361494,0.8273209952390611,0.18152183736064473,0.0349187920036429
13.686,13.28,-1.17,0.43153403152560366,0.8134795804867144,0.031733528572409964,0.8279460941042239,0.18092321624856836,0.035200654654242255
13.726,13.34,-1.22,0.43241920768712777,0.8120284741844864,0.03127083554889889,0.8285794840646207,0.18031688263130294,0.03548455932985117
13.809,13.39,-1.2,0.4333055876400093,0.8105871742283041,0.03081072174315026,0.8292203808977496,0.1797035090290495,0.03577045904342364
13.83,13.45,-1.15,0.434193008008724,0.8091556812155221,0.030353680791587463,0.8298680074903484,0.17908375912297642,0.03605830057971228
13.893,13.5,-1.21,0.43508130437950415,0.8077339875646646,0.029900199452004235,0.8305215943022841,0.17845828729035215,0.03634802474767737
13.954,13.56,-1.21,0.43597031138023684,0.8063220775732725,0.02945075731727989,0.8311803798167956,0.1778277381607325,0.03663956664421276
14.014,13.61,-1.14,0.4368598627586691,0.8049199274811875,0.02900582653773005,0.8318436109772056,0.17719274619312242,0.03693285592827702
14.055,13.67,-1.17,0.43774979145900217,0.8035275055392068,0.028565871552039383,0.8325105436101481,0.17655393527402233,0.037227817104525954
14.097,13.72,-1.22,0.4386399296969403,0.8021447720830028,0.028131348826723242,0.833180442835279,0.17591191833625633,0.037524369815504506
14.179,13.78,-1.19,0.43953010903323914,0.8007716796121687,0.027702706604055303,0.8338525834614017,0.17526729699847082,0.037822429141361205
14.221,13.83,-1.21,0.44042016044578103,0.7994081728742054,0.027280384658397036,0.8345262503689095,0.17462066122518385,0.03812190590591652
14.282,13.89,-1.25,0.4413099144002058,0.7980541889532508,0.02686481406087799,0.8352007388784433,0.1739725890072473,0.03842270698781315
14.385,13.94,-1.24,0.4421992009191164,0.7967096573633405,0.026456416952387034,0.8358753551056637,0.17332364606255468,0.03872473563542287
14.406,14.0,-1.18,0.4430878496498588,0.7953745001460366,0.026055606324841073,0.836549416302087,0.1726743855567952,0.03902789178414648
14.447,14.05,-1.23,0.4439756899308513,0.794048631972292,0.025662785810708858,0.8372222511819415,0.17202534784402207,0.039332072374722235
14.548,14.11,-1.23,0.4448625508564158,0.7927319602484704,0.025278349480776917,0.837893200234999,0.17137706022678,0.03963717167116383
14.568,14.16,-1.17,0.4457482613400543,0.7914243852264438,0.02490268165014601,0.8385616160253156,0.17073003673552398,0.03994308157695911
14.609,14.22,-1.17,0.44663265017612,0.7901258001176797,0.024536156692447696,0.8392268634757879,0.17008477792705864,0.040249691948171365
14.67,14.27,-1.22,0.4475155460998425,0.7888360912111909,0.02417913886226952,0.8398883201383903,0.16944177070172467,0.040556890902108525
14.712,14.33,-1.18,0.44839677784567294,0.7875551379952045,0.02383198212576611,0.8405453764499541,0.1688014881390629,0.04086456512025213
14.772,14.38,-1.16,0.4492761742039246,0.7862828132824013,0.023495029999418465,0.8411974359733824,0.16816438935169215,0.04117260014417165
14.833,14.44,-1.22,0.45015356407568513,0.7850189833386059,0.023168615396889726,0.8418439156242776,0.1675309193571408,0.04148088066323563
14.915,14.49,-1.29,0.45102877652596884,0.7837635080148564,0.022853060483904945,0.8424842458830735,0.16690150896736833,0.041789290793059486
14.936,14.55,-1.26,0.4519016408350566,0.7825162408828523,0.022548676541054396,0.8431178709929008,0.166276574695704,0.042097714343743056
14.997,14.6,-1.32,0.45277198654793843,0.7812770293738335,0.022255763834394034,0.8437442491435124,0.16565651868090367,0.042406035077067576
15.061,14.66,-1.31,0.45363964352174724,0.7800457149209992,0.021974611493691173,0.8443628526416206,0.16504172862798025,0.04271413695199101
15.101,14.71,-1.25,0.4545044419710378,0.7788221331055871,0.021705497398134828,0.8449731680679792,0.16443257776540468,0.04302190435797098
15.163,14.77,-1.24,0.45536621251074805,0.7776061138067377,0.02144868806930896,0.845574696421486,0.16382942481822563,0.0433292223357863
15.204,14.82,-1.29,0.4562247861966658,0.7763974813552362,0.021204438571217104,0.8461669532505208,0.1632326139966287,0.04363597678561814
15.286,14.88,-1.23,0.4570799945632266,0.7751960546912213,0.020972992417151518,0.8467494687717113,0.16264247499945145,0.043942054662236656
15.307,14.93,-1.19,0.457931669658485,0.7740016475259409,0.020754581483224652,0.8473217879763195,0.16205932303218085,0.04424734415726339
15.369,14.99,-1.22,0.4587796440761193,0.7728140685076471,0.02054942592841788,0.847883470724463,0.1614834588389713,0.04455173486866016
15.431,15.04,-1.24,0.45962375098435976,0.7716331213917379,0.02035773412103227,0.8484340918274095,0.16091516874823242,0.044855117957767886
15.493,15.1,-1.19,0.4604638241517468,0.7704586052152587,0.020179702571444885,0.8489732411182178,0.16035472473135337,0.04515738629429559
15.532,15.15,-1.21,0.46129969796965603,0.7692903144758716,0.02001551587109682,0.8495005235109814,0.15980238447414677,0.04545843458964623
15.595,15.21,-1.26,0.46213120747154374,0.7681280393153878,0.019865346637663903,0.8500155590488734,0.1592583914606033,0.045758159518924806
15.696,15.26,-1.22,0.46295818834886676,0.7669715657079261,0.019729355466380057,0.8505179829411084,0.15872297506855085,0.04605645983191776
15.716,15.32,-1.22,0.4637804769636252,0.7658206756527359,0.019607690887500855,0.8510074455888544,0.15819635067680962,0.04635323645326343
15.758,15.37,-1.27,0.4645979103574666,0.7646751473716807,0.019500489329907916,0.8514836126000638,0.1576787197834267,0.04664839257197463
15.819,15.43,-1.25,0.4654103262573014,0.7635347555113303,0.019407875090854478,0.8519461647932111,0.1571702701345612,0.04694183372043033
15.881,15.48,-1.2,0.4662175630774283,0.7623992713495582,0.01932996031184681,0.8523947981899888,0.1566711758635828,0.047233467842923774
15.943,15.54,-1.24,0.46701945991824617,0.7612684630064911,0.019266844960650786,0.8528292239971078,0.15618159763993852,0.04752320535388115
16.023,15.59,-1.24,0.4678158565616919,0.760142095659648,0.019218616819391608,0.8532491685774528,0.15570168282734081,0.04781095918595828
16.044,15.65,-1.17,0.46860659346357614,0.7590199317631332,0.019185351478675845,0.8536543734109437,0.15523156565083648,0.04809664482831672
16.084,15.7,-1.19,0.4693915117430005,0.7579017312707844,0.019167112337630382,0.8540445950455183,0.1547713673723276,0.04838018035543282
16.147,15.76,-1.24,0.4701704531690484,0.7567872518631886,0.019163950609736864,0.8544196050386457,0.1543211964741299,0.04866148644681072
16.207,15.81,-1.21,0.4709432601449502,0.7556762491784871,0.01917590533434638,0.8547791898897511,0.1538811488501689,0.04894048639796607
16.287,15.87,-1.21,0.47170977568995304,0.7545684770468631,0.019203003393789556,0.855123150963888,0.15345130800443227,0.04921710612305511
16.307,15.92,-1.28,0.47246984341915904,0.7534636877285691,0.019245259536041566,0.8554513044069512,0.15303174525630217,0.04949127414960382
16.368,15.98,-1.29,0.47322330752163616,0.7523616321553069,0.019302676402933445,0.8557634810527477,0.15262251995239146,0.04976292160592465
16.43,16.03,-1.26,0.47397001273712974,0.7512620601747302,0.019375244563917503,0.8560595263222968,0.15222367968449643,0.05003198220192244
16.511,16.09,-1.3,0.4747098043317251,0.7501647207977871,0.01946294255540475,0.8563393001157689,0.1518352605132619,0.050298392204056526
16.531,16.14,-1.3,0.4754425280727991,0.7490693624485871,0.01956573692569269,0.856602676697483,0.15145728719712884,0.05056209040524251
16.592,16.2,-1.22,0.4761680302035685,0.7479757332164824,0.019683582285492506,0.8568495445743478,0.15108977342611202,0.050823018090432034
16.652,16.25,-1.2,0.476886157417502,0.746883581110037,0.0198164213640592,0.8570798063680666,0.15073272205994492,0.051081118998517465
16.754,16.31,-1.25,0.47759675683283986,0.7457926543125568,0.019964185070928217,0.8572933786813328,0.15038612537013266,0.05133633928111545
16.774,16.36,-1.2,0.4782996759674657,0.7447027014388152,0.020126792563265557,0.857490191958184,0.15004996528547931,0.051588627458697404
16.815,16.42,-1.17,0.47899476271438723,0.7436134717925867,0.020304151318858068,0.8576701903386325,0.14972421364069202,0.05183793437447033
16.876,16.47,-1.22,0.47968186531810797,0.7425247156245692,0.020496157214808432,0.857833331507661,0.14940883242769998,0.05208421314641254
16.917,16.53,-1.23,0.48036083235218674,0.7414361843902934,0.020702694612031714,0.857979586538665,0.14910377404935565,0.05232741911793087
16.958,16.58,-1.19,0.48103151269828526,0.7403476310076499,0.020923636445668522,0.8581089397314406,0.1488089815752105,0.052567509807658085
17.019,16.64,-1.25,0.4816937555270019,0.7392588101137172,0.02115884432154371,0.8582213884448154,0.14852438899907444,0.052804444858918234
17.12,16.69,-1.29,0.4823474102807713,0.738169478320614,0.021408168618809488,0.8583169429239698,0.14824992149807567,0.05303818598935561
17.142,16.75,-1.26,0.48299232665909203,0.7370793944701025,0.021671448598915587,0.8583956261224285,0.14798549569293257,0.05326869694113701
17.182,16.8,-1.26,0.48362835460632064,0.7359883198866461,0.021948512521053083,0.8584574735186123,0.14773101990914053,0.053495943432020916
17.244,16.86,-1.31,0.4842553443022598,0.7348960186285521,0.02223917776422174,0.8585025329267514,0.14748639443875725,0.05371989310749829
17.304,16.91,-1.26,0.4848731461557366,0.7338022577367883,0.022543250956068142,0.8585308643019104,0.14725151180245266,0.05394051549417012
17.346,16.97,-1.22,0.48548161080135105,0.7327068074810417,0.022860528108642083,0.858542539538876,0.14702625701148014,0.05415778195453231
17.409,17.02,-1.26,0.486080589099555,0.731609441602596,0.023190794761221937,0.8585376422646769,0.1468105078292263,0.0543716656434093
17.512,17.08,-1.26,0.4866699321402016,0.7305099375536626,0.023533826130347702,0.8585162676245922,0.14660413503200753,0.0545821414663915
17.554,17.13,-1.19,0.4872494912496852,0.7294080767328711,0.02388938726716948,0.8584785220616056,0.14640700266880247,0.05478918604071307
17.575,17.19,-1.22,0.4878191180017702,0.7283036447167093,0.02425723322218039,0.8584245230893572,0.14621896831963452,0.054992777659026194
17.617,17.24,-1.24,0.48837866423219967,0.7271964314867422,0.024637109217358837,0.8583543990587041,0.14603988335234327,0.055192896256499084
17.679,17.3,-1.2,0.48892798205716503,0.7260862316524683,0.025028750825700417,0.8582682889180375,0.14586959317751083,0.05538952338159705
17.741,17.35,-1.2,0.48946692389571306,0.7249728446696668,0.02543188415809334,0.8581663419675043,0.14570793750133765,0.05558264217082211
17.864,17.41,-1.26,0.48999534249615645,0.7238560750540916,0.025846226057487702,0.858048717607264,0.14555475057628628,0.05577223732763317
17.885,17.46,-1.26,0.49051309096653345,0.7227357325903784,0.0262714843003171,0.8579155850798958,0.1454098614493274,0.0559582951057424
17.906,17.52,-1.25,0.4910200228091443,0.7216116325360462,0.026707357805146024,0.857767123207086,0.14527309420763362,0.056140803296951425
17.947,17.57,-1.28,0.49151599195917584,0.720483595820484,0.0271535368485285,0.8576035201207701,0.1451442682215662,0.056319751223663866
18.009,17.63,-1.28,0.492000852827407,0.7193514492388201,0.027609703288054753,0.8574249729889645,0.14502319838479202,0.05649512973619163
18.069,17.68,-1.21,0.49247446034696585,0.7182150256405884,0.02807553079253318,0.8572316877366044,0.144909695351359,0.05666693121493173
18.109,17.74,-1.18,0.49293667002409086,0.7170741641131002,0.028550685079223467,0.8570238787617717,0.1448035657695562,0.056835149577410336
18.274,17.79,-1.23,0.493387337992839,0.7159287101594155,0.029034824158012174,0.8568017686477227,0.14470461251239738,0.056999780290084054
18.294,17.85,-1.18,0.49382632107367935,0.7147785158707708,0.029527598582404464,0.856565587871144,0.14461263490459714,0.05716082038466784
18.315,17.9,-1.17,0.49425347683593485,0.7136234400932836,0.030028651707202023,0.8563155745070471,0.14452742894595236,0.05731826847866986
18.356,17.96,-1.24,0.4946686636640655,0.7124633485887046,0.030537619952739282,0.8560519739307058,0.14444878753108617,0.05747212479982171
18.398,18.01,-1.21,0.4950717408278513,0.7112981141889729,0.031054133075541973,0.8557750385170687,0.14437650066554386,0.05762239121420276
18.46,18.07,-1.19,0.4954625685565903,0.7101276169443251,0.03157781444525826,0.8554850273381689,0.14431035567825415,0.05776907125801162
18.522,18.12,-1.25,0.4958410081174713,0.7089517442647505,0.03210828132770298,0.8551822058591406,0.1442501374303801,0.05791217017310069
18.583,18.18,-1.28,0.49620692189828275,0.707770391054649,0.03264514517383789,0.854866845633556,0.14419562852058926,0.05805169494651426
18.623,18.23,-1.25,0.4965601734945865,0.7065834598406134,0.033188011914481515,0.8545392239988605,0.14414660948677588,0.05818765435429996
18.664,18.29,-1.27,0.49690062780144656,0.7053908608923144,0.03373648226051122,0.8541996237727217,0.1441028590042643,0.058320059009804213
18.726,18.34,-1.28,0.4972281511097621,0.7041925123364788,0.03429015200828955,0.8538483329510775,0.1440641540805109,0.05844892141656848
18.788,18.4,-1.22,0.497542611207211,0.7029883402639525,0.03484861235001648,0.8534856444086434,0.144030270246311,0.05857425602582921
18.85,18.45,-1.21,0.49784387748379677,0.7017782788298089,0.03541145018869447,0.8531118556025797,0.14400098174351408,0.058696079298491945
18.913,18.51,-1.26,0.4981318210419912,0.7005622703464267,0.035978248457398436,0.8527272682799838,0.14397606170926247,0.05881440977134794
18.953,18.56,-1.24,0.4984063148114933,0.6993402653694271,0.03654858644255155,0.8523321881898616,0.1439552823567918,0.05892926812725719
19.015,18.62,-1.2,0.4986672336686588,0.6981122227763422,0.03712204011091247,0.851926924800272,0.14393841515286232,0.05904067726902849
19.076,18.67,-1.26,0.4989144545606796,0.6968781098378726,0.037698182439981756,0.851511791021373,0.14392523099191318,0.0591486623967681
19.118,18.73,-1.27,0.49914785663460337,0.6956379022815999,0.038276583751524255,0.8510871029351238,0.143915500367049,0.059253251088516715
19.199,18.78,-1.23,0.49936732137125395,0.6943915843480547,0.038856812047882376,0.8506531795324024,0.14390899353798278,0.059354473384009704
19.22,18.84,-1.26,0.49957273272408304,0.6931391488390686,0.039438433350738246,0.8502103424582543,0.14390548069606757,0.059452361871378076
19.282,18.89,-1.34,0.4997639772629385,0.6918805971583664,0.040021012041980886,0.8497589157659112,0.14390473212655602,0.0595469517765815
19.323,18.95,-1.33,0.49994094432270103,0.6906159393443553,0.0406041112063578,0.8492992256800762,0.1439065183682252,0.059638281055329284
19.385,19.0,-1.33,0.5001035261567006,0.6893451940950803,0.04118729297565243,0.8488316003697798,0.1439106103704965,0.059726390487207355
19.446,19.06,-1.36,0.5002516180947797,0.6880683887853345,0.04177011887421282,0.848356369730891,0.14391677964815838,0.059811323771727064
19.486,19.11,-1.36,0.5003851187058203,0.6867855594759541,0.04235215016571689,0.8478738651782252,0.1439247984337713,0.05989312762603807
19.568,19.17,-1.29,0.5005039299645041,0.6854967509153788,0.042932948201083856,0.8473844194471403,0.14393443982780618,0.059971851884057154
19.609,19.22,-1.34,0.500607957422039,0.6842020165336105,0.04351207476745024,0.8468883664045089,0.14394547794655596,0.06004754959675241
19.69,19.28,-1.36,0.5006971103805574,0.6829014184287401,0.04408909243813093,0.846386040868929,0.14395768806785425,0.060120277133298795
19.71,19.33,-1.3,0.5007713020708746,0.6815950273462186,0.04466356492348349,0.8458777784399995,0.1439708467746469,0.0601900942827752
19.772,19.39,-1.3,0.5008304498332785,0.6802829226510381,0.04523505742259167,0.8453639153364294,0.14398473209646936,0.060257064356017936
19.834,19.44,-1.37,0.5008744753010188,0.6789651922929483,0.04580313697567604,0.8448447882426873,0.14399912364889514,0.06032125428721639
19.876,19.5,-1.33,0.5009033045861474,0.6776419327648062,0.04636737281711717,0.844320734163888,0.14401380277102555,0.06038273473483643
19.939,19.55,-1.26,0.5009168684673665,0.6763132490541378,0.04692733672895704,0.8437920902886342,0.1440285526611052,0.06044158018148601
20.002,19.61,-1.33,0.5009151025795546,0.6749792545879694,0.0474826033947395,0.8432591938595617,0.1440431585103532,0.06049786903242418
20.063,19.66,-1.37,0.5008979476046594,0.673640071170974,0.04803275075355549,0.8427223820513547,0.14405740763510924,0.0605516837125235
20.145,19.72,-1.34,0.5008653494636744,0.6722958289169616,0.048577360354166814,0.8421819918560074,0.1440710896074047,0.06060311076154083
20.166,19.77,-1.4,0.5008172595094373,0.6709466661737071,0.04911601770909291,0.8416383599750854,0.14408399638407765,0.060652240927517254
20.228,19.83,-1.41,0.5007536347199917,0.6695927294410853,0.04964831264854181,0.8410918227187096,0.14409592243454145,0.060699169258057704
20.288,19.88,-1.35,0.5006744378922432,0.6682341732824449,0.050173839674049175,0.8405427159109401,0.1441066648672898,0.0607439951891508
20.329,19.94,-1.33,0.5005796378356138,0.6668711602291452,0.05069219831167464,0.8399913748011609,0.1441160235551958,0.06078682263109553
20.431,19.99,-1.39,0.5004692095653774,0.6655038606781761,0.05120299346460235,0.8394381339809712,0.1441238012596441,0.06082776005104328
20.451,20.05,-1.36,0.5003431344953395,0.664132452782806,0.051705835764992866,0.8388833273059956,0.1441298037535375,0.060866920551648517
20.512,20.1,-1.34,0.5002014006295269,0.6627571223362151,0.05220034192493697,0.8383272878220075,0.1441338399432339,0.060904421945346905
20.532,20.16,-1.37,0.5000440027525669,0.6613780626480931,0.05268613508636648,0.8377703476947633,0.14413572198948235,0.060940386823881997
20.594,20.21,-1.38,0.499870942618444,0.6599954744141954,0.05316284516976759,0.8372128381430273,0.14413526542743108,0.06097494262286517
20.655,20.27,-1.33,0.49968222913733273,0.6586095655788758,0.05363010922152009,0.8366550893743586,0.14413228928578264,0.06100822168130445
20.695,20.32,-1.39,0.4994778785602101,0.6572205511906345,0.05408757175966569,0.8360974305233065,0.14412661620517586,0.06104036129611724
20.818,20.38,-1.45,0.49925791466095665,0.6558286532507198,0.05453488511789159,0.8355401895916624,0.14411807255587522,0.0610715037716542
20.84,20.43,-1.43,0.49902236891564605,0.654434100554833,0.054971709787491455,0.8349836933904041,0.14410648855484828,0.06110179646420691
20.881,20.49,-1.43,0.49877128067870796,0.6530371285279849,0.055397714757041465,0.8344282674829258,0.14409169838229643,0.06113139182139123
20.921,20.54,-1.47,0.4985046973556292,0.6516379790525547,0.05581257784950442,0.8338742361291205,0.14407354029767439,0.06116044741625042
20.983,20.6,-1.42,0.4982226745718333,0.650236900289611,0.05621598605644824,0.8333219222298801,0.1440518567551966,0.06118912597591189
21.044,20.65,-1.39,0.49792527633735445,0.648834146493585,0.056607635869044035,0.8327716472716004,0.14402649451879676,0.06121759540462645
21.106,20.71,-1.43,0.4976125752069056,0.6474299778204172,0.05698723360549475,0.8322237312703409,0.14399730477649167,0.06124602880102449
21.147,20.76,-1.43,0.4972846524349259,0.6460246601293673,0.05735449573451938,0.8316784927153728,0.14396414325409884,0.061274604469440684
21.208,20.82,-1.36,0.4969415981251793,0.6446184647787465,0.057709149194469705,0.8311362485119804,0.14392687032826693,0.06130350592515582
21.269,20.87,-1.39,0.4965835113744658,0.6432116684159016,0.058050931707598966,0.8305973139234907,0.14388535113878945,0.06133292189337007
21.329,20.93,-1.43,0.49621050040999454,0.6418045527618406,0.05837959208893796,0.8300620025125834,0.14383945570018153,0.06136304630167163
21.412,20.98,-1.38,0.495822682719954,0.6403974043909265,0.058694890549175635,0.8295306260819753,0.14378905901250946,0.06139407826569969
21.432,21.04,-1.39,0.4954201851768183,0.638990514506089,0.05899659899090275,0.829003494614588,0.14373404117147517,0.061426222067641874
21.474,21.09,-1.47,0.49500314415294244,0.637584178709989,0.059284501297560764,0.8284809162132992,0.1436742874777615,0.061459687127199576
21.535,21.15,-1.47,0.49457170562802344,0.6361786967725587,0.059558393614423985,0.8279631970403935,0.14360968854564063,0.061494687964693436
21.596,21.2,-1.44,0.4941260252880327,0.6347743723953333,0.05981808462093052,0.8274506412568626,0.1435401404108346,0.06153144415602407
21.637,21.26,-1.48,0.4936662686152487,0.6333715129729658,0.06006339579366592,0.8269435509617487,0.14346554463759129,0.061570180279242735
21.7,21.31,-1.48,0.4931926109690448,0.6319704293523195,0.06029416165927605,0.8264422261317645,0.14338580842490578,0.06161112585251848
21.761,21.37,-1.4,0.49270523765709223,0.6305714355895279,0.060510230036540116,0.8259469645614862,0.14330084471178864,0.0616545152632804
21.821,21.42,-1.43,0.4922043439966368,0.629174848705433,0.06071146226678671,0.8254580618044209,0.14321057228146636,0.06170058768827163
21.903,21.48,-1.46,0.4916901353654964,0.6277809884398314,0.06089773343179515,0.8249758111152404,0.14311491586439867,0.061749587004212916
21.923,21.53,-1.41,0.49116282724241506,0.6263901770049811,0.06106893255829331,0.8245005033934291,0.1430138062400069,0.06180176168874785
21.964,21.59,-1.39,0.490622645236411,0.6250027388388375,0.06122496280815579,0.8240324271285626,0.14290718033701996,0.061857364711328695
22.048,21.64,-1.45,0.4900698251047668,0.6236190003584874,0.06136574165344001,0.8235718683473923,0.142794981332356,0.06191665341372095
22.089,21.7,-1.45,0.48950461275933255,0.6222392897142452,0.06149120103550992,0.823119110562871,0.14267715874846273,0.061979889379847594
22.193,21.75,-1.43,0.4889272642608406,0.6208639365448858,0.06160128750772032,0.8226744347251644,0.1425536685490457,0.06204733829473515
22.213,21.81,-1.5,0.4883380458009715,0.6194932717344781,0.06169596236142506,0.8222381191745457,0.14242447323310814,0.062119269792367746
22.254,21.86,-1.54,0.487737233671943,0.6181276271712887,0.06177520173530196,0.8218104395959293,0.1422895419272138,0.062195957292300014
22.316,21.92,-1.49,0.4871251142234093,0.6167673355092216,0.06183899670808519,0.8213916689747206,0.1421488504758554,0.06227767782488993
22.378,21.97,-1.49,0.4865019838064571,0.6154127299322696,0.06188735337479932,0.8209820775536151,0.1420023815297807,0.0623647118449897
22.419,22.03,-1.52,0.4858681487044619,0.6140641439224661,0.06192029290656475,0.8205819327899296,0.14185012463208757,0.06245734303391189
22.459,22.08,-1.46,0.4852239250505492,0.6127219110318385,0.06193785159402539,0.8201914993130128,0.14169207630186892,0.06255585808947542
22.522,22.14,-1.46,0.48456963873139897,0.6113863646588652,0.06194008087445465,0.8198110388812472,0.1415282401151755,0.06266054650394894
22.584,22.19,-1.5,0.4839056252771516,0.6100578378299335,0.06192704734261214,0.8194408103381633,0.14135862678306105,0.06277170032979028
22.625,22.25,-1.48,0.4832322297372009,0.6087366629862949,0.06189883274542911,0.8190810695672515,0.1411832542264794,0.06288961393322563
22.686,22.3,-1.43,0.4825498065416883,0.6074231717770341,0.06185553396059307,0.8187320694451723,0.1410021476478101,0.0630145837358618
22.748,22.36,-1.48,0.48185871934854596,0.6061176948585648,0.06179726295908613,0.8183940597931862,0.14081533959879294,0.06314690794465036
22.809,22.41,-1.51,0.48115934087599005,0.6048205617011475,0.0617241467516968,0.8180672873267326,0.14062287004465424,0.06328688627060985
22.851,22.47,-1.46,0.48045205272041697,0.6035321004028616,0.0616363273194707,0.8177519956032085,0.14042478642420925,0.06343481963674837
22.913,22.52,-1.49,0.47973724515972443,0.6022526375113669,0.061533961528017184,0.817448424968063,0.1402211437057251,0.06359100987563711
22.995,22.58,-1.54,0.4790153169421538,0.6009824978536098,0.06141722102557618,0.8171568124993326,0.14001200443831946,0.06375575941709206
23.016,22.63,-1.49,0.4782866750608476,0.5997220043733803,0.061286292124817905,0.816877391950681,0.13979743879865605,0.06392937096640616
23.078,22.69,-1.46,0.4775517345144233,0.5984714779763325,0.061141375668533386,0.8166103936928634,0.13957752463268241,0.0641121471735292
23.139,22.74,-1.5,0.47681091805395753,0.5972312373818695,0.06098268687962648,0.8163560446533679,0.13935234749213932,0.06430439029356504
23.2,22.8,-1.49,0.4760646559168253,0.5960015989811994,0.060810455196018576,0.8161145682538828,0.13912200066555902,0.06450640183897235
23.24,22.85,-1.43,0.4753133855478666,0.5947828767008673,0.06062492409117036,0.8158861843452448,0.1388865852034699,0.06471848222389637
23.364,22.91,-1.47,0.47455755130838334,0.5935753818710814,0.06042635088094579,0.8156711091395571,0.1386462099375317,0.06494093040112203
23.384,22.96,-1.48,0.4737976041734924,0.5923794230981818,0.060215006517528716,0.8154695551392177,0.13840099149333573,0.06517404349221935
23.404,23.02,-1.4,0.4730340014183916,0.591195306140626,0.05999117537107316,0.8152817310626246,0.1381510542966137,0.06541811641150953
23.445,23.07,-1.4,0.4722672062940996,0.5900233337879207,0.05975515499974497,0.8151078417663197,0.13789653057261245,0.0656734414845012
23.506,23.13,-1.45,0.47149768769323763,0.5888638057419749,0.05950725590879578,0.8149480881633115,0.13763756033840294,0.06594030806144699
23.568,23.18,-1.42,0.4707259198064098,0.5877170185003985,0.059247801299287105,0.814802667137304,0.1373742913879131,0.06621900212664777
23.629,23.24,-1.42,0.4699523817697406,0.5865832652413215,0.05897712680705742,0.8146717714525786,0.1371068792694946,0.06650980590409045
23.67,23.29,-1.48,0.4691775573041276,0.5854628357093525,0.05869558023249917,0.8145555896593271,0.13683548725584735,0.06681299745998741
23.732,23.35,-1.47,0.4684019343467584,0.5843560161023448,0.05840352126168036,0.814454305994315,0.13656028630612946,0.06712885030280373
23.792,23.4,-1.39,0.46762600467544096,0.5832630889586732,0.05810132117930318,0.8143681002768658,0.13628145502007352,0.06745763298136787
23.854,23.46,-1.41,0.46685026352629866,0.5821843330447398,0.057789362573952285,0.8142971478002219,0.13599917958392094,0.06779960868164173
23.895,23.51,-1.41,0.46607520920539564,0.581120023242418,0.05746803903604392,0.8142416192183732,0.13571365370798247,0.06815503482266666
23.957,23.57,-1.33,0.465301342694872,0.5800704304361357,0.05713775484884246,0.8142016804284545,0.13542507855564512,0.06852416265208297
24.019,23.62,-1.33,0.46452916725418586,0.5790358213992735,0.056798924672869185,0.814177492448812,0.13513366266367552,0.06890723684146126
24.122,23.68,-1.38,0.4637591880170759,0.5780164586795393,0.056451973223982634,0.8141692112928743,0.13483962185370996,0.06930449508154252
24.143,23.73,-1.34,0.46299191158485803,0.5770126004830106,0.05609733494535639,0.81417698783904,0.13454317913486527,0.06971616767739476
24.185,23.79,-1.32,0.4622278456166565,0.5760245005565815,0.05573545367353255,0.8142009676968951,0.13424456459744544,0.07014247714348383
24.247,23.84,-1.36,0.4614674984171516,0.5750524080686421,0.05536678229869986,0.8142412910702009,0.13394401529775068,0.0705836377987484
24.287,23.9,-1.39,0.46071137852239125,0.574096567487923,0.054991782419323655,0.814298092617222,0.1336417751340143,0.07103985536192825
24.348,23.95,-1.36,0.459959994284168,0.5731572184606006,0.05461092399123902,0.8143715013090966,0.1333380947135074,0.07151132654752779
24.472,24.01,-1.42,0.4592138534534155,0.5722345956859176,0.05422468497131538,0.8144616402870427,0.1330332312108608,0.07199823866287383
24.492,24.06,-1.46,0.4584734627630487,0.5713289287906719,0.05383355095581139,0.8145686267191927,0.13272744821765126,0.07250076920677007
24.512,24.12,-1.39,0.45773932751065954,0.570440442202954,0.05343801481356927,0.8146925716577965,0.13242101558328745,0.07301908547026251
24.573,24.17,-1.39,0.4570119511414738,0.5695693550254844,0.05303857631425746,0.8148335798973952,0.13211420924721465,0.07355334414002246
24.614,24.23,-1.44,0.45629183483197916,0.568715880908859,0.05263574175193841,0.8149917498344396,0.1318073110624413,0.07410369090486957
24.655,24.28,-1.4,0.4555794770746258,0.5678802279249856,0.05223002356428125,0.8151671733287349,0.13150060861038523,0.07467026006602322
24.718,24.34,-1.37,0.4548753732640088,0.5670625984409978,0.05182193994775128,0.8153599355670822,0.1311943950070491,0.07525317415178809
24.843,24.39,-1.4,0.4541800152849404,0.5662631889939637,0.05141201446910461,0.8155701149295195,0.1308889687005503,0.07585254353755432
24.865,24.45,-1.39,0.45349389110281985,0.5654821901667603,0.05100077567349641,0.815797782858636,0.1305846332600484,0.07646846607218695
24.885,24.5,-1.32,0.4528174843567108,0.5647197864655389,0.0505887566894903,0.8160430037324994,0.13028169715613389,0.0771010267120077
24.927,24.56,-1.36,0.45215127395555565,0.5639761561992203,0.05017649483125037,0.8163058347417432,0.12998047353276687,0.07775029716360184
24.989,24.61,-1.41,0.4514957336779731,0.5632514713614523,0.049764531198203316,0.8165863257713155,0.12968127997088158,0.07841633553662777
25.052,24.67,-1.38,0.4508513317761119,0.5625458975154224,0.04935341027245921,0.8168845192872983,0.12938443824380216,0.0790991860076939
25.114,24.72,-1.38,0.4502185305840505,0.5618595936818583,0.04894367951427739,0.8172004502291345,0.129090274064639,0.07979887849624628
25.217,24.78,-1.46,0.4495977861312425,0.5611927122304842,0.0485358889558531,0.8175341459075137,0.12879911682584605,0.08051542835334523
25.239,24.83,-1.42,0.44898954776151917,0.5605453987751363,0.048130590793676514,0.8178856259081684,0.12851129933111838,0.08124883606419624
25.26,24.89,-1.38,0.4483942577581566,0.5599177920727055,0.0477283389796844,0.8182549020018597,0.128227157519804,0.08199908696530701
25.322,24.94,-1.42,0.4478123509755257,0.5593100239260435,0.047329688811394134,0.81864197806091,0.1279470301839997,0.08276615097716425
25.383,25.0,-1.37,0.44724425447785,0.5587222190909595,0.0469351965211755,0.8190468499827182,0.12767125867849946,0.08354998235335112
25.446,25.05,-1.31,0.4466903871856175,0.5581544951874174,0.04654541886478353,0.8194695056207488,0.12740018662378108,0.08435051944699967
25.508,25.11,-1.35,0.44615115953020734,0.557606962615017,0.04616091270926187,0.8199099247234751,0.1271341596022446,0.08516768449534627
25.571,25.16,-1.38,0.44562697311727223,0.5570797244728231,0.04578223462032295,0.8203680788816631,0.12687352484795944,0.08600138342293136
25.591,25.22,-1.33,0.4451182203993713,0.5565728764835998,0.04540994044930826,0.8208439314842961,0.12661863093022266,0.08685150566369977
25.653,25.27,-1.34,0.4446252843582924,0.5560865069225123,0.04504458491983068,0.8213374376833508,0.1263698274312722,0.08771792400201235
25.714,25.33,-1.41,0.4441485381974561,0.5556206965503778,0.044686721214207616,0.8218485443675896,0.1261274646185263,0.08860049443245786
25.775,25.38,-1.41,0.4436883450447692,0.5551755185515651,0.044336900559819294,0.8223771901455115,0.1258918931117392,0.08949905603834032
25.857,25.44,-1.39,0.4432450576662728,0.5547510384766596,0.043995671815614354,0.8229233053375634,0.12566346354547575,0.09041343088875511
25.877,25.49,-1.45,0.44281901819092717,0.5543473141900114,0.043663581059160655,0.8234868119776345,0.1254425262273087,0.09134342395423821
25.939,25.55,-1.48,0.4424105578468637,0.553964395822276,0.04334117117484599,0.8240676238237201,0.12522943079213333,0.09228882304104337
26.001,25.6,-1.42,0.4420199967094166,0.5536023257280598,0.04302898144398466,0.8246656463775458,0.12502452585298005,0.09324939874411128
26.062,25.66,-1.44,0.4416476434612198,0.553261138448764,0.04272754713764751,0.8252807769128484,0.12482815864869234,0.09422490441872691
26.083,25.71,-1.48,0.44129379516462003,0.5529408606807142,0.042437399113020496,0.8259129045119374,0.12464067468882642,0.09521507617075411
26.145,25.77,-1.41,0.4409587370466248,0.5526415112486559,0.04215906341402627,0.8265619101101248,0.12446241739612673,0.09621963286522461
26.206,25.82,-1.4,0.44064274229657185,0.5523631010847002,0.04189306087682331,0.8272276665476298,0.12429372774694225,0.09723827615299016
26.31,25.88,-1.45,0.44034607187668406,0.552105633212796,0.041639906740654244,0.827910038628632,0.12413494390996502,0.09827069051517157
26.33,25.93,-1.41,0.440068974345647,0.551869102738813,0.04140011026438989,0.8286088831872472,0.12398640088369484,0.09931654332523221
26.372,25.99,-1.38,0.43981168569531726,0.5516534968463528,0.041174174349046126,0.8293240491602959,0.12384843013306084,0.10037548492858589
26.435,26.04,-1.44,0.4395744292006501,0.5514587947984523,0.04096259516652948,0.8300553776667914,0.12372135922566015,0.10144714873970032
26.476,26.1,-1.46,0.4393574152829153,0.551284967945404,0.0407658617948565,0.8308027020941251,0.12360551146809787,0.10253115135667998
26.538,26.15,-1.44,0.43916084138624906,0.5511319797389651,0.0405844558600727,0.8315658481909298,0.12350120554293492,0.10362709269328711
26.599,26.21,-1.49,0.438984891867573,0.5509997857532458,0.04041885118507517,0.8323446341665782,0.12340875514676283,0.10473455612829594
26.68,26.26,-1.56,0.4388297378998883,0.5508883337125725,0.04026951344552087,0.8331388707972089,0.12332846862992185,0.10585310867199743
26.7,26.32,-1.53,0.438695537388929,0.5507975635265872,0.04013689983297602,0.8339483615381142,0.12326064863836765,0.10698230114958733
26.783,26.37,-1.52,0.4385824349031533,0.5507274073327709,0.04002145872544366,0.834772902642278,0.12320559175817028,0.10812166840109227
26.823,26.43,-1.57,0.43849056161706923,0.550677789546447,0.03992362936539667,0.8356122832848301,0.12316358816309884,0.10927072949744315
26.865,26.48,-1.55,0.4384200352679288,0.5506486269181656,0.039843841545431795,0.8364662856932147,0.12313492126571862,0.1104289879722922
26.927,26.54,-1.49,0.4383709601258519,0.5506398285982693,0.03978251530165327,0.8373346852829382,0.12311986737241029,0.11159593206918308
26.969,26.59,-1.55,0.43834342697746365,0.5506512962083817,0.039740060614902,0.8382172507988314,0.12311869534271659,0.11277103500374941
27.053,26.65,-1.56,0.43833751312312946,0.5506829239195596,0.03971687711995345,0.8391137444618119,0.1231316662534249,0.11395375524073002
27.074,26.7,-1.5,0.43835328238786636,0.550734598536861,0.039713353822800765,0.8400239221211682,0.123159033067805,0.11514353678567794
27.157,26.76,-1.51,0.438390785145975,0.5508061995901169,0.03972986882612496,0.8409475334123835,0.12320104031043205,0.11633980949127926
27.199,26.81,-1.57,0.4384500583594012,0.5508975994307397,0.03976678906304213,0.8418843219204689,0.12325792374803693,0.11754198937821177
27.241,26.87,-1.54,0.4385311256297842,0.55100866333443,0.03982447003921711,0.8428340253487121,0.12332991007683576,0.11874947897047651
27.302,26.92,-1.59,0.43863399726411983,0.5511392496096554,0.039903255583454415,0.8437963756926976,0.12341721661680294,0.11996166764514975
27.429,26.98,-1.65,0.43875867035394017,0.5512892097117681,0.04000347760691285,0.8447710994194146,0.12352005101335171,0.12117793199658501
27.449,27.03,-1.66,0.43890512886789085,0.5514583883626282,0.040125455871112915,0.8457579176512847,0.12363861094687038,0.12239763621523791
27.49,27.09,-1.66,0.4390733437575614,0.5516466236756109,0.04026949776490561,0.8467565463549956,0.12377308385053158,0.12362013248142513
27.553,27.14,-1.7,0.43926327307640345,0.5518537472859026,0.04043589809055753,0.8477666965350874,0.12392364663674972,0.12484476137442128
27.573,27.2,-1.7,0.4394748621115296,0.5520795844860218,0.040624938859082416,0.8487880744322744,0.12409046543261308,0.12607085229733497
27.638,27.25,-1.62,0.43970804352814513,0.5523239543665383,0.04083688909492177,0.8498203817265041,0.12427369532457389,0.12729772391817323
27.694,27.31,-1.62,0.43996273752631376,0.5525866699619659,0.04107200465006223,0.8508633157447175,0.1244734801126477,0.12852468462741484
27.817,27.36,-1.65,0.4402388520097335,0.5528675384017854,0.041330528027684284,0.8519165696732125,0.12468995207435803,0.1297510330123013
27.838,27.42,-1.6,0.44053628276617396,0.553166361066526,0.04161268821546537,0.8529798327744359,0.12492323173866977,0.13097605834792045
27.859,27.47,-1.59,0.4408549136592227,0.553482933748807,0.04191870052871129,0.8540527906079991,0.12517342767017878,0.132199041105027
27.921,27.53,-1.63,0.4411946168309968,0.5538170468192181,0.042248766463548956,0.8551351252556747,0.12544063626384833,0.13341925347445463
27.984,27.58,-1.64,0.4415552529154914,0.5541684853968979,0.04260307356045658,0.85622651555014,0.12572494155060138,0.13463595990794086
28.067,27.64,-1.6,0.4419366712622535,0.5545370295246584,0.042981795278438144,0.8573266373072431,0.12602641501408715,0.13584841767516884
28.088,27.69,-1.66,0.4423387101700829,0.5549224543484872,0.04338509088017935,0.8584351635615735,0.12634511541894491,0.13705587743683623
28.151,27.75,-1.71,0.4427611971304658,0.5553245303012448,0.043813105328550206,0.8595517648050972,0.1266810886508786,0.13825758383357847
28.215,27.8,-1.67,0.443203949080433,0.5557430232903684,0.04426596919483651,0.8606761092285918,0.12703436756884248,0.1394527760905649
28.235,27.86,-1.7,0.4436667726645113,0.5561776948893764,0.04474379857908988,0.8618078629655533,0.12740497186961305,0.1406406886375351
28.296,27.91,-1.73,0.44414946450540793,0.55662830253295,0.0452466950429789,0.8629466903381805,0.12779290796498774,0.14182055174398564
28.358,27.97,-1.68,0.4446518114830345,0.5570945997153275,0.04577474555549652,0.8640922541049856,0.12819816887181257,0.14299159216915092
28.399,28.02,-1.65,0.4451735910214626,0.5575763361917071,0.0463280224518382,0.8652442157095512,0.1286207341150065,0.14415303382635408
28.523,28.08,-1.69,0.44571457138339954,0.5580732581822921,0.04690658340571274,0.8664022355299547,0.12906056964372634,0.1453040984612535
28.543,28.13,-1.69,0.44627451197179097,0.5585851085785521,0.04751047141529107,0.8675659731284144,0.12951762776080683,0.14644400634349725
28.584,28.19,-1.64,0.44685316363818695,0.5591116271512261,0.048139714802956514,0.8687350875007626,0.12999184706561104,0.1475719769712933
28.645,28.24,-1.68,0.44745026899753737,0.5596525507595553,0.04879432722900214,0.8699092373253543,0.13048315241043032,0.14868722978841575
28.706,28.3,-1.7,0.4480655627491002,0.5602076135612076,0.049474307719400895,0.8710880812110032,0.1309914548705704,0.14978898491320428
28.727,28.35,-1.65,0.448698772003145,0.5607765472223543,0.050179640707741044,0.872271277943488,0.13151665172825439,0.15087646387914713
28.789,28.41,-1.66,0.4493496166131233,0.5613590811273612,0.05091029609138784,0.873458486730122,0.13205862647046596,0.15194889038666476
28.891,28.46,-1.72,0.4500178095129619,0.5619549425875499,0.05166622930190713,0.8746493674418278,0.13261724880084522,0.15300549106573302
28.913,28.52,-1.71,0.4507030570591177,0.5625638570484701,0.05244738138975867,0.8758435808521282,0.13319237466573453,0.1540454962489821
28.954,28.57,-1.72,0.451405059377021,0.5631855482951049,0.053253679123239424,0.8770407888724941,0.13378384629445805,0.15506814075486267
29.015,28.63,-1.77,0.45212351071152834,0.5638197386544096,0.05408503510163543,0.8782406547835075,0.13439149225389088,0.15607266468042708
29.076,28.68,-1.76,0.45285809978099967,0.5644661491945732,0.05494134788251874,0.8794428434613437,0.13501512751733719,0.1570583142032513
29.138,28.74,-1.7,0.4536085101346007,0.5651244999203845,0.0558225021230944,0.880647021599123,0.13565455354769082,0.15802434239198102
29.2,28.79,-1.72,0.4543744205124161,0.5657945099640738,0.05672836873546538,0.8818528579227248,0.13630955839480732,0.15897001002489106
29.241,28.85,-1.72,0.45515550520793846,0.5664758977709877,0.05765880505563477,0.8830600234006862,0.13697991680698093,0.15989458641571277
29.301,28.9,-1.66,0.45595143443248776,0.5671683812794288,0.05861365502600386,0.8842681914478077,0.137665390356401,0.16079735024581343
29.383,28.96,-1.64,0.45676187468111185,0.5678716780939728,0.05959274939105249,0.8854770381220827,0.13836572757845672,0.16167759040163776
29.404,29.01,-1.68,0.45758648909950067,0.5685855056515713,0.060595905905806303,0.8866862423145863,0.13908066412476264,0.1625346068161863
29.445,29.07,-1.64,0.45842493785141597,0.5693095813798112,0.06162292955661708,0.8878954859320171,0.13980992292978367,0.16336771131321415
29.506,29.12,-1.61,0.45927687848608617,0.5700436228468285,0.06267361279373308,0.889104454071687,0.14055321439095095,0.16417622845278684
29.547,29.18,-1.65,0.4601419663049642,0.5707873479025598,0.06374773577512226,0.8903128351888298,0.1413102365621655,0.16495949637683893
29.609,29.23,-1.66,0.46101985472719875,0.5715404748112191,0.06484506662101558,0.8915203212561494,0.14208067536058874,0.16571686765343047
29.671,29.29,-1.62,0.46191019565313884,0.5723027223750344,0.06596536167864621,0.8927266079155525,0.14286420478661227,0.1664477101184054
29.732,29.34,-1.69,0.46281263982519244,0.5730738100493542,0.06710836579666998,0.8939313946219887,0.1436604871568883,0.16715140771308887
29.794,29.4,-1.72,0.46372683718537583,0.5738534580492334,0.0682738126087516,0.8951343847792884,0.14446917335028192,0.16782736131653564
29.835,29.45,-1.66,0.4646524372289084,0.5746413874475836,0.06946142482578654,0.8963352858678385,0.14528990306657452,0.16847498957067586
29.897,29.51,-1.65,0.46558908935322735,0.5754373202649337,0.07067091453621074,0.8975338095638811,0.14612230509771165,0.1690937296965252
29.999,29.56,-1.69,0.466536443201819,0.5762409795508149,0.07190198351382807,0.8987296718501828,0.14696599761134474,0.16968303829949768
30.019,29.62,-1.64,0.46749414900228126,0.5770520894567999,0.07315432353255738,0.899922593117846,0.14782058844638285,0.17024239216180845
30.062,29.67,-1.63,0.4684618578980575,0.5778703753012604,0.07442761668749218,0.9011122982590858,0.14868567542024674,0.1707712890199871
30.121,29.73,-1.65,0.4694392222733171,0.5786955636259601,0.07572153572168831,0.9022985167508553,0.14956084664750463,0.17126924832564056
30.183,29.78,-1.65,0.4704258960704918,0.5795273822446634,0.07703574435812761,0.9034809827292418,0.15044568086955332,0.17173581198779245
30.223,29.84,-1.6,0.4714215351000037,0.580365560284006,0.07836989763632457,0.9046594350546087,0.15133974779499532,0.17217054509532087
30.285,29.89,-1.63,0.4724257973417379,0.5812098282169393,0.0797236422530488,0.9058336173675031,0.15224260845034845,0.17257303661818177
30.366,29.95,-1.65,0.47343834323783046,0.582059917889094,0.08109661690663138,0.9070032781353791,0.15315381554070717,0.17294290008620458
30.387,30.0,-1.61,0.47445883597636185,0.582915562538436,0.08248845264431022,0.9081681706901884,0.15407291381996044,0.17327977424426674
30.429,30.06,-1.62,0.4754869417655604,0.5837764968086024,0.08389877321207016,0.9093280532568939,0.1549994404701511,0.1735833236826178
30.491,30.11,-1.66,0.4765223300981371,0.5846424567563346,0.08532719540645076,0.910482688972923,0.1559329254895369,0.17385323944109773
30.553,30.17,-1.62,0.47756467400537483,0.5855131798534667,0.08677332942782046,0.9116318458985753,0.1568728920888822,0.17408923958598863
30.594,30.22,-1.57,0.47861365030060044,0.5863884049839735,0.088236779234647,0.9127752970183953,0.15781885709547822,0.17429106975824646
30.719,30.28,-1.59,0.4796689398116813,0.5872678724366057,0.08971714289831993,0.9139128202335502,0.15877033136435922,0.1744585036918822
30.739,30.33,-1.58,0.4807302276022079,0.588151323893665,0.09121401295808733,0.9150441983452949,0.15972682019615786,0.17459134370131119
30.78,30.39,-1.5,0.481797203181054,0.5890385024164603,0.09272697677565547,0.9161692190296825,0.1606878237610305,0.17468942113652855
30.84,30.44,-1.5,0.4828695607000448,0.5899291524279703,0.0942556168889804,0.917287674803729,0.16165283752808127,0.17475259680497499
30.902,30.5,-1.53,0.48394699913948996,0.5908230196932122,0.09579951136475957,0.9183993629832728,0.162621352699715,0.1747807613589273
30.944,30.55,-1.48,0.4850292224813746,0.591719851297802,0.09735823414911217,0.9195040856328084,0.16359285665035775,0.17477383564718246
31.005,30.61,-1.47,0.48611593987002033,0.5926193956251656,0.09893135541593831,0.9206016495075853,0.16456683336898992,0.17473177102974077
31.088,30.66,-1.53,0.48720686576007133,0.5935214023328343,0.10051844191247514,0.921691865988267,0.1655427639049375,0.17465454965422053
31.13,30.72,-1.51,0.48830172005168726,0.5944256223282322,0.10211905730160478,0.9227745510084434,0.16652012681635572,0.17454218469285848
31.171,30.77,-1.48,0.48940022821286705,0.5953318077443531,0.10373276250050664,0.9238495249753113,0.16749839862082266,0.17439472053913074
31.232,30.83,-1.41,0.4905021213888657,0.5962397119157222,0.10535911601527655,0.9249166126838668,0.1684770542474335,0.17421223296322585
31.293,30.88,-1.41,0.49160713649870036,0.5971490893550235,0.10699767427113992,0.9259756432250029,0.16945556748975832,0.17399482922577322
31.314,30.94,-1.31,0.49271501631877035,0.598059695730783,0.10864799193786498,0.9270264498879501,0.17043341145901025,0.17374264814932047
31.375,30.99,-1.3,0.4938255095536448,0.5989712878464796,0.11030962224996382,0.9280688700575197,0.1714100590367844,0.17345586014705275
31.437,31.05,-1.33,0.4949383708941043,0.5998836236214489,0.11198211732126655,0.929102745106577,0.17238498332676183,0.17313466720823947
31.499,31.1,-1.24,0.4960533610625606,0.6007964620739299,0.11366502845346188,0.9301279202841451,0.17335765810481807,0.17277930283993864
31.562,31.16,-1.21,0.49717024684602223,0.6017095633065926,0.11535790643822207,0.9311442445995097,0.1743275582670168,0.17239003196460473
31.603,31.21,-1.09,0.49828880111682694,0.6026226884948498,0.11706030185257081,0.9321515707026818,0.17529416027500005,0.1719671507734467
31.644,31.27,-1.08,0.49940880284141864,0.6035355998782201,0.11877176534720366,0.9331497547615815,0.1762569425983227,0.1715109865356243
31.705,31.32,-1.04,0.500530037077497,0.6044480607549736,0.1204918479275225,0.934138656336316,0.17721538615333252,0.17102189736355597
31.768,31.38,-1.19,0.5016522949599187,0.6053598354802509,0.12222010122719826,0.935118138250927,0.17816897473827478,0.1705002719346958
31.809,31.43,-1.21,0.5027753736757711,0.6062706894677915,0.12395607777410517,0.9360880664629809,0.17911719546437574,0.16994652917014227
31.872,31.49,-1.17,0.5038990764290776,0.6071803891953236,0.12569933124847749,0.9370483099313818,0.18005953918269643,0.1693611178704298
31.933,31.54,-1.16,0.5050232123956405,0.608088702213543,0.1274494167331371,0.9379987404827842,0.18099550090653074,0.16874451630887513
31.995,31.6,-1.19,0.5061475966685438,0.6089953971584887,0.1292058909556432,0.9389392326769294,0.18192458022906266,0.16809723178292596
32.035,31.65,-1.13,0.5072720501948386,0.6099002437670661,0.13096831252221383,0.9398696636711779,0.18284628173594647,0.16741980012403712
32.097,31.71,-1.09,0.5083963997038637,0.6108030128955545,0.13273624214326932,0.9407899130844757,0.1837601154124435,0.16671278516668148
32.179,31.76,-1.12,0.5095204776275838,0.611703476541113,0.13450924285045704,0.9416998628609945,0.1846655970447485,0.16597677817722967
32.2,31.82,-1.09,0.5106441220132536,0.6126014078664823,0.1362868802050243,0.9425993971337432,0.18556224861514545,0.1652123972436124
32.282,31.87,-1.03,0.5117671764287111,0.6134965812281818,0.1380687224974201,0.9434884020885442,0.1864495986906518,0.16442028662685185
32.302,31.93,-1.06,0.5128894898606335,0.614388772208505,0.1398543409380329,0.944366765828843,0.18732718280482866,0.16360111607569014
32.364,31.98,-1.05,0.5140109166061453,0.6152777576515661,0.14164330983899157,0.9452343782418751,0.18819454383245265,0.16275558010565477
32.425,32.04,-1.0,0.5151313161581873,0.6161633157035814,0.1434352067869643,0.9460911308667316,0.18905123235676075,0.16188439724396034
32.467,32.09,-1.01,0.5162505530850451,0.6170452258574948,0.14522961280689908,0.9469369167648409,0.1898968070289968,0.16098830924165095
32.569,32.15,-1.09,0.5173684969043807,0.6179232690019968,0.14702611251666173,0.9477716303933027,0.19073083491999865,0.1600680802543671
32.59,32.2,-1.05,0.5184850219520676,0.61879722747493,0.14882429427253968,0.9485951674814681,0.19155289186357374,0.15912449599309803
32.631,32.26,-1.02,0.5196000072461072,0.61966688512101,0.15062375030559477,0.9494074249111133,0.19236256279140587,0.15815836284628537
32.693,32.31,-1.04,0.5207133363458998,0.6205320273537304,0.15242407684888123,0.9502083006005205,0.19315944205921673,0.15717050697470789
32.754,32.37,-1.02,0.5218248972071541,0.6213924412212588,0.15422487425557044,0.9509976933927639,0.19394313376388184,0.1561617733806734
32.815,32.42,-0.97,0.5229345820327249,0.6222479154760796,0.1560257471080417,0.9517755029485034,0.1947132520511799,0.1551330249531052
32.875,32.48,-0.98,0.5240422871196749,0.6230982406481086,0.15782630431801742,0.9525416296435921,0.19546942141385276,0.1540851414901232
32.957,32.53,-0.99,0.5251479127028649,0.6239432091209659,0.15962615921783643,0.9532959744717618,0.19621127697965618,0.15301901870070325
32.978,32.59,-0.93,0.5262513627953753,0.624782615211063,0.16142492964296642,0.954038438952637,0.1969384647890947,0.15193556718695111
33.019,32.64,-0.91,0.5273525450260608,0.625616255249126,0.16322223800584545,0.9547689250453367,0.19765064206254762,0.15083571140847066
33.081,32.7,-0.94,0.528451370474533,0.6264439276637438,0.16501771136110802,0.9554873350680279,0.19834747745650674,0.14972038863028228
33.142,32.75,-0.91,0.5295477535038668,0.6272654330665066,0.16681098146221607,0.9561935716239476,0.19902865130865985,0.148590547855754
33.203,32.81,-0.9,0.530641611591324,0.6280805743382838,0.1686016848095042,0.9568875375345306,0.19969385587157107,0.14744714874601753
33.305,32.86,-0.94,0.5317328651573889,0.6288891567161892,0.17038946268967792,0.9575691357803112,0.20034279553472092,0.14629116052736238
33.326,32.92,-0.91,0.5328214373934043,0.6296909878808019,0.17217396120684536,0.9582382694502557,0.200975187034672,0.14512356088814776
33.367,32.97,-0.83,0.5339072540880693,0.6304858780432454,0.1739548313051915,0.9588948417001605,0.20159075965312148,0.14394533486680017
33.427,33.03,-0.84,0.5349902434530573,0.6312736400317598,0.17573172878343715,0.959538755720716,0.20218925540259736,0.14275747373245248
33.49,33.08,-0.84,0.536070335947987,0.6320540893774264,0.17750431430123914,0.9601699147157724,0.20277042919955376,0.1415609738597098
33.572,33.14,-0.79,0.537147464104976,0.6328270443987211,0.17927225337768948,0.9607882218912995,0.20333404902463922,0.140356835598912
33.592,33.19,-0.76,0.5382215623530049,0.6335923262845901,0.18103521638209172,0.9613935804554457,0.20387989606993898,0.139146062143147
33.654,33.25,-0.8,0.5392925668423283,0.6343497591757528,0.18279287851726383,0.9619858936299573,0.20440776487302267,0.13792965839323382
33.675,33.3,-0.75,0.5403604152691849,0.6350991702439543,0.18454491979574444,0.9625650646730165,0.2049174634376583,0.1367086298219472
33.756,33.36,-0.71,0.5414250467010591,0.6358403897689329,0.18629102500942574,0.9631309969133897,0.20540881334108202,0.13548398133886777
33.798,33.41,-0.75,0.5424864014027401,0.6365732512129176,0.18803088369325288,0.9636835937956756,0.20588164982773904,0.1342567161573932
33.859,33.47,-0.75,0.5435444206634071,0.6372975912925494,0.18976419008368367,0.9642227589364302,0.20633582188943195,0.1330278346656029
33.9,33.52,-0.71,0.5445990466249533,0.6380132500481827,0.19149064307260646,0.9647483961909498,0.20677119233183178,0.13179833330276863
33.961,33.58,-0.74,0.5456502221117355,0.6387200709105981,0.1932099461573933,0.9652604097304937,0.20718763782732036,0.1305692034433247
34.022,33.63,-0.76,0.5466978904619111,0.6394179007652151,0.19492180738771384,0.9657587041296888,0.20758504895413937,0.12934143029007697
34.084,33.69,-0.71,0.5477419953604796,0.6401065900139392,0.19662593930966388,0.9662431844638261,0.20796333022182104,0.12811599177835004
34.126,33.74,-0.68,0.5487824806741192,0.6407859926347836,0.19832205890769822,0.9667137564157091,0.2083224000828761,0.12689385749268184
34.21,33.8,-0.71,0.5498192902878867,0.6414559662393966,0.2000098875448198,0.9671703263916677,0.20866219093071378,0.1256759875976503
34.231,33.85,-0.69,0.5508523679438428,0.6421163721286329,0.20168915090144815,0.9676128016463617,0.20898264908377698,0.12446333178448997
34.293,33.91,-0.61,0.5518816570816534,0.6427670753463344,0.20335957891337142,0.9680410904160663,0.20928373475589068,0.12325682823529946
34.395,33.96,-0.65,0.5529071006812044,0.643407944731536,0.20502090570918582,0.9684551020602051,0.20956542201284187,0.12205740260680686
34.416,34.02,-0.64,0.5539286411072597,0.6440388529693628,0.20667286954762296,0.9688547472109618,0.20982769871523332,0.12086596703576753
34.458,34.07,-0.56,0.554946219956167,0.6446596766408986,0.20831521275514442,0.9692399379308672,0.21007056644768288,0.11968341916802865
34.5,34.13,-0.6,0.5559597779046306,0.6452702962723073,0.2099476816641385,0.9696105878782805,0.21029404043447505,0.11851064121312464
34.561,34.18,-0.63,0.5569692545605783,0.6458705963834406,0.21157002655198362,0.9699666124806874,0.21049814944180414,0.11734849902606127
34.624,34.24,-0.63,0.5579745883162076,0.6464604655360956,0.21318200158117118,0.9703079291157176,0.2106829356667782,0.11619784121776136
34.664,34.29,-0.62,0.5589757162033809,0.6470397963819591,0.2147833647406352,0.9706344572997252,0.21084845461337587,0.11505949829549977
34.747,34.35,-0.66,0.559972573751661,0.6476084857101506,0.21637387778843153,0.9709461188837039,0.21099477495554944,0.11393428183456661
34.789,34.4,-0.63,0.5609650948493473,0.6481664344941835,0.21795330619591294,0.971242838256244,0.21112197838765992,0.11282298368236172
34.851,34.46,-0.51,0.5619532116079016,0.6487135479381403,0.21952141909355255,0.9715245425531996,0.21123015946241355,0.1117263751961126
34.892,34.51,-0.54,0.5629368542301337,0.6492497355218732,0.2210779892185785,0.9717911618736889,0.21131942541646503,0.11064520651539328
34.954,34.57,-0.54,0.563915950882495,0.6497749110450656,0.22262279286458247,0.9720426295020012,0.21138989598387128,0.10958020587052371
35.015,34.62,-0.48,0.5648904275717997,0.6502889926699976,0.22415560983325708,0.9722788821349221,0.21144170319762298,0.10853207892766337
35.078,34.68,-0.47,0.5658602080266866,0.650791902962869,0.22567622338840343,0.9724998601139129,0.21147499117954208,0.1075015081710386
35.119,34.73,-0.51,0.566825213584108,0.6512835689335322,0.2271844202123447,0.9727055076614896,0.21148991591888888,0.10648915232242237
35.181,34.79,-0.48,0.5677853630811293,0.6517639220734807,0.22867999036487027,0.9728957731210734,0.21148664504006792,0.10549564579780502
35.221,34.84,-0.47,0.5687405727522982,0.6522328983919377,0.23016272724483552,0.9730706091995455,0.2114653575598586,0.10452159820112045
35.282,34.9,-0.52,0.5696907561328352,0.6526904384498965,0.23163242755455402,0.9732299732117269,0.21142624363462792,0.10356759385490491
35.344,34.95,-0.52,0.5706358239678833,0.6531364873919827,0.23308889126712434,0.973373827326046,0.21136950429800128,0.10263419136781868
35.405,35.01,-0.5,0.5715756841280443,0.6535709949760388,0.23453192159683772,0.973502138810723,0.21129535118948223,0.10172192323900218
35.508,35.06,-0.55,0.572510241531424,0.653993915600348,0.2359613249728059,0.973614880279859,0.2112040062745194,0.10083129549922899
35.529,35.12,-0.55,0.5734393980723931,0.6544052083284094,0.23737691101592664,0.9737120299388575,0.21109570155651494,0.09996278738875286
35.55,35.17,-0.49,0.5743630525572507,0.65480483691119,0.2387784925192479,0.9737935718286382,0.21097067878126324,0.09911685107160888
35.611,35.23,-0.49,0.5752811006469498,0.6551927698067948,0.24016588543173306,0.973859496068093,0.2108291891343056,0.09829391138594269
35.673,35.28,-0.53,0.5761934348070257,0.6555689801975036,0.24153890884538393,0.9739097990941773,0.21067149293168871,0.09749436562976173
35.715,35.34,-0.48,0.5770999442648603,0.6559334460041253,0.24289738498565602,0.9739444838989489,0.21049785930463197,0.0967185833813642
35.777,35.39,-0.48,0.5780005149744311,0.6562861498976166,0.24424113920511112,0.973963560262785,0.21030856587863447,0.09596690635362776
35.859,35.45,-0.52,0.57889502958872,0.6566270793079013,0.24556999998028195,0.9739670449829466,0.21010389844758004,0.09523964828135002
35.88,35.5,-0.54,0.5797833674399943,0.6569562264298324,0.24688379891176285,0.9739549620966399,0.20988415064342075,0.09453709484090256
35.961,35.56,-0.51,0.5806654045282006,0.6572735882262517,0.24818237072761368,0.9739273430976879,0.2096496236020392,0.09385950360153918
36.004,35.61,-0.56,0.5815410135177442,0.6575791664281126,0.24946555329029116,0.9738842271458371,0.20940062562589795,0.09320710400777445
36.066,35.67,-0.6,0.5824100637429417,0.6578729675316511,0.2507331876074788,0.9738256612675512,0.20913747184408138,0.09258009739230247
36.126,35.72,-0.58,0.58327242122244,0.6581550027926115,0.2519851178472966,0.9737517005469738,0.20886048387032763,0.09197865701891593
36.168,35.78,-0.6,0.5841279486828823,0.6584252882175644,0.2532211913584294,0.9736624083055677,0.20856998945963184,0.09140292815479412
36.229,35.83,-0.66,0.5849765055920537,0.6586838445523967,0.25444125869572287,0.9735578562687768,0.20826632216398508,0.09085302817139594
36.29,35.89,-0.64,0.5858179482016805,0.6589306972680788,0.255645173651807,0.9734381247178876,0.20794982098778814,0.09032904667305815
36.332,35.94,-0.63,0.5866521295999914,0.6591658765438394,0.2568327932953283,0.9733033026251203,0.20762083004345816,0.08983104565229956
36.372,36.0,-0.69,0.5874788997740852,0.6593894172478908,0.2580039780164229,0.9731534877698457,0.2072796982077194,0.08935905967083473
36.434,36.05,-0.69,0.5882981056820988,0.6596013589158914,0.2591585915801151,0.9729887868337592,0.206926778779048,0.08891309606541407
36.495,36.11,-0.65,0.5891095913351122,0.6598017457273858,0.26029650118837866,0.9728093154728249,0.20656242913672312,0.08849313517778135
36.537,36.16,-0.69,0.5899131978887092,0.659990626480521,0.26141757755161393,0.9726151983639078,0.2061870104019202,0.08809913060820737
36.599,36.22,-0.72,0.5907087637440985,0.6601680545653803,0.26252169497017613,0.972406569224455,0.20580088710126984,0.0877310094921674
36.66,36.27,-0.69,0.5914961246586972,0.6603340879362812,0.26360873142629104,0.9721835708045126,0.2054044268332941,0.08738867279972162
36.702,36.33,-0.71,0.59227511386608,0.6604887890833879,0.2646785686862988,0.9719463548515124,0.20499799993812698,0.0870719956570587
36.762,36.38,-0.8,0.5930455622051949,0.6606322250039607,0.2657310924128429,0.9716950820491771,0.2045819791709126,0.0867808276895443
36.823,36.44,-0.79,0.5938072982587279,0.6607644671735389,0.26676619228643117,0.9714299219323458,0.2041567393792593,0.08651499338552598
36.866,36.49,-0.81,0.5945601485005021,0.6608855915173245,0.2677837621357202,0.9711510527796472,0.20372265718509883,0.08627429248010378
36.971,36.55,-0.86,0.595303937451774,0.6609956783819985,0.26878370007584906,0.9708586614859678,0.20328011067126273,0.08605850035811366
36.992,36.6,-0.85,0.5960384878462825,0.6610948125081794,0.26976590865413197,0.9705529434166457,0.20282947907303361,0.08586736847566519
37.033,36.66,-0.81,0.5967636208038859,0.6611830830037151,0.2707302950024082,0.9702341022453096,0.20237114247487792,0.08570062479964646
37.096,36.71,-0.85,0.5974791560125993,0.6612605833179793,0.2716767709953379,0.9699023497772259,0.20190548151252102,0.08555797426462937
37.157,36.77,-0.86,0.5981849119188298,0.6613274112172945,0.27260525341392233,0.969557905759924,0.2014328770804946,0.08543909924658956
37.198,36.82,-0.81,0.5988807059255791,0.6613836687615636,0.2735156641135093,0.9692009976827354,0.2009537100452669,0.08534366005280089
37.26,36.88,-0.81,0.5995663545983618,0.6614294622821272,0.2744079301955317,0.968831860566734,0.20046836096406004,0.08527129542718885
37.322,36.93,-0.86,0.6002416738785571,0.6614649023608012,0.2752819841822184,0.9684507367464258,0.1999772098094537,0.08522162307034768
37.404,36.99,-0.84,0.6009064793038831,0.6614901038099742,0.2761377641935008,0.9680578756444584,0.199480635699874,0.08519424017335754
37.425,37.04,-0.83,0.601560586235667,0.6615051856535724,0.2769752141253391,0.9676535335405788,0.19897901663606818,0.08518872396449453
37.486,37.1,-0.89,0.6022038100925531,0.6615102711086527,0.27779428382870247,0.9672379733360382,0.19847272924365922,0.0852046322679583
37.526,37.15,-0.92,0.6028359665902628,0.6615054875673546,0.27859492928845886,0.9668114643146014,0.19796214852186222,0.08524150407382443
37.609,37.21,-0.91,0.6034568719869796,0.6614909665789538,0.2793771128014589,0.9663742819012238,0.19744764759841935,0.0852988601184888
37.691,37.26,-0.95,0.6040663433338955,0.6614668438317504,0.2801408031531281,0.9659267074193055,0.19692959749078284,0.08537620347487498
37.711,37.32,-0.98,0.6046641987304123,0.6614332591345183,0.28088597579190644,0.965469027847247,0.19640836687353203,0.08547302015165124
37.773,37.37,-0.91,0.6052502575834585,0.6613903563971995,0.2816126130008691,0.9650015355748477,0.19588432185196775,0.08558877970066159
37.814,37.43,-0.89,0.6058243408703653,0.6613382836104782,0.28232070406586324,0.9645245281599193,0.19535782574178306,0.0857229358317328
37.855,37.48,-0.92,0.6063862714047327,0.6612771928238295,0.283010245439489,0.9640383080853135,0.19482923885468123,0.0858749270340104
37.917,37.54,-0.87,0.6069358741047066,0.6612072401216174,0.28368124090026586,0.963543182516444,0.19429891828979995,0.0860441772029919
37.977,37.59,-0.83,0.6074729762630648,0.6611285855968614,0.28433370170634914,0.9630394630593105,0.1937672177308115,0.08623009627246067
38.101,37.65,-0.85,0.6079974078184975,0.661041393322328,0.284967646743194,0.9625274655190511,0.1932344872485875,0.08643208085058747
38.121,37.7,-0.86,0.6085090016274524,0.6609458313186612,0.28558310266458076,0.9620075096591115,0.19270107310933937,0.0866495148595432
38.162,37.76,-0.82,0.6090075937359173,0.6608420715192979,0.2861801040264095,0.9614799189612256,0.19216731758817068,0.08688177017800296
38.203,37.81,-0.87,0.6094930236505216,0.6607302897319369,0.2867586934126535,0.9609450203864229,0.19163355878800217,0.08712820728590673
38.264,37.87,-0.91,0.609965134608343,0.6606106655963312,0.28731892155283734,0.9604031441372601,0.19110013046384478,0.08738817591079703
38.325,37.92,-0.89,0.6104237738448074,0.660483382538161,0.28786084743038026,0.9598546234214079,0.1905673618524009,0.08766101567498169
38.387,37.98,-0.88,0.6108687928590565,0.6603486277187479,0.2883845383811412,0.9592997942166589,0.19003557750696454,0.08794605674268084
38.427,38.03,-0.95,0.6113000476761228,0.6602065919803605,0.2888900701815027,0.9587389950373504,0.18950509713757163,0.08824262046625521
38.488,38.09,-0.9,0.6117173991052004,0.6600574697869074,0.2893775271253363,0.9581725667021463,0.18897623545632616,0.08855002003059212
38.528,38.14,-0.86,0.6121207129932348,0.6599014591598772,0.28984700208923436,0.9576008521030828,0.18844930202780866,0.08886756109476482
38.569,38.2,-0.89,0.6125098604729988,0.6597387616094773,0.290298596585459,0.957024195975741,0.18792460112445714,0.08919454243020122
38.631,38.25,-0.9,0.6128847182048023,0.6595695820610097,0.2907324208021412,0.9564429446704112,0.18740243158680697,0.08953025655477377
38.692,38.31,-0.83,0.6132451686109894,0.6593941287765963,0.29114859363032297,0.955857445924126,0.1868830866884824,0.08987399036236705
38.754,38.36,-0.87,0.6135911001024122,0.6592126132724061,0.2915472426774915,0.9552680486334354,0.1863668540058485,0.09022502574755362
38.796,38.42,-0.88,0.6139224072960965,0.6590252502315764,0.2919285042672966,0.9546751026277491,0.18585401529225026,0.09058264022503593
38.857,38.47,-0.86,0.6142389912233297,0.6588322574130379,0.29229252342517614,0.9540789584429799,0.18534484635678028,0.09094610754351107
38.919,38.53,-0.88,0.6145407595274188,0.6586338555564692,0.29263945384964934,0.9534799670951304,0.1848396169475304,0.09131469829360485
38.961,38.58,-0.94,0.6148276266503959,0.6584302682835914,0.2929694578690799,0.9528784798533964,0.18433859063928804,0.09168768050954237
39.022,38.64,-0.94,0.6150995140079882,0.6582217219959947,0.2932827063837334,0.9522748480123653,0.18384202472563665,0.09206432026428263
39.084,38.69,-0.92,0.6153563501522201,0.6580084457696834,0.29357937879298324,0.9516694226629672,0.18335017011540541,0.09244388225793183
39.186,38.75,-0.94,0.6155980709210518,0.6577906712465253,0.29385966290755594,0.9510625544619268,0.1828632712333941,0.09282563039935404
39.205,38.8,-0.93,0.6158246195745004,0.6575686325228032,0.2941237548467402,0.9504545933995727,0.1823815659252749,0.09320882838099358
39.246,38.86,-0.86,0.6160359469167255,0.6573425660350765,0.2943718589205177,0.9498458885659609,0.1819052853665565,0.09359274024698234
39.328,38.91,-0.85,0.6162320114036292,0.6571127104435199,0.29460418749660244,0.9492367879153528,0.18143465397549657,0.09397663095462776
39.349,38.97,-0.88,0.6164127792356061,0.6568793065128303,0.2948209608524084,0.9486276380291332,0.18096988932985872,0.09435976692935193
39.411,39.02,-0.85,0.6165782244351643,0.6566425969907134,0.2950224070119831,0.9480187838772737,0.1805112020874428,0.09474141661304168
39.453,39.08,-0.84,0.6167283289092222,0.6564028264838918,0.29520876156797815,0.9474105685784633,0.18005879591035565,0.09512085100558246
39.535,39.13,-0.9,0.6168630824959596,0.6561602413315493,0.2953802674887639,0.9468033331590193,0.1796128673930232,0.09549734419919907
39.575,39.19,-0.89,0.6169824829961517,0.6559150894761224,0.2955371749108437,0.9461974163107201,0.17917360599397208,0.09587017390519177
39.616,39.24,-0.89,0.6170865361889737,0.6556676203313898,0.29567974091678617,0.9455931541477293,0.17874119397142121,0.09623862197273127
39.677,39.3,-0.94,0.6171752558323036,0.6554180846478296,0.2958082292989869,0.944990879962789,0.17831580632272703,0.09660197489951988
39.739,39.35,-0.97,0.6172486636476056,0.65516673437524,0.2959229103096587,0.9443909239828371,0.177897610727719,0.09695952433427613
39.801,39.41,-0.93,0.617306789289524,0.6549138225226059,0.29602406039752754,0.9437936131241854,0.17748676749594613,0.09731056757108845
39.842,39.46,-0.95,0.6173496703003569,0.654659603015182,0.29611196193176487,0.9431992707473615,0.17708342951783632,0.09765440803568957
39.903,39.52,-0.98,0.617377352049606,0.6544043305487491,0.2961869029137114,0.9426082164116851,0.17668774221975053,0.09799035576366015
39.966,39.57,-0.95,0.617389887658816,0.6541482604409815,0.2962491766769467,0.9420207656296367,0.1762998435228973,0.0983177278705327
40.029,39.63,-0.94,0.6173873379119541,0.6538916484798221,0.29629908157625207,0.9414372296210625,0.1759198638060685,0.09863584901377993
40.07,39.68,-0.98,0.6173697711516388,0.6536347507687023,0.29633692066602696,0.9408579150672448,0.17554792587215498,0.09894405184678524
40.132,39.74,-0.94,0.6173372631615954,0.6533778235683823,0.29636300136874166,0.9402831238649022,0.1751841449184014,0.09924167746508314
40.193,39.79,-0.91,0.6172898970357815,0.65312112313517,0.29637763513404924,0.9397131528802506,0.1748286285103671,0.09952807584536173
40.276,39.85,-0.96,0.6172277630346754,0.6528649055552973,0.2963811370892298,0.9391482937033829,0.17448147655956875,0.09980260627788759
40.296,39.9,-0.98,0.6171509584292466,0.6526094265752947,0.29637382568165754,0.9385888324033869,0.17414278130479618,0.10006463779312191
40.358,39.96,-0.96,0.6170595873331429,0.6523549414282921,0.2963560223139774,0.9380350492848142,0.17381262729710856,0.10031354958332508
40.4,40.01,-1.02,0.6169537605236366,0.6521017046562307,0.2963280509726674,0.9374872186462437,0.17349109138852822,0.10054873141992549
40.441,40.07,-1.04,0.6168335952518763,0.6518499699280266,0.2962902378506562,0.9369456085417095,0.17317824272444568,0.10076958406738983
40.502,40.12,-1.0,0.6166992150429966,0.6515999898537203,0.29624291096466415,0.9364104805457016,0.1728741427397334,0.10097551969427264
40.563,40.18,-0.98,0.6165507494866415,0.6513520157946594,0.29618639976794164,0.9358820895223268,0.17257884515854532,0.10116596228204693
40.645,40.23,-1.01,0.6163883340184706,0.6511062976697318,0.2961210347590979,0.935360683399073,0.17229239599776128,0.10134034803226091
40.666,40.29,-0.97,0.6162121096932262,0.6508630837576889,0.2960471470877337,0.9348465029455334,0.17201483357403008,0.10149812577254404
40.728,40.34,-0.94,0.6160222229499603,0.6506226204956078,0.2959650681576279,0.9343397815573992,0.171746188514378,0.10163875736198968
40.769,40.4,-0.97,0.6158188253700543,0.6503851522735826,0.2958751292282758,0.9338407450460207,0.17148648377036996,0.10176171809647594
40.831,40.45,-0.97,0.6156020734287071,0.6501509212257451,0.29577766101561,0.9333496114338681,0.17123573463583763,0.10186649711452628
40.892,40.51,-0.92,0.6153721282406225,0.6499201670177432,0.295672993292751,0.9328665907562752,0.1709939487682168,0.10195259780430507
40.934,40.56,-0.97,0.6151291553006638,0.6496931266307922,0.2955614544916482,0.9323918848698683,0.1707611262135629,0.10201953821228306
41.016,40.62,-1.0,0.6148733242202701,0.6494700341424166,0.2954433713064809,0.931925687268045,0.17053725943533507,0.1020668514540228
41.078,40.67,-0.99,0.6146048084604183,0.6492511205040036,0.2953190682996798,0.9314681829038294,0.17032233334705382,0.10209408612742901
41.099,40.73,-1.01,0.6143237850619077,0.649036613315276,0.29518886751140855,0.931019548020375,0.1701163253489443,0.10210080672869398
41.159,40.78,-1.05,0.6140304343737185,0.6488267365957977,0.2950530880732986,0.9305799499893854,0.16991920536867042,0.1020865940710668
41.243,40.84,-1.03,0.6137249397801688,0.6486217105536459,0.29491204582717595,0.9301495471577558,0.16973093590624955,0.10205104570648599
41.264,40.89,-1.01,0.6134074874275516,0.6484217513514293,0.2947660529494483,0.9297284887028332,0.1695514720832204,0.10199377635002162
41.388,40.95,-1.04,0.6130782659508992,0.6482270708699116,0.2946154175817765,0.9293169144967769,0.16938076169612043,0.10191441830699641
41.409,41.0,-1.04,0.6127374662014907,0.6480378764695556,0.29446044346861316,0.9289149549805922,0.1692187452743226,0.10181262190262325
41.45,41.06,-1.0,0.6123852809757022,0.6478543707503595,0.29430142960215677,0.9285227310484891,0.16906535614228252,0.10168805591399628
41.491,41.11,-0.99,0.6120219047457932,0.6476767513103769,0.2941386698752481,0.9281403539432675,0.16892052048625217,0.10154040800428221
41.554,41.17,-1.01,0.6116475333932173,0.6475052105033081,0.29397245274270667,0.9277679251634375,0.1687841574255251,0.10136938515892555
41.614,41.22,-0.98,0.6112623639450477,0.6473399351955328,0.2938030608915758,0.927405536382763,0.16865617908829497,0.10117471412353694
41.656,41.28,-1.0,0.6108665943141097,0.6471811065229063,0.2936307709207179,0.9270532693828738,0.16853649069223414,0.10095614184287638
41.738,41.33,-1.06,0.6104604230434046,0.6470288996476229,0.2934558530301806,0.9267111959995058,0.16842499062992522,0.10071343590005724
41.758,41.39,-1.06,0.6100440490553937,0.646883483515435,0.29327857072075675,0.9263793780828303,0.16832157055929453,0.10044638495488459
41.819,41.44,-1.07,0.6096176714066679,0.6467450206135585,0.2930991805041871,0.9260578674721814,0.1682261154992006,0.10015479918012839
41.881,41.5,-1.11,0.6091814890484861,0.6466136667296317,0.29291793162450996,0.9257467059853276,0.16813850393031585,0.09983851069450995
41.943,41.55,-1.11,0.6087357005936184,0.6464895707121366,0.2927350657910866,0.9254459254223416,0.16805860790141403,0.09949737399119622
42.004,41.61,-1.06,0.6082805040898889,0.6463728742327092,0.29255081692381585,0.9251555475841129,0.16798629314114835,0.09913126636058857
42.045,41.66,-1.1,0.6078160968007712,0.6462637115507843,0.29236541091101825,0.92487558430554,0.16792141917538317,0.0987400883061505
42.106,41.72,-1.12,0.6073426749933414,0.646162209281032,0.2921790653804216,0.924606037503388,0.16786383945012937,0.0983237639519561
42.168,41.77,-1.08,0.606860433733847,0.6460684861640588,0.29199198948362237,0.9243468992387343,0.16781340146012924,0.0978822414405471
42.208,41.83,-1.08,0.6063695666911054,0.6459826528408548,0.2918043836943295,0.9240981517938529,0.1677699468831388,0.09741549331957061
42.27,41.88,-1.15,0.6058702659479042,0.6459048116314623,0.29161643962063083,0.9238597677633551,0.16773331171995298,0.09692351691555598
42.331,41.94,-1.12,0.6053627218205383,0.645835056318371,0.291428339831452,0.923631710159417,0.16770332644021974,0.09640633469310769
42.393,41.99,-1.12,0.6048471226865706,0.6457734719351838,0.29124025769732786,0.923413932530971,0.16767981613408378,0.09586399459776467
42.474,42.05,-1.19,0.604323654820866,0.645720134561144,0.29105235724556255,0.9232063790968227,0.1676626006696936,0.0952965703808286
42.494,42.1,-1.21,0.6037925022399004,0.6456751111221927,0.2908647930298193,0.9230089848927461,0.1676514948565871,0.0947041619045682
42.536,42.16,-1.17,0.6032538465543218,0.645638459199252,0.29067771001413995,0.9228216759326932,0.16764630861494956,0.09408689542628987
42.599,42.21,-1.21,0.6027078668297412,0.6456102268444459,0.2904912434713893,0.9226443693842263,0.16764684715070657,0.09344492385980109
42.641,42.27,-1.22,0.6021547394557625,0.645590452405904,0.29030551889611983,0.9224769737581786,0.16765291113638037,0.09277842701278102
42.702,42.32,-1.14,0.6015946380232765,0.6455791643617268,0.2901206519318511,0.9223193891123891,0.16766429689760873,0.09208761179852733
42.786,42.38,-1.13,0.6010277332100689,0.6455763811635932,0.28993674831274713,0.9221715072692289,0.1676807966052054,0.09137271242049676
42.845,42.43,-1.17,0.6004541926747815,0.6455821110904196,0.2897539038196484,0.9220332120465157,0.16770219847263707,0.09063399052803862
42.865,42.49,-1.12,0.5998741809592744,0.6455963521124128,0.289572204250384,0.921904379501359,0.1677282869588,0.08987173534170488
42.927,42.54,-1.1,0.5992878593994214,0.6456190917658273,0.2893917254042714,0.9217848781864091,0.16775884297600407,0.08908626374649596
42.969,42.6,-1.27,0.598695386044359,0.6456503070387214,0.28921253308072176,0.9216745694178853,0.1677936441030928,0.08827792035142433
43.032,42.65,-1.27,0.5980969155841696,0.6456899642680215,0.2890346830919013,0.9215733075546407,0.16783246480363886,0.08744707751391442
43.092,42.71,-1.22,0.5974925992859479,0.6457380190482078,0.28885822128942434,0.9214809402874415,0.1678750766491436,0.08659413532787577
43.215,42.76,-1.28,0.5968825849381669,0.6457944161519245,0.28868318360508344,0.9213973089375888,0.16792124854712798,0.08571952157480968
43.236,42.82,-1.3,0.5962670168032296,0.6458590894627926,0.2885095961056179,0.9213222487639824,0.16797074697394032,0.08482369163789424
43.276,42.87,-1.24,0.5956460355780474,0.6459319619206858,0.28833747506150514,0.9212555892777109,0.1680233362120498,0.08390712837937275
43.318,42.93,-1.23,0.5950197783624304,0.6460129454796966,0.2881668270297173,0.9211971545632027,0.1680787785915555,0.0829703419816556
43.377,42.98,-1.24,0.5943883786350164,0.6461019410789889,0.28799764895033964,0.9211467636049178,0.16813683473561844,0.08201386975246877
43.439,43.04,-1.19,0.5937519662364229,0.6461988386266739,0.2878299282568958,0.921104230618512,0.16819726380951208,0.08103827589428311
43.48,43.09,-1.17,0.5931106673592796,0.6463035169967983,0.28766364300019354,0.9210693653853825,0.16825982377299561,0.0800441512381851
43.562,43.15,-1.21,0.5924646045448031,0.6464158440394849,0.28749876198551855,0.92104197358948,0.16832427163572716,0.07903211294233548
43.583,43.2,-1.19,0.5918138966855961,0.646535676604219,0.28733524492305795,0.921021857155251,0.16839036371545388,0.07800280415520684
43.645,43.26,-1.14,0.5911586590343911,0.6466628605762516,0.28717304259150794,0.9210088145855609,0.16845785589873064,0.07695689364388744
43.707,43.31,-1.2,0.5904990032184858,0.6467972309260883,0.2870120970148918,0.9210026412984258,0.16852650390393042,0.07589507538786722
43.75,43.37,-1.22,0.5898350372596328,0.646938611772046,0.2868523416526364,0.9210031299613508,0.16859606354631504,0.07481806813884995
43.812,43.42,-1.18,0.5891668655991411,0.6470868164558846,0.2866937016029267,0.9210100708220773,0.16866629100493943,0.0737266149472051
43.854,43.48,-1.22,0.5884945891279458,0.6472416476315191,0.2865360938192876,0.9210232520345635,0.16873694309116044,0.07262148265568752
43.936,43.53,-1.26,0.5878183052214007,0.6474028973668076,0.28637942734025773,0.9210424599791102,0.16880777751850673,0.07150346136104656
43.957,43.59,-1.2,0.587138107778538,0.6475703472583881,0.286223603531929,0.9210674795756647,0.1688785531736465,0.07037336384412178
44.018,43.64,-1.16,0.5864540872655386,0.6477437685595236,0.28606851634307434,0.9210980945894272,0.16894903038816608,0.06923202496900228
44.08,43.7,-1.2,0.585766330763141,0.6479229223208944,0.28591405257255437,0.9211340879279493,0.16901897121085238,0.06808030105187726
44.142,43.75,-1.17,0.5850749220177236,0.6481075595442874,0.2857600921486548,0.921175241928991,0.1690881396801635,0.06691906920033842
44.203,43.81,-1.19,0.5843799414957985,0.6482974213491288,0.2856065084199495,0.9212213386385256,0.1691563020965792,0.06574922662405643
44.286,43.86,-1.22,0.5836814664416886,0.6484922391518091,0.28545316845722835,0.9212721600784177,0.16922322729453745,0.0645716899179229
44.326,43.92,-1.21,0.5829795709381789,0.6486917348577523,0.2852999333659741,0.9213274885034457,0.1692886869136689,0.06338739431892551
44.346,43.97,-1.18,0.5822743259699557,0.6488956210661928,0.28514665860881055,0.9213871066475074,0.16935245566903198,0.06219729293817314
44.407,44.03,-1.17,0.5815657994896556,0.6491036012876494,0.28499319433728276,0.9214507979589888,0.16941431162003426,0.06100235596959194
44.468,44.08,-1.21,0.5808540564863438,0.6493153701741119,0.28483938573227413,0.9215183468253906,0.1694740364377116,0.059803569876876225
44.509,44.14,-1.18,0.5801391590562509,0.6495306137619431,0.2846850733523253,0.9215895387873821,0.16953141567003277,0.05860193656028348
44.572,44.19,-1.16,0.5794211664756138,0.6497490097274699,0.28453009348910097,0.921664160742475,0.16958623900489933,0.05739847250479744
44.632,44.25,-1.21,0.5787001352754915,0.6499702276551635,0.28437427852927427,0.9217420011384921,0.1696383005305138,0.05619420791107341
44.695,44.3,-1.17,0.577976119318449,0.650193929318256,0.2842174573221212,0.9218228501569773,0.16968739899278168,0.054990185810463256
44.757,44.36,-1.12,0.5772491698770168,0.6504197689716016,0.28405945555215306,0.9219064998866696,0.16973333804941199,0.053787461165306215
44.799,44.41,-1.15,0.5765193357138447,0.6506473936565815,0.2839000961161468,0.9219927444871706,0.16977592652037735,0.05258709995559119
44.86,44.47,-1.15,0.5757866631634878,0.6508764435178304,0.28373919950396653,0.9220813803429614,0.16981497863440184,0.05139017825305875
44.922,44.52,-1.08,0.5750511962157658,0.6511065521315639,0.28357658418256987,0.9221722062079996,0.1698503142711584,0.05019778128377824
44.984,44.58,-1.11,0.5743129766006527,0.6513373468452712,0.28341206698260407,0.9222650233411712,0.16988175919887563,0.0490110024801873
45.045,44.63,-1.15,0.5735720438746539,0.6515684491285079,0.2832454634869957,0.9223596356328657,0.16990914530707274,0.04783094252353287
45.086,44.69,-1.09,0.5728284355086454,0.6517994749345075,0.28307658842094013,0.9224558497229106,0.16993231083415536,0.04665870837761665
45.128,44.74,-1.09,0.5720821869771561,0.6520300350722965,0.28290525604269456,0.9225534751100755,0.16995110058961926,0.045495412314752764
45.19,44.8,-1.15,0.5713333318490931,0.6522597355889811,0.2827312805345716,0.9226523242533804,0.16996536617061483,0.044342170934923125
45.252,44.85,-1.14,0.5705819018799222,0.6524881781618475,0.28255447639352443,0.9227522126655128,0.16997496617262609,0.04320010417923143
45.293,44.91,-1.11,0.5698279271053197,0.6527149604999231,0.2823746588207309,0.9228529589987594,0.16997976639401782,0.042070334338838264
45.416,44.96,-1.13,0.5690714359363112,0.6529396767546473,0.2821916441096164,0.9229543851239346,0.16997964003419794,0.04095398506058807
45.437,45.02,-1.12,0.5683124552558961,0.6531619179393381,0.2820052500317751,0.9230563162028815,0.1699744678851306,0.039852180350517644
45.479,45.07,-1.06,0.5675510105171514,0.6533812723571699,0.28181529622023427,0.9231585807552205,0.1699641385159293,0.038766043576358114
45.521,45.13,-1.08,0.5667871258427986,0.6535973260373881,0.28162160454948654,0.9232610107200766,0.16994854845026047,0.03769669647003224
45.561,45.18,-1.09,0.5660208241262333,0.6538096631794656,0.281423999511715,0.923363441513511,0.16992760233630158,0.03664525813104873
45.623,45.24,-1.06,0.5652521271340207,0.6540178666048564,0.28122230858866926,0.9234657120822739,0.16990121310901915,0.03561284403159968
45.684,45.29,-1.05,0.5644810556098794,0.6542215182159283,0.28101636261872964,0.9235676649543397,0.16986930214455476,0.03460056502406667
45.725,45.35,-1.13,0.5637076293801937,0.6544201994616018,0.28080599615879087,0.9236691462865092,0.1698317994065267,0.03360952635157371
45.787,45.4,-1.09,0.5629318674611095,0.6546134918091572,0.280591047840677,0.923770005909228,0.1697886435840658,0.03264082666222708
45.847,45.46,-1.09,0.5621537881672848,0.6548009772216479,0.28037136072186003,0.9238700973687034,0.16973978222140754,0.031695557027761015
45.91,45.51,-1.15,0.561373409222397,0.6549822386402983,0.2801467826302763,0.9239692779663975,0.16968517183885423,0.03077479996744507
45.952,45.57,-1.16,0.5605907478715172,0.6551568604712317,0.2799171665030434,0.9240674087960097,0.16962477804490708,0.029879628478243072
46.013,45.62,-1.1,0.5598058209954686,0.6553244290758189,0.2796823707188488,0.9241643547781189,0.16955857563934842,0.02901110507226312
46.075,45.68,-1.13,0.5590186452272699,0.6554845332639065,0.2794422594237643,0.9242599846926747,0.16948654870703525,0.028170280822501077
46.157,45.73,-1.13,0.5582292370707301,0.6556367647891725,0.27919670285020226,0.9243541712095137,0.1694086907021462,0.027358194417783845
46.178,45.79,-1.06,0.5574376130212245,0.6557807188458548,0.27894557762870476,0.9244467909170533,0.16932500452261567,0.026575871227687228
46.219,45.84,-1.06,0.5566437896886448,0.6559159945661187,0.2786887670922349,0.9245377243492817,0.1692355025744941,0.025824322378059088
46.279,45.9,-1.1,0.5558477839224993,0.6560421955173328,0.27842616157263705,0.9246268560111285,0.1691402068259891,0.025104543837669892
46.36,45.95,-1.06,0.555049612939131,0.6561589301985241,0.2781576586889298,0.9247140744022877,0.16903914885096502,0.024417515516442806
46.381,46.01,-1.05,0.5542492944510155,0.656265812535285,0.2778831636271079,0.9247992720395828,0.1689323698617007,0.023764200375694974
46.44,46.06,-1.08,0.5534468467981043,0.6563624623724092,0.2776025894111646,0.9248823454779662,0.16881992073072646,0.023145543550876762
46.52,46.12,-1.09,0.5526422890811661,0.6564485059635597,0.277315857165086,0.9249631953302476,0.16870186200157083,0.0225624714874063
46.582,46.17,-1.07,0.5518356412970584,0.6565235764573012,0.2770228963656248,0.9250417262856099,0.16857826388825922,0.02201589109027372
46.603,46.23,-1.12,0.5510269244758519,0.6565873143788475,0.27672364508570324,0.9251178471269003,0.16844920626341148,0.021506688888088578
46.683,46.28,-1.14,0.5502161608197158,0.6566393681068454,0.27641805022831323,0.9251914707465902,0.16831477863478453,0.021035730212184408
46.724,46.34,-1.08,0.5494033738434683,0.6566793943444681,0.2761060677507542,0.9252625141612048,0.16817508011009602,0.020603858391295523
46.785,46.39,-1.06,0.5485885885166725,0.6567070585840419,0.27578766287898915,0.925330898523954,0.16803021934994938,0.020211893962221734
46.928,46.45,-1.09,0.5477718314071361,0.6567220355643839,0.27546281031183134,0.9253965491352438,0.16788031450866855,0.019860633896832982
46.948,46.5,-1.03,0.5469531308256382,0.6567240097200294,0.27513149441461254,0.9254593954507295,0.16772549316285404,0.019550850845742606
46.969,46.56,-0.99,0.546132516971684,0.656712675621552,0.27479370940194975,0.9255193710866134,0.1675658922274917,0.01928329239899114
47.01,46.61,-1.01,0.5453100220800694,0.6566877384062338,0.2744494595092241,0.9255764138219609,0.16740165785947786,0.019058680364143064
47.071,46.67,-1.0,0.5444856805680345,0.6566489141984104,0.27409875915239756,0.9256304655979373,0.16723294534846175,0.018877710062279073
47.111,46.72,-0.95,0.5436595291827853,0.656595930518877,0.27374163307582305,0.9256814725140008,0.16705991899494665,0.018741049642406114
47.172,46.78,-0.99,0.5428316071491794,0.6565285266827996,0.27337811648775023,0.9257293848211715,0.16688275197563496,0.01864933941480178
47.255,46.83,-1.02,0.542001956317375,0.6564464541856148,0.2730082551832672,0.9257741569125417,0.16670162619603707,0.018603191203776768
47.275,46.89,-0.99,0.5411706213102175,0.656349477076444,0.27263210565443735,0.9258157473111999,0.1665167321303932,0.018603187720279107
47.316,46.94,-0.99,0.5403376496701114,0.6562373723185826,0.27224973518739576,0.9258541186557377,0.16632826864897615,0.01864988195468459
47.377,47.0,-1.03,0.5395030920050642,0.6561099301366614,0.27186122194615864,0.925889237683478,0.16613644283284995,0.018743796590051987
47.438,47.05,-0.97,0.538667002133537,0.6559669543501108,0.2714666550428871,0.9259210752115452,0.1659414697761628,0.018885423436074356
47.479,47.11,-0.94,0.5378294372277044,0.655808262692582,0.27106613459433604,0.9259496061158785,0.16574357237605714,0.019075222883936465
47.541,47.16,-0.99,0.5369904579547026,0.6556336871170027,0.2706597717642501,0.925974809308248,0.1655429811102951,0.019313623382336116
47.644,47.22,-0.96,0.536150128615456,0.6554430740859559,0.2702476887915119,0.9259966677113063,0.1653399338027212,0.01960102093505525
47.665,47.27,-0.9,0.5353085172806822,0.6552362848471063,0.2698300190039182,0.9260151682316861,0.16513467537671733,0.019937778620635886
47.707,47.33,-0.93,0.5344656959237135,0.6550131956934134,0.26940690681753754,0.9260303017311321,0.16492745759684102,0.020324226134888632
47.769,47.38,-0.94,0.5336217405497955,0.6547736982078878,0.2689785077216646,0.926042062995628,0.16471853879886972,0.020760659357098112
47.831,47.44,-0.89,0.5327767313215458,0.6545176994926585,0.26854498824943435,0.9260504507024391,0.1645081836085133,0.021247339940835695
47.892,47.49,-0.91,0.5319307526802595,0.6542451223821413,0.2681065259341888,0.9260554673849363,0.1642966626490949,0.021784494930247946
47.996,47.55,-0.97,0.531083893462741,0.6539559056401141,0.2676633092517058,0.9260571193950266,0.16408425223853965,0.02237231640261773
48.017,47.6,-0.97,0.5302362470133242,0.6536500041405485,0.26721553754838534,0.9260554168630271,0.1638712340760377,0.023010961137916296
48.057,47.66,-0.96,0.529387911290731,0.6533273890320853,0.26676342095546746,0.9260503736548996,0.16365789491876992,0.023700550315991564
48.119,47.71,-0.99,0.5285389889694122,0.6529880478860688,0.26630718028932865,0.9260420073268643,0.16344452624908626,0.024441169242009335
48.16,47.77,-0.97,0.5276895875350296,0.6526319848280693,0.26584704693789396,0.9260303390775425,0.1632314239325216,0.025232867100787024
48.223,47.82,-0.92,0.5268398193737581,0.6522592206528105,0.2653832627332035,0.9260153936978966,0.16301888786702948,0.026075656740682705
48.284,47.88,-0.94,0.5259898018551242,0.6518697929223758,0.26491607981019977,0.9259971995192942,0.16280722162382216,0.02696951448769329
48.346,47.93,-0.95,0.5251396574081421,0.6514637560475393,0.2644457604518302,0.9259757883600446,0.16259673208022965,0.027914379990365425
48.367,47.99,-0.89,0.5242895135905532,0.6510411813520215,0.2639725769205763,0.9259511954707487,0.16238772904502344,0.028910156096021676
48.427,48.04,-0.9,0.5234395031510265,0.6506021571194289,0.26349681127653357,0.9259234594787611,0.1621805248766907,0.02995670875867286
48.489,48.1,-0.95,0.5225897640842067,0.650146788622602,0.2630187551821882,0.9258926223320059,0.16197543409518247,0.031053866978863212
48.53,48.15,-0.92,0.5217404396785246,0.6496751981350816,0.2625387096940644,0.9258587292423143,0.16177277298769585,0.03220142277559105
48.592,48.21,-0.92,0.5208916785567029,0.6491875249243999,0.2620569850414735,0.9258218286283891,0.16157285920908762,0.03339913119038903
48.654,48.26,-0.98,0.520043634708913,0.6486839252269156,0.2615739003926572,0.925781972058464,0.1613760113775428,0.034646710323677124
48.716,48.32,-0.98,0.5191964675185672,0.6481645722039245,0.2610897836086699,0.9257392141927504,0.16118254866613854,0.03594384140360521
48.757,48.37,-0.98,0.5183503417807439,0.6476296558788256,0.2606049709853891,0.9256936127258371,0.16099279039095302,0.03729016888770453
48.819,48.43,-1.04,0.517505427713262,0.647079383055161,0.26011980698409554,0.9256452283292552,0.160807055596369,0.03868530059772394
48.88,48.48,-1.04,0.5166619009604284,0.6465139772153862,0.2596346439511199,0.9255941245944034,0.16062566263821418,0.040128807888030055
48.921,48.54,-0.98,0.5158199425894842,0.6459336784002623,0.25914984182708656,0.9255403679759617,0.16044892876536626,0.04162022584789775
48.984,48.59,-1.0,0.5149797390797707,0.6453387430687684,0.25866576784630013,0.9254840277358201,0.16027716970043912,0.043159053537931376
49.025,48.65,-1.05,0.514141482304629,0.6447294439384504,0.2581827962268198,0.9254251758874371,0.1601106992201629,0.04474475426077734
49.107,48.7,-1.0,0.5133053695060352,0.6441060698061365,0.25770130785175566,0.9253638871404789,0.1599498287360837,0.046376755866210845
49.148,48.76,-1.0,0.5124716032619708,0.64346892534897,0.2572216899423219,0.9253002388455436,0.15979486687622818,0.04805445109060579
49.209,48.81,-1.05,0.5116403914465247,0.6428183309057389,0.25674433572319194,0.925234310938779,0.1596461190683989,0.04977719793075658
49.272,48.87,-1.03,0.5108119471827296,0.6421546222384955,0.25626964408070674,0.925166185886231,0.15950388712577956,0.05154432005201951
49.312,48.92,-1.03,0.5099864887881563,0.6414781502744864,0.25579801921448836,0.9250959486278428,0.1593684688355417,0.053355107230751
49.354,48.98,-1.09,0.5091642397133089,0.640789280828428,0.25532987028301707,0.9250236865210947,0.15924015755115556,0.05520881583103107
49.456,49.03,-1.13,0.5083454284728922,0.6400883943051984,0.2548656110437367,0.924949489284337,0.15911924178910994,0.05710466931565855
49.476,49.09,-1.11,0.5075302885700618,0.6393758853830203,0.25440565948825433,0.9248734489398951,0.15900600483074312,0.05904185879135636
49.517,49.14,-1.17,0.5067190584137924,0.6386521626772109,0.2539504374731804,0.9247956597570087,0.15890072432987096,0.06101954358802261
49.579,49.2,-1.19,0.5059119812295314,0.637917648384554,0.25350037034711764,0.924716218194627,0.15880367192687392,0.06303685187172663
49.641,49.25,-1.15,0.5051093049632974,0.6371727779083309,0.25305588657424766,0.9246352228440249,0.1587151128698714,0.06509288129100112
49.683,49.31,-1.15,0.5043112821793874,0.6364179994640456,0.25261741735489734,0.9245527743711633,0.1586353056435824,0.06718669965586782
49.745,49.36,-1.2,0.5035181699518343,0.6356537736658855,0.25218539624338515,0.9244689754587089,0.158564501606447,0.0693173456490074
49.829,49.42,-1.18,0.5027302297497579,0.6348805730939916,0.251760258763358,0.9243839307476666,0.15850294463656955,0.07148382956853555
49.85,49.47,-1.19,0.5019477273167346,0.634098881842668,0.2513424420207705,0.9242977467786482,0.15845087078704226,0.07368513410191863
