Time_Host,Time_Arduino,easingdata,CH1_Oxy,CH1_Deoxy,CH2_Oxy,CH2_Deoxy,CH3_Oxy,CH3_Deoxy
1.281,0.04,0.0,0.7827890130493664,0.3269061976337208,0.21013625872506392,0.021601769181094747,0.0,0.0
1.302,0.1,0.0,0.7742675525121626,0.3447331285149667,0.20692726542993453,0.02515828384299416,0.0037435888728926045,0.004754067205871966
1.322,0.15,0.0,0.7658348110175102,0.36246381438463293,0.2037477335604757,0.02867083489214172,0.007516545041450604,0.009471101099754945
1.343,0.21,0.0,0.7574934530476385,0.38008979266623627,0.2005986183242133,0.032138040951232294,0.011317370818180829,0.014149062086400812
1.364,0.26,0.0,0.7492460393735245,0.39760265057678223,0.19748084008063316,0.03555855822377913,0.015144538526774049,0.018785941622923855
1.384,0.32,0.0,0.7410950246957125,0.4149940324789421,0.1943952835900499,0.038931081449350445,0.018996491653873546,0.023379764055664397
1.404,1.06,0.0,0.7330427554550929,0.4322556471704885,0.1913427973184548,0.04225434479936542,0.022871646036180172,0.027928588412918152
1.425,1.12,0.0,0.7250914678154601,0.44937927510245923,0.1883241927982952,0.04552712271355097,0.026768391081047355,0.03243051015161576
1.507,1.17,0.0,0.7172432858192108,0.466356775517608,0.18534024404497965,0.04874823067732869,0.030685091018627174,0.0368836628561358
1.527,1.23,0.0,0.7095002197171053,0.48318009350076513,0.18239168702874467,0.05191652594056485,0.03462008618353228,0.041286219887528765
1.63,1.28,0.05,0.7018641644725799,0.4998412669327936,0.17947921920137014,0.05503090817827723,0.038571694323880495,0.04563639598151858
1.65,1.34,0.06,0.6943368984406524,0.5163324333398824,0.1766034990770892,0.05809032009404282,0.04253821193549833,0.0499324487937291
1.692,1.39,0.08,0.6869200822210108,0.532645836630032,0.1737651458669437,0.061093747966968426,0.04651791561900144,0.0541726803906529
1.753,1.45,0.14,0.679615257684417,0.5487738337087734,0.17096473916581137,0.06404022214313576,0.05050906345746791,0.05835543868495106
1.815,1.5,0.14,0.6724238471711395,0.5647089009664067,0.16820281869136594,0.06692881747240337,0.05450989641248584,0.06247911881376174
1.858,1.56,0.14,0.6653471528598098,0.5804436406292982,0.16547988407428166,0.06975865369137653,0.058518639736470444,0.06654216445878916
1.918,1.61,0.17,0.658386356304823,0.5959707869680341,0.16279639469901663,0.07252889575327197,0.06253350439928554,0.07054306910700756
2.0,1.67,0.17,0.6515425181401724,0.6112832123554717,0.16015276959450608,0.07523875410530795,0.06655268852733028,0.07448037725085184
2.023,1.72,0.13,0.6448165779473635,0.6263739331679765,0.15754938737406116,0.07788748491418353,0.07057437885333499,0.07835268552681389
2.084,1.78,0.13,0.638209354284764,0.6412361155234048,0.1549865862237001,0.08047439024021963,0.07459675217514009,0.08215864379141952
2.147,1.83,0.14,0.6317215448754535,0.6558630808496614,0.1524646639380738,0.08299881816077222,0.07861797682171061,0.08589695613361914
2.191,1.89,0.15,0.6253537269503581,0.6702483112779223,0.14998387800310445,0.08546016284354976,0.08263621412455359,0.0895663818226982
2.252,1.94,0.19,0.6191063577432013,0.6843854548548312,0.1475444457244063,0.08785786457050605,0.08664961989257806,0.09316573619091766
2.315,2.0,0.26,0.612979775133588,0.6982683305681876,0.14514654440050417,0.09019140971305321,0.0906563458883281,0.09669389145021406
2.357,2.05,0.27,0.6069741984343536,0.7118909331808316,0.14279031153983904,0.09246033065939598,0.09465454130348604,0.10014977744242574
2.42,2.11,0.28,0.6010897293191488,0.725247437867677,0.14047584512056124,0.09466420569481108,0.09864235423162189,0.10353238232266834
2.483,2.16,0.35,0.5953263528860747,0.7383322046511566,0.13820320389215343,0.09680265883570574,0.10261793313634077,0.10684075317563375
2.525,2.22,0.37,0.5896839388530636,0.7511397826306595,0.1359724077179942,0.09887535961826932,0.10657942831320533,0.11007399656470823
2.591,2.27,0.36,0.5841622428806204,0.7636649140018433,0.1337834379580566,0.10088202284250636,0.11052499334403976,0.11323127901391161
2.651,2.33,0.37,0.5787609080174769,0.7759025378620062,0.13163623789101203,0.10282240827246356,0.11445278654243925,0.11631182742275853
2.735,2.38,0.38,0.5734794662647263,0.7878477937980156,0.1295307131750931,0.10469632029352424,0.11836097238950646,0.11931492941424413
2.757,2.44,0.34,0.5683173402540969,0.7994960252536247,0.12746673234715342,0.10650360752771969,0.12224772295898097,0.12223993361629222
2.798,2.49,0.33,0.5632738450361537,0.8108427826734218,0.12544412735940702,0.10824416240814497,0.1261112193309977,0.12508624987717784
2.84,2.55,0.32,0.5583481899743656,0.8218838264211507,0.12346269415332205,0.10991792071376402,0.12994965299370795,0.1278533494156053
2.903,2.6,0.31,0.5535394807410694,0.8326151294706917,0.12152219327009049,0.11152486106607476,0.13376122723191466,0.1305407649062626
2.966,2.66,0.34,0.5488467214114146,0.8430328798685589,0.1196223504969908,0.11306500438924706,0.1375441585017368,0.13314809050177298
3.028,2.71,0.41,0.5442688166513385,0.853133482967318,0.11776285754880995,0.11453841333544747,0.14129667779016108,0.13567498179202017
3.091,2.77,0.43,0.5398045739955699,0.8629135634298336,0.11594337278333688,0.11594519167709426,0.14501703195823606,0.13812115570185382
3.112,2.82,0.43,0.5354527062116027,0.8723699670046916,0.11416352194981147,0.11728548366775894,0.14870348506666872,0.14048639032820254
3.196,2.88,0.48,0.5312118337455634,0.8814997620735602,0.1124228989691337,0.118559473373372,0.15235431968271104,0.14277052471763402
3.239,2.93,0.5,0.5270804872459319,0.8903002409716158,0.11072106674463345,0.11976738397529495,0.1559678381674306,0.14497345858540622
3.3,2.99,0.49,0.5230571101611752,0.8987689210824409,0.10905755800225486,0.12090947704671529,0.15954236394266433,0.14709515197709233
3.382,3.04,0.51,0.51914006140748,0.9069035457090882,0.10743187615907562,0.12198605180380688,0.16307624273713747,0.14913562487395243
3.464,3.1,0.53,0.5153276181028973,0.914702084723269,0.10584349621914814,0.12299744433319296,0.16656784381139075,0.1510949567433374
3.484,3.15,0.51,0.5116179783643313,0.922162734994938,0.10429186569572892,0.12394402679738234,0.17001556116128913,0.1529732860355359
3.546,3.21,0.48,0.5080092641638977,0.9292839206048369,0.1027764055590339,0.12482620661999176,0.17341781469997702,0.1547708096285871
3.567,3.26,0.48,0.5044995242412352,0.9360642928428429,0.10129651120869632,0.12564442565270775,0.17677305141819105,0.15648778222264548
3.609,3.32,0.46,0.5010867370683945,0.9425027299951323,0.09985155347010476,0.1263991593260469,0.18007974652283548,0.1581245156854769
3.67,3.37,0.46,0.4977688138639126,0.9485983369232829,0.09844087961373292,0.12709091578604975,0.18333640455365055,0.15968137835061247
3.734,3.43,0.51,0.4945436016526076,0.9543504444385076,0.09706381439644465,0.12772023501911273,0.18654156047768572,0.16115879426960797
3.776,3.48,0.54,0.49140888636754554,0.9597586084742641,0.0957196611236193,0.12828768796718132,0.18969378076116789,0.16255724241978603
3.839,3.54,0.53,0.4883623959905995,0.9648226090605697,0.09440770273083615,0.12879387563549258,0.19279166441828496,0.16387725586883026
3.9,3.59,0.57,0.48540180372802294,0.9695424491034786,0.0931272028837968,0.12923942819503406,0.19583384403643309,0.16511942089765402
3.941,3.65,0.59,0.48252473121751854,0.9739183529734119,0.09187740709515547,0.12962500408190566,0.19881898677759052,0.16628437608304952
4.002,3.7,0.58,0.47972875176335755,0.9779507649063092,0.09065754385697007,0.12995128909579878,0.20174579535562837,0.1673728113417074
4.064,3.76,0.57,0.4770113935961719,0.981640347221891,0.08946682578754066,0.13021899549984015,0.2046130089895033,0.1683854669372643
4.126,3.81,0.58,0.4743701431541154,0.9849879783636035,0.08830445079144976,0.13042886112407476,0.20741940433238396,0.16932313245206415
4.21,3.87,0.54,0.47180244838218366,0.9879947507650048,0.08716960323166048,0.13058164847481066,0.21016379637682817,0.17018664572531264
4.23,3.92,0.49,0.4693057220465643,0.9906619685474519,0.08606145511254673,0.13067814385191012,0.2128450393361316,0.17097689175928385
4.271,3.98,0.48,0.4668773450609403,0.9929911450540084,0.08497916727271089,0.13071915647592455,0.21546202750190196,0.1716948015952108
4.332,4.03,0.47,0.4645146698216868,0.9949840002244944,0.08392189058639661,0.13070551762674845,0.21801369607777152,0.17234135116046512
4.393,4.09,0.46,0.4622150235488802,0.9966424578165815,0.08288876717222801,0.130638079795244,0.2204990219889355,0.17291756008862474
4.456,4.14,0.5,0.45997571162997325,0.9979686424777917,0.08187893160789549,0.1305177158491185,0.2229170246669455,0.1734244905140441
4.499,4.2,0.55,0.4577940209628974,0.9989648766732537,0.08089151214929115,0.13034531821422346,0.225266766808949,0.17386324584256244
4.561,4.25,0.54,0.45566722329530385,0.999633677474083,0.07992563195251731,0.13012179807237254,0.22754735511041965,0.17423496950002973
4.622,4.31,0.55,0.45359257855664353,0.9999777532112711,0.07898041029715405,0.12984808457676217,0.22975794097038862,0.17454084366038847
4.725,4.36,0.59,0.4515673381798424,1.0,0.07805496380918464,0.12952512408606087,0.23189772116825724,0.17478208795508315
4.745,4.42,0.58,0.44958874840940305,0.9997034981392839,0.07714840768205594,0.1291538794180248,0.2339659385113769,0.17495995816556906
4.786,4.47,0.58,0.4476540535928289,0.9990915083918251,0.07625985689447473,0.12873532912302124,0.23596188245267719,0.17507574490066882
4.848,4.53,0.6,0.4457604994522994,0.9981674681489259,0.07538842742367204,0.12827046677721649,0.23788488967770072,0.17513077226047552
4.93,4.58,0.58,0.4439053363335487,0.996934987485219,0.07453323745297191,0.127760300294614,0.23973434466045748,0.17512639648842043
4.95,4.64,0.55,0.44208582242891614,0.9953978451078266,0.07369340857255217,0.12720585125675082,0.241509680187536,0.17506400461303817
4.992,4.69,0.53,0.44029922697153095,0.9935599842043872,0.07286806697227505,0.12660815425868513,0.24321037784988614,0.1749450130808703
5.053,4.75,0.54,0.43854283339756966,0.9914255081942255,0.07205634462542847,0.12596825626984412,0.24483596850161027,0.17477086638185535
5.113,4.8,0.55,0.43681394247349836,0.9889986763867907,0.0712573804621702,0.1252872160082744,0.24638603268496148,0.17454303566848092
5.175,4.86,0.57,0.4351098753851485,0.9862838995514338,0.0704703215313958,0.12456610332686846,0.24786020102057443,0.17426301736992936
5.215,4.91,0.63,0.4334279767854154,0.9832857354025804,0.06969432414967325,0.12380599861024172,0.24925815456180778,0.17393233180243228
5.298,4.97,0.63,0.43176561779732064,0.9800088840043983,0.06892855503583416,0.12300799218104674,0.25057962511201126,0.17355252177707242
5.339,5.02,0.64,0.43012019896916026,0.9764581830991287,0.06817219242978323,0.12217318371463921,0.25182439550356334,0.1731251512063365
5.402,5.08,0.69,0.4284891531784644,0.9726386033634223,0.06742442719406708,0.12130268166112866,0.25299229983764043,0.17265180371078856
5.422,5.13,0.69,0.4268699484815343,0.9685552435972711,0.06668446389673797,0.12039760267391975,0.254083223683823,0.17213408122726442
5.485,5.19,0.68,0.4252600909053813,0.964213325850369,0.0659515218740469,0.1194590710438672,0.25509710423879256,0.17157360261998766
5.545,5.24,0.69,0.4236571271789653,0.9596181904909137,0.06522483627150041,0.11848821813819199,0.2560339304435058,0.17097200229598133
5.588,5.3,0.68,0.4220586474007036,0.9547752912218996,0.06450365906184566,0.11748618184330831,0.2568937430583528,0.17033092882609333
5.671,5.35,0.64,0.4204622876393231,0.9496901900498819,0.0637872600386201,0.11645410601065448,0.25767663469586827,0.16965204357290328
5.753,5.41,0.61,0.4188657324652084,0.9443685522111034,0.06307492778398124,0.1153931399045542,0.258382749810568,0.16893701932675478
5.773,5.46,0.62,0.41726671740945165,0.938816141059791,0.06236597060958465,0.11430443765109702,0.25901228464539405,0.16818753895114016
5.814,5.52,0.63,0.415663031347812,0.9330388129233604,0.06165971746928887,0.11318915768701783,0.25956548713410676,0.16740529403865365
5.876,5.57,0.65,0.4140525188067304,0.9270425119292254,0.06095551884241242,0.11204846220759988,0.2600426567587604,0.16659198357870084
5.937,5.63,0.72,0.41243308218847624,0.920833264807852,0.06025274758616568,0.11088351661272632,0.26044414436123403,0.1657493126380973
6.04,5.68,0.74,0.4108026839124869,0.9144171756766246,0.05955079975578979,0.10969548895029935,0.2607703519077228,0.1648789910556043
6.061,5.74,0.75,0.4091593484700062,0.9078004208090715,0.05884909539088223,0.10848554935631395,0.26102173220516117,0.1639827321513721
6.123,5.79,0.8,0.40750116438921513,0.900989243394012,0.058147079266377515,0.10725486949095277,0.26119878856873324,0.16306225145218986
6.146,5.85,0.83,0.40582628610815846,0.8939899482892275,0.05744422160669256,0.1060046219701611,0.26130207443987236,0.16211926543337646
6.205,5.9,0.82,0.4041329357528924,0.8868088967742859,0.0567400187616396,0.1047359797922679,0.2613321929544089,0.16115549027810622
6.267,5.96,0.84,0.40241940481839966,0.8794525013071797,0.05603399384283249,0.1034501157593845,0.2612897964607631,0.16017264065493428
6.309,6.01,0.84,0.4006840557499613,0.8719272202894793,0.055325697319464844,0.10214820189351591,0.26117558598831037,0.15917242851425462
6.411,6.07,0.8,0.3989253234228606,0.8642395528447093,0.054614707572514146,0.10083140884748445,0.26099031066623213,0.15815656190439584
6.431,6.12,0.76,0.3971417165185093,0.8563960336146237,0.05390063140658495,0.09950090531088282,0.2607347670932945,0.15712674380805086
6.473,6.18,0.75,0.39533181879531026,0.8484032275779965,0.05318310451871848,0.09815785741136467,0.2604097986590435,0.15608467099972284
6.535,6.23,0.71,0.39349429025278676,0.8402677248963877,0.05246179192355991,0.09680342811162544,0.26001629481685834,0.15503203292483866
6.576,6.29,0.72,0.3916278681876743,0.8319961357911819,0.051736388334273124,0.09543877660242679,0.25955519030916474,0.1539705106011396
6.638,6.34,0.79,0.38973136814074943,0.8235950854560266,0.05100661849852684,0.09406505769199067,0.259027464344917,0.15290177554289466
6.699,6.4,0.82,0.3878036847332234,0.8150712090086425,0.05027223748879789,0.09268342119200594,0.25843413972929086,0.151827488708407
6.78,6.45,0.83,0.38584379239158956,0.8064311464858268,0.049533030946195857,0.09129501130038481,0.2577762819454637,0.15074929947122487
6.8,6.51,0.87,0.3838507459599154,0.7976815378853743,0.048788815277027275,0.0899009659808784,0.25705499818844807,0.1496688446154394
6.862,6.56,0.9,0.38182368119871696,0.788829018258634,0.04803943780140239,0.08850241633973717,0.2562714363511561,0.14858774735544406
6.923,6.62,0.9,0.3797618151697442,0.7798802128574764,0.04728477685333136,0.08710048599972194,0.25542678396314294,0.1475076163805472
6.965,6.67,0.91,0.37766444650623127,0.7708417323395225,0.04652474183191188,0.08569629047193258,0.2545222670827486,0.14643004492486872
7.046,6.73,0.94,0.37553095556844057,0.7617201680354784,0.04575927320335243,0.08429093652610159,0.2535591491436141,0.14535660986297902
7.087,6.78,0.91,0.3733608044846512,0.7525220872823408,0.04498834245371709,0.08288552156011295,0.25253872975678276,0.14428887083175213
7.148,6.84,0.88,0.37115353707805304,0.7432540288260917,0.044211951992413234,0.08148113296951716,0.2514623434698053,0.14322836937888736
7.189,6.89,0.87,0.3689087786802902,0.7339224982973407,0.04343013500655781,0.08007884751774254,0.2503313584844245,0.14217662813848897
7.251,6.95,0.84,0.36662623583263787,0.7245339637631778,0.04264295526645035,0.07867973070757588,0.24914717533451117,0.14113515003397573
7.314,7.0,0.77,0.3643056958759947,0.7150948513582486,0.04185050688243224,0.07728483615435801,0.24791122552592057,0.14010541750846697
7.354,7.06,0.78,0.36194702643100357,0.7056115409978424,0.041052914013412156,0.07589520496129,0.24662497013985396,0.13908889178266481
7.436,7.11,0.81,0.3595501747696871,0.6960903621756089,0.040250330527316865,0.07451186509726551,0.24528989840116044,0.13808701214011876
7.498,7.17,0.82,0.35711516708003405,0.6865375898483796,0.039442939613715755,0.07313583077768458,0.2439075262128344,0.1371011952396363
7.518,7.22,0.84,0.3546421076250227,0.676959440410495,0.03863095334886697,0.0717681018487715,0.2424793946578096,0.13613283445452565
7.579,7.28,0.88,0.35213117779766034,0.6673620677599584,0.03781461221346177,0.07040966317600623,0.2410070684691119,0.1351832992383275
7.64,7.33,0.87,0.3495826350737501,0.6577515594586817,0.036994184563424966,0.06906148403733116,0.23949213446951964,0.13425393451671147
7.682,7.39,0.88,0.3469968118642427,0.6481339329890529,0.03616996605424705,0.06772451752181272,0.2379361999820612,0.13334606010527425
7.743,7.44,0.92,0.34437411426919495,0.6385151321090284,0.035342279019453623,0.06639969993443211,0.23634089121289834,0.13246097015303113
7.805,7.5,0.91,0.3417150207355624,0.6289010233078547,0.034511471803958735,0.0650879502076197,0.2347078516083606,0.1315999326114153
7.907,7.55,0.89,0.33902008062130673,0.6192973923643513,0.033677918053192105,0.06379016932003785,0.233038740188096,0.13076418872859835
7.927,7.61,0.9,0.3362899126685628,0.609709941009471,0.032842015959033966,0.06250723972300977,0.2313352298564919,0.12995495256891892
7.969,7.66,0.88,0.3335252033888964,0.6001442836946383,0.032004187463754837,0.06124002477489863,0.22959900569468503,0.1291734105571569
8.01,7.72,0.83,0.3307267053639647,0.5906059444671619,0.031164877423333955,0.059989368183677706,0.22783176323559245,0.12842072104735464
8.073,7.77,0.79,0.32789523546513805,0.581100353953858,0.030324552731674826,0.058756093457954496,0.226035206724439,0.12769801391587543
8.135,7.83,0.76,0.32503167299582253,0.5716328464539021,0.029483701407331663,0.05754100336681458,0.22421104736722192,0.1270063901783918
8.197,7.88,0.73,0.32213695776031165,0.5622086571418367,0.028642831644408624,0.05634487940896712,0.22236100156943694,0.1263469216304961
8.239,7.94,0.74,0.31921208806298423,0.5528329193816132,0.027802470829279634,0.055168481291791034,0.220486789167199,0.12572065051162248
8.301,7.99,0.8,0.3162581186415738,0.5435106621525087,0.02696316452471141,0.05401254642099227,0.2185901316526716,0.12512858919193667
8.362,8.05,0.82,0.3132761585381333,0.5342468075876754,0.026125475422913453,0.05287778940161555,0.21667275039554548,0.12457171988179908
8.423,8.1,0.82,0.3102673689112417,0.5250461686259694,0.025289982269027282,0.05176490155108836,0.21473636486224848,0.12405099436335355
8.464,8.16,0.85,0.3072329607929622,0.5159134467776021,0.024457278756611668,0.050674550424878465,0.21278269083466217,0.12356733374374489
8.546,8.21,0.88,0.3041741927940719,0.5068532300040706,0.02362797239678017,0.049607379355270695,0.21081343863033383,0.12312162822941522
8.629,8.27,0.86,0.3010923687611443,0.4978699907127262,0.022802683362778305,0.04856400700375238,0.20883031132642685,0.12271473692089845
8.65,8.32,0.88,0.297988835389161,0.4889680838662254,0.021982043311917367,0.0475450269275814,0.20683500298990387,0.12234748762752472
8.67,8.38,0.84,0.2948649797934208,0.48015174520702036,0.02116669418691292,0.046551007161281036,0.20482919691666449,0.12202067670145288
8.731,8.43,0.8,0.2917222270446027,0.47142508959698,0.02035728699881446,0.04558248981401067,0.20281456388255067,0.1217350688904938
8.794,8.49,0.77,0.2885620376709049,0.46279210947218696,0.01955448059383355,0.04463999068399102,0.2007927604092512,0.12149139720932928
8.855,8.54,0.77,0.2853859051312628,0.45425667341287607,0.018758940406470567,0.0437239988913777,0.19876542704816053,0.12129036282898453
8.897,8.6,0.71,0.28219535326372125,0.44582252482835555,0.017971337201414247,0.042834976531080114,0.1967341866851766,0.12113263498469946
8.978,8.65,0.64,0.27899193371306696,0.4374932807565992,0.017192345806731762,0.04197335834698521,0.1947006428692879,0.12101885090253418
9.0,8.71,0.63,0.2757772233417681,0.42927243077807054,0.016422643840864042,0.041139551428919355,0.19266637816763155,0.12094961574507594
9.06,8.76,0.63,0.27255282162816225,0.42116333604320566,0.015662910435898843,0.04033393493351009,0.19063295254948678,0.1209255025765401
9.122,8.82,0.63,0.2693203480556911,0.4131692284128488,0.014913824959504985,0.039556859829962224,0.18860190180140748,0.12094705234747737
9.183,8.87,0.66,0.266081439496828,0.40529320971082994,0.014176065737770088,0.038808648671734766,0.1865747359754382,0.12101477389924745
9.244,8.93,0.69,0.2628377475952148,0.39753825108782687,0.013450308781045047,0.038089595395183404,0.18455293787218952,0.1211291439883961
9.286,8.98,0.67,0.2595909361494475,0.3899071924956576,0.012737226514829158,0.03739996514632854,0.18253796156050228,0.12129060733109037
9.346,9.04,0.67,0.25634267850194487,0.3824027422711789,0.01203748651773706,0.03673999413699366,0.18053123093549425,0.12149957666781912
9.407,9.09,0.7,0.2530946549363903,0.37502747682898985,0.011351750268650007,0.03610988953160815,0.1785341383169018,0.12175643284861463
9.468,9.15,0.67,0.24984855008733695,0.367783840462132,0.01068067190524659,0.03550982936590781,0.1765480430897457,0.12206152493907425
9.51,9.2,0.64,0.24660605036562683,0.36067414524998287,0.010024896996199044,0.03493996249855851,0.17457427038943638,0.12241517034745926
9.572,9.26,0.65,0.2433688414032848,0.3537005710725694,0.009385061329387821,0.034400408596408374,0.17261410983348952,0.1228176549731129
9.654,9.31,0.61,0.2401386055215336,0.3468651657305434,0.008761789718530841,0.0338912581536824,0.1706688143020523,0.12326923337636946
9.716,9.37,0.56,0.23691701922554995,0.340169845170046,0.008155694830631837,0.03341257254507157,0.1687395987694185,0.12377012897005385
9.737,9.42,0.54,0.23370575072953925,0.33361639381165725,0.007567376036611349,0.03296438411242649,0.16682763918863078,0.12432053423260153
9.779,9.48,0.49,0.23050645751565133,0.327206464982596,0.006997418287414638,0.03254669628462413,0.16493407143113054,0.12492061094275854
9.839,9.53,0.44,0.22732078393020824,0.32094158145128004,0.006446391017803036,0.032159483730100864,0.16305999028320192,0.12557049043576754
9.9,9.59,0.45,0.22415035882066023,0.31482313606328055,0.005914847079907262,0.031802692541552616,0.16120644850067956,0.12627027388091133
9.962,9.64,0.5,0.2209967932166156,0.3088523924775957,0.005403321708461338,0.03147624045236643,0.15937445592307783,0.127020032580256
10.022,9.7,0.49,0.21786167805818735,0.3030304860020424,0.004912331519481717,0.031180017084372565,0.15756497864800723,0.12781980828840547
10.084,9.75,0.49,0.21474658197476423,0.2973584245264624,0.0044423735440274476,0.030913884226463222,0.1557789382665484,0.1286696135530524
10.104,9.81,0.52,0.21165304911718882,0.2918370895523411,0.003993924298588723,0.030677676143518948,0.15401721116019476,0.12956943207606714
10.167,9.86,0.51,0.20858259704625295,0.2864672373173036,0.003567438893617797,0.030471199914890303,0.15228062786001706,0.13051921909481717
10.209,9.92,0.49,0.20553671468037993,0.2812495000127721,0.0031633501817086426,0.030294235801443237,0.15056997246876944,0.13151890178335968
10.272,9.97,0.51,0.20251686030531624,0.27618438709288107,0.0027820679469095356,0.03014653764000317,0.14888598214670634,0.13256837967310636
10.333,10.03,0.5,0.1995244596486083,0.2712722866725513,0.002423978136621415,0.030027833263942576,0.14722934666191007,0.1336675250925152
10.373,10.08,0.46,0.19656090402160126,0.26651346701244855,0.002089442137504565,0.029937824948619175,0.14560070800593747,0.13481618362533487
10.476,10.14,0.44,0.19362754853163888,0.26190807808841315,0.0017787960967680547,0.029876189880418475,0.1440006600755784,0.13601417458691564
10.497,10.19,0.42,0.19072571036705765,0.25745615324287796,0.0014923502901480245,0.029842580648265667,0.14242974842146838,0.13726129151808159
10.538,10.25,0.35,0.18785666715744445,0.253157610915772,0.0012303885378033585,0.02983662575657559,0.14088847006418703,0.1385573026960416
10.6,10.3,0.31,0.18502165541145948,0.2490122564524183,0.0009931676692557542,0.02985793015867153,0.13937727337828212,0.13990195166180314
10.662,10.36,0.36,0.18222186903433293,0.24501978398592414,0.0007809170383618149,0.0299060758097354,0.1378965580443958,0.14129495776351908
10.722,10.41,0.35,0.17945845792692924,0.24117977839149196,0.0005938380891345192,0.029980622238333636,0.13644667506936503,0.14273601671513714
10.805,10.47,0.35,0.17673252666801997,0.23749171730998847,0.0004321039730345974,0.030081107135514495,0.1350279268738708,0.14422480116964456
10.826,10.52,0.38,0.1740451332811255,0.2339549732380266,0.000295859218153226,0.03020704696043407,0.13364056744700206,0.1457609613061322
10.868,10.58,0.39,0.17139728808704052,0.2305688156817325,0.0001852194505573169,0.03035793756143529,0.13228480256700506,0.14734412542986952
10.951,10.63,0.38,0.16878995264298396,0.2273324133712699,0.0001002711679801839,0.0305332548114847,0.13096079008747946,0.1489739005846263
11.012,10.69,0.4,0.16622403876918357,0.2242448365331163,4.1071565980998796e-05,0.030732455256926982,0.12966864028831104,0.15064987317656803
11.053,10.74,0.41,0.16370040766360117,0.22130505921706373,7.648416659175575e-06,0.03095497677863385,0.12840841629067,0.1523716096091358
11.095,10.8,0.39,0.16121986910541058,0.21851196167495818,0.0,0.03120023926473825,0.1271801345354416,0.1541386569283595
11.217,10.85,0.36,0.15878318074775383,0.21586433278827055,1.8095087923219007e-05,0.0314676452942478,0.1259837653244788,0.1559505434780609
11.238,10.91,0.36,0.15639104750023228,0.21336087254165997,6.187298108904969e-05,0.03175658083093656,0.12481923342407154,0.1578067795643798
11.28,10.96,0.3,0.1540441210015246,0.21100019453970648,0.00013124359848413605,0.03206641592696723,0.12368641872997596,0.15970685812902205
11.341,11.02,0.25,0.15174299918242382,0.20878082856396707,0.00022608761974097664,0.032396505435685286,0.1225851569932233,0.16165025543058256
11.383,11.07,0.24,0.14948822591942082,0.20670122316747286,0.00034625668001999124,0.03274618973297587,0.1215152406057207,0.1636364317332354
11.425,11.13,0.25,0.1472802907787496,0.20475974830371857,0.0004915736171201839,0.03311479544647506,0.1204764194443811,0.16566483200200058
11.487,11.18,0.25,0.14511962885054783,0.20295469798710092,0.0006618327702955556,0.03350163619180653,0.11946840177219918,0.16773488660370675
11.549,11.24,0.3,0.14300662067248845,0.2012842929816934,0.0008568003300482268,0.0339060133149462,0.11849085519439112,0.1698460120126722
11.611,11.29,0.34,0.1409415922419345,0.19974668351522493,0.0010762147379899003,0.03432721663982507,0.11754340766750956,0.17199761152002827
11.652,11.35,0.33,0.1389248151154204,0.19833995201516233,0.0013197871357502502,0.034764525220332416,0.11662564855937452,0.17418907594556082
11.734,11.4,0.34,0.13695650659410455,0.19706211586385755,0.0015872018618541665,0.03521720809600008,0.11573712975770442,0.17641978435096808
11.754,11.46,0.38,0.13503682999378996,0.19591113016978381,0.0018781169954636895,0.03568452505083908,0.11487736682545144,0.17868910475348526
11.817,11.51,0.37,0.13316589499814674,0.19488489055193337,0.0021921649458617122,0.036165727375026775,0.11404584020097243,0.18099639483888028
11.921,11.57,0.36,0.13134375809381266,0.19398123593449207,0.0025289530865132536,0.03666005862937151,0.11324199644126962,0.18334100267287026
11.942,11.62,0.38,0.12957042308604336,0.1931979513489508,0.0028880644324751933,0.0371667554126652,0.1124652495066165,0.18572226741002773
11.983,11.68,0.35,0.12784584169354188,0.19253277074080669,0.003269058359862297,0.03768504813211087,0.11171498208493413,0.1881395199992312
12.024,11.73,0.31,0.12616991422103574,0.19198337977794785,0.0036714713660115678,0.03821416177700346,0.1109905469542968,0.190592083884697
12.085,11.79,0.3,0.12454249030808845,0.1915474186577505,0.00409481786890333,0.03875331669583209,0.11029126838191153,0.19307927570160577
12.147,11.84,0.27,0.12296336975254359,0.1912224849098811,0.00453859104432015,0.03930172937694604,0.10961644355782395,0.19560040596531406
12.189,11.9,0.24,0.12143230340691044,0.19100613619178902,0.005002263699174906,0.039858613232816927,0.10896534406144284,0.19815477975314252
12.292,11.95,0.26,0.11994899414589197,0.1908958930738986,0.005485289179408591,0.040423179387703255,0.10833721735874681,0.20074169737776137
12.314,12.01,0.32,0.11851309790311522,0.19088924181157815,0.005987102310843139,0.04099463746816567,0.10773128832778069,0.20336045505123038
12.374,12.06,0.32,0.11712422477496152,0.19098363710104943,0.0065071203713689425,0.04157219639546624,0.10714676080982644,0.20601034553877148
12.434,12.12,0.33,0.11578194018922217,0.19117650481651016,0.007044744092818663,0.04215506517857941,0.10658281918351097,0.20869065880136345
12.516,12.17,0.39,0.1144857661361671,0.1914652447258466,0.00759935869082939,0.042742453706426174,0.1060386299591243,0.21140068262624379
12.537,12.23,0.39,0.11323518245952446,0.19184723318237773,0.00817033492096174,0.043333573537901064,0.10551334339053287,0.2141397032444035
12.578,12.28,0.39,0.11202962820480261,0.19231982579011542,0.00875703015933219,0.0439276386882176,0.1050060951022216,0.21690700593417847
12.64,12.34,0.42,0.11086850302231675,0.1928803600400849,0.009358789506005332,0.04452386641007279,0.10451600772915574,0.21970187561006094
12.701,12.39,0.42,0.10975116862223473,0.19352615791530547,0.009974946909395896,0.04512147796812007,0.10404219256730828,0.2225235973958692
12.764,12.45,0.38,0.1086769502789394,0.1942545284620875,0.010604826309949703,0.045719699405234286,0.10358375123282978,0.22537145718144835
12.823,12.5,0.38,0.10764513838199537,0.19506277032538827,0.011247742801384698,0.04631776229910567,0.103139777327933,0.2282447421621546
12.864,12.56,0.37,0.10665499003098106,0.1959481742461328,0.011903003807774393,0.046914904507833546,0.10270935811161022,0.231142741360485
12.925,12.61,0.32,0.10570573067140102,0.19690802551863004,0.012569910274753175,0.04751037090335709,0.10229157617327975,0.2340647461293494
13.048,12.67,0.28,0.10479655576883644,0.19793960640644576,0.01324775787309922,0.048103414091739974,0.10188551110735868,0.23701005063661354
13.068,12.72,0.31,0.10392663251844679,0.19904019851526522,0.013935838212897263,0.04869329511948681,0.10149024118660363,0.23997795233062244
13.088,12.78,0.32,0.10309510158689432,0.20020708512135835,0.014633440066410285,0.049279284165141504,0.10110484503185779,0.24296775238642496
13.13,12.83,0.34,0.10230107888368106,0.20143755345429457,0.01533985059768839,0.049860661215411065,0.10072840327562864,0.24597875613238393
13.19,12.89,0.4,0.10154365735876222,0.20272889693259358,0.016054356596819395,0.05043671672503675,0.10036000021676367,0.24901027345679047
13.252,12.94,0.42,0.10082190882319428,0.20407841735101293,0.0167762457166269,0.051006752259607734,0.09999872546345184,0.25206161919403014
13.293,13.0,0.42,0.10013488578953089,0.2054834270181638,0.017504807709578865,0.05157008112049245,0.09964367556187012,0.25513211348981285
13.396,13.05,0.45,0.09948162332868714,0.20694125084314716,0.018239335662671455,0.05212602895111276,0.09929395560797744,0.2582210821449746
13.417,13.11,0.48,0.09886114094003326,0.20844922836996546,0.018979127228091225,0.0526739343239156,0.09894868084017924,0.26132785693737715
13.458,13.16,0.46,0.09827244443154146,0.2100047157585946,0.0197234858475316,0.0532131493075517,0.09860697821079742,0.2644517759214689
13.541,13.22,0.43,0.0977145278068937,0.21160508771178255,0.020471721968132454,0.053743040013922175,0.09826798793446637,0.2675921837051438
13.563,13.27,0.45,0.09718637515656772,0.21324773934682492,0.021223154248120837,0.05426298712487782,0.09793086501173365,0.2707484317036343
13.624,13.33,0.41,0.09668696255004203,0.21493008801171554,0.021977110750352562,0.05477238639841018,0.09759478072623846,0.2739198783703424
13.687,13.38,0.38,0.09621525992635173,0.21664957504518834,0.02273293012205102,0.05527064915417744,0.09725892411384764,0.27710588940476893
13.75,13.44,0.38,0.09577023298027346,0.21840366748026432,0.02348996275908031,0.055757202738201166,0.09692250340206343,0.2803058379379459
13.812,13.49,0.36,0.09535084504143135,0.22018985969095986,0.024247571953083406,0.05623149096653287,0.09658474741790911,0.2835191046959342
13.854,13.55,0.36,0.09495605894359989,0.2220056749818055,0.025005135019772234,0.056692974547630184,0.09624490696236161,0.28674507814198874
13.935,13.6,0.41,0.09458483888142812,0.22384866711981888,0.025762044406586315,0.05714113148314481,0.0959022561492593,0.2899831545979664
13.956,13.66,0.45,0.09423615225175239,0.2257164218085786,0.026517708777887145,0.05757545744679833,0.09555609370650213,0.2932327383455207
14.017,13.71,0.45,0.09390897147667142,0.2276065581040442,0.027271554075860415,0.05799546614098453,0.09520574423732785,0.2964932417076237
14.059,13.77,0.47,0.09360227580566012,0.2295167297717398,0.028023024555350932,0.05840068963075143,0.09485055943952529,0.2997640851110047
14.121,13.82,0.51,0.09331505309418482,0.23144462658489018,0.028771583790946704,0.058790678654901125,0.09448991928062181,0.3030446971301589
14.184,13.88,0.51,0.09304630155649496,0.23338797556309274,0.02951671565475534,0.05916500291403104,0.0941232331273033,0.30633451451365085
14.225,13.93,0.51,0.09279503149043264,0.23534454215117337,0.030257925263446533,0.05952325133539053,0.09374994082754536,0.3096329821935139
14.308,13.99,0.55,0.09256026697222348,0.23731213133797718,0.03099473989324274,0.05986503231446091,0.09336951374414655,0.3129395532785931
14.35,14.04,0.52,0.09234104751931442,0.2392885887149186,0.03172670986162647,0.06018997393318815,0.09298145573855597,0.3162536890326765
14.412,14.1,0.48,0.09213642971941453,0.24127180147413452,0.0324534093745941,0.06049772415482923,0.09258530410406139,0.31957485883822495
14.491,14.15,0.48,0.09194548882396379,0.2432596993460997,0.033174437338323585,0.060787950995428455,0.09218063044753569,0.3229025401464669
14.512,14.21,0.46,0.09176732030430443,0.24525025547660312,0.03388941813416729,0.06106034267197085,0.09176704151900611,0.3262362184145878
14.572,14.26,0.41,0.09160104136885633,0.24724148724307116,0.03459800235593575,0.06131460772724012,0.09134417998829604,0.32957538703074757
14.613,14.32,0.4,0.09144579243958374,0.24923145701037241,0.03529986750847628,0.06155047513141026,0.09091172516790104,0.33291954722768397
14.674,14.37,0.45,0.09130073858597995,0.25121827282643583,0.03599471866656094,0.061767694360461214,0.09046939368112764,0.3362682079856657
14.735,14.43,0.45,0.09116507091471542,0.25320008905821173,0.03668228909309116,0.06196603545159688,0.0900169400743737,0.3396208859255325
14.777,14.48,0.47,0.09103800791302218,0.25517510696867457,0.03736234081560462,0.062145289035936156,0.08955415737231576,0.3429771051925183
14.86,14.54,0.53,0.09091879674386956,0.25714157523567993,0.03803466516006241,0.062305266348815475,0.08908087757475328,0.3463363973314934
14.901,14.59,0.53,0.09080671449104437,0.2590977904135377,0.03869908324094369,0.06244579921803195,0.08859697209396845,0.34969830115422684
14.943,14.65,0.54,0.09070106935234452,0.26104209733818867,0.03935544640677384,0.06256674003028438,0.08810235213165701,0.35306236259924734
15.004,14.7,0.59,0.0906012017791915,0.26297288947691155,0.04000363664032743,0.06266796167598959,0.08759696899473429,0.3564281345848715
15.046,14.76,0.6,0.09050648556108783,0.2648886092235053,0.04064356691287391,0.06274935747255866,0.08708081434958007,0.3597951768559392
15.129,14.81,0.58,0.09041632885350098,0.26678774813988937,0.04127518149197313,0.06281084106611241,0.08655392041454009,0.3631630558247625
15.232,14.87,0.58,0.09033017514792119,0.26866884714507355,0.04189845620247458,0.06285234631155141,0.08601636009075073,0.36653134440677226
15.253,14.92,0.58,0.09024750418300782,0.2705304966525145,0.042513398640530504,0.06287382713089984,0.08546824703158404,0.3698996218513237
15.295,14.98,0.53,0.09016783279589582,0.2723713366569932,0.04312004834059215,0.06287525734991013,0.08490973565118753,0.3732674735681382
15.356,15.03,0.5,0.09009071571285956,0.27419005677231284,0.043718476895482916,0.06285663051306706,0.08434102107269294,0.37663449094990403
15.418,15.09,0.49,0.09001574627862487,0.2759853962212943,0.044308788029728916,0.06281795967731618,0.08376233901669047,0.38000027119160296
15.46,15.14,0.44,0.08994255712367269,0.27775614377968705,0.04489111762639197,0.06275927718496309,0.08317396563051092,0.38336441710714153
15.519,15.2,0.42,0.08987082076888686,0.2795011376756958,0.04546563370767713,0.0626806344162095,0.08257621725873321,0.38672653694384923
15.622,15.25,0.48,0.08980025016688188,0.28121926544682035,0.046032536369562435,0.06258210152175564,0.08196945015516607,0.3900862441953525
15.642,15.31,0.49,0.08973059917934265,0.28290946375560977,0.046592057670635484,0.0624637671358338,0.08135406013638295,0.3934431574132536
15.684,15.36,0.5,0.08966166298972136,0.28457071816579443,0.04714446147523985,0.06232573807000123,0.0807304821767782,0.3967969000179827
15.745,15.42,0.54,0.08959327845066503,0.28620206288015765,0.04769004325096118,0.062168138988071615,0.08009918994512528,0.4001471001091582
15.786,15.47,0.57,0.08952532436562154,0.2878025804414584,0.0482291298204793,0.061991112062667914,0.07946069528276217,0.4034933902757847
15.847,15.53,0.56,0.0894577217042173,0.28937140139771567,0.048762079067903856,0.06179481661398133,0.0788155476237614,0.4068354074066453
15.888,15.58,0.58,0.08939043375120537,0.29090770393317805,0.04928927959985794,0.0615794287314424,0.07816433335770423,0.4101727925012898
15.949,15.64,0.61,0.08932346618903639,0.2924107134663277,0.04981115036174955,0.061345140879147796,0.07750767513593877,0.4135051904820608
16.011,15.69,0.59,0.08925686711437243,0.2938797022162736,0.05032814020985921,0.06109216148598607,0.07684623112244228,0.41683225000764407
16.072,15.75,0.57,0.0891907269891126,0.29531398873891734,0.050840727440042456,0.06082071452147229,0.07618069419062258,0.4201536232886784
16.093,15.8,0.58,0.08912517852672346,0.2967129374342969,0.05134941927397045,0.060531039058355315,0.075511791067583,0.4234689659059715
16.154,15.86,0.54,0.0890603965148663,0.2980759580264789,0.05185475130392257,0.060223388823066805,0.07484028142752519,0.42677793663181995
16.215,15.91,0.48,0.08899659757546997,0.29940250501728466,0.052357286897202315,0.05989803173503017,0.07416695693604787,0.43008019725484187
16.278,15.97,0.46,0.08893403986347743,0.300692077115026,0.0528576165612711,0.05955524943577009,0.07349264024710869,0.4333754124086204
16.339,16.02,0.45,0.08887302270550597,0.3019442166393372,0.05335635727070538,0.05919533680865238,0.07281818395434851,0.4366632494043663
16.38,16.08,0.44,0.0888138861795923,0.30315850890311613,0.05385415175707875,0.058818601489962985,0.07214446949833492,0.43994337806777806
16.44,16.13,0.47,0.08875701063704508,0.30433458157257043,0.05435166776283125,0.05842536337197937,0.07147240603109999,0.4432154705803054
16.482,16.19,0.52,0.08870281616724332,0.3054721040064219,0.05484959726013695,0.05801595409870076,0.07080292923920196,0.4464792013250636
16.545,16.24,0.51,0.08865176200608349,0.306570786575415,0.05534865563577187,0.057590716554911346,0.07013700012649535,0.44973424673768847
16.607,16.3,0.52,0.08860434588873904,0.30763037996339954,0.055849580843025194,0.05715000434925347,0.06947560375787051,0.4529802851624696
16.689,16.35,0.57,0.08856110334745924,0.30865067445133004,0.056353132521770856,0.05669418129200495,0.0688197479654022,0.4562169967141307
16.71,16.41,0.55,0.08852260695526734,0.30963149918552896,0.05686009108790461,0.05622362086826427,0.0681704620185676,0.4594440631456457
16.752,16.46,0.54,0.08848946551655937,0.31057272143149445,0.05737125679342202,0.055738705707242694,0.06752879526042088,0.46266116772247606
16.813,16.52,0.57,0.0884623232057327,0.31147424581444044,0.05788744875845558,0.0552398270483745,0.06689581571182629,0.46586799510360377
16.874,16.57,0.56,0.08844185865511782,0.3123360135476277,0.05840950397663214,0.054727384204967415,0.06627260864604792,0.46906423122972635
16.916,16.63,0.51,0.08842878399365142,0.31315800164941326,0.05893827629516419,0.054201784026126874,0.06566027513614951,0.47224956321900097
16.978,16.68,0.49,0.08842384383787695,0.31394022214987355,0.059474635371127384,0.053663440357755124,0.06505993057777404,0.47542367927076074
17.061,16.74,0.47,0.08842781423696922,0.3146827212878619,0.060019465605405393,0.053112773503539996,0.06447270318993928,0.47858626857765346
17.121,16.79,0.41,0.08844150157357177,0.3153855786994132,0.06057366505581615,0.05255020968695196,0.0638997324964772,0.48173702124667717
17.142,16.85,0.36,0.08846574142231248,0.3160489065984597,0.06113814433094742,0.05197618051536296,0.06334216779065092,0.48487562822962216
17.204,16.9,0.38,0.0885013973679276,0.31667284895084674,0.06171382546621067,0.05139112244749441,0.062801166585316,0.48800178126344596
17.266,16.96,0.37,0.08854935978495536,0.31725758064262466,0.06230164078357311,0.05079547626544728,0.062277893050771325,0.49111517282108813
17.308,17.01,0.39,0.08861054458092449,0.31780330664357137,0.06290253173634701,0.0501896865525478,0.061773516442208964,0.4942154960731759
17.368,17.07,0.45,0.08868589190490432,0.31831026116685457,0.06351744774032368,0.04957420117816387,0.06128920951849586,0.49730244486095987
17.451,17.12,0.45,0.08877636482327594,0.3187787068256055,0.06414734499248524,0.04894947079049561,0.060826146953965377,0.5003757136806716
17.492,17.18,0.44,0.088882947964658,0.3192089337869552,0.06479318527852998,0.048315948318151926,0.060385503744972494,0.5034349976793604
17.532,17.23,0.46,0.08900664613602766,0.3196012589238569,0.06545593477049237,0.04767408848116973,0.05996845361313262,0.5064799926621503
17.593,17.29,0.47,0.08914848291219046,0.3199560249648713,0.06613656281582853,0.04702434731200071,0.0595761674073616,0.5095103951107873
17.634,17.34,0.44,0.08930949920087958,0.3202735996420183,0.06683604071947194,0.04636718168684187,0.059209811507005536,0.5125259022133264
17.695,17.4,0.43,0.08949075178590936,0.32055437483676635,0.06755534052050177,0.04570304886757323,0.058870546228479405,0.5155262119048564
17.8,17.45,0.44,0.08969331185096052,0.3207987657242135,0.06829543376518435,0.04503240605453373,0.058559524237932654,0.51851102291923
17.821,17.51,0.39,0.08991826348669209,0.32100720991550585,0.0690572902782389,0.044355709950378235,0.05827788897251858,0.5214800348518142
17.882,17.56,0.35,0.09016670218391541,0.3211801665985704,0.0698418769342202,0.04367341633528736,0.05802677307285052,0.5244329482332916
17.943,17.62,0.34,0.0904397333155347,0.3213181156772761,0.07065015643088882,0.04298597965383132,0.057807296829176624,0.527369464614489
17.984,17.67,0.29,0.09073847060986218,0.3214215569091489,0.07148308606637992,0.042293852613756844,0.05762056664369398,0.5302892866621003
18.045,17.73,0.24,0.09106403461772554,0.3214910090417703,0.07234161652188723,0.04159748579686032,0.057467673511248235,0.5331921182650186
18.086,17.78,0.27,0.0914175511755058,0.32152700894801284,0.07322669065144861,0.040897327281995716,0.05734969152043866,0.5360776646508385
18.188,17.84,0.28,0.09180014986596619,0.32153011076029625,0.07413924228027273,0.04019382228015944,0.05726767637689534,0.538945632511938
18.209,17.89,0.28,0.09221296247854302,0.32150088500402907,0.0750801950129074,0.03948741278150644,0.05722266395025169,0.5417957301404492
18.25,17.95,0.31,0.09265712147067652,0.3214399177303867,0.07605046105243243,0.03877853721412919,0.057215668846160174,0.5446276675714425
18.311,18.0,0.34,0.09313375843172703,0.32134780964859866,0.07705094003179323,0.03806763011448171,0.05724768300464093,0.5474411567337204
18.353,18.06,0.32,0.09364400255101762,0.32122517525799393,0.07808251785839487,0.03735512180939559,0.057319674326093355,0.5502359116077262
18.415,18.11,0.33,0.09418897909154086,0.32107264198016505,0.0791460655731079,0.036641438109716346,0.05743258532640293,0.5530116483901693
18.476,18.17,0.36,0.09476980787087973,0.32089084929170497,0.0802424382248614,0.03592700001568997,0.05758733182269562,0.5557680856650188
18.538,18.22,0.33,0.09538760175092839,0.32068044785800864,0.08137247376201961,0.03521222343429044,0.05778480165140143,0.5585049445805369
18.58,18.28,0.31,0.09604346513802818,0.32044209866862555,0.08253699194175432,0.03449751890867269,0.05802585342037112,0.5612219490320213
18.641,18.33,0.31,0.09673849249513139,0.3201764721746514,0.08373679325863308,0.033783291359884615,0.0583113152968465,0.5639188258499122
18.704,18.39,0.29,0.09747376686757825,0.3198842474286636,0.08497265789365462,0.03306993984087343,0.0586419838331036,0.5665953049928826
18.786,18.44,0.23,0.09825035842402056,0.319566111227748,0.08624534468497501,0.03235785730271012,0.059018622831549884,0.56925111974551
18.807,18.5,0.2,0.09906932301392768,0.3192227572602662,0.08755559012154492,0.031647430372914606,0.05944196225095379,0.5718860069201123
18.888,18.55,0.18,0.09993170074296728,0.3188548852571674,0.08890410736082054,0.03093903914580537,0.05991269715531941,0.5744997070623221
18.909,18.61,0.16,0.10083851456737845,0.31846320014881757,0.09029158527162705,0.030233056984848843,0.06043148670668214,0.577091964659975
18.973,18.66,0.19,0.10179076890827563,0.3180484112284526,0.09171868750314287,0.029529850337009268,0.060998953202809326,0.579662528354899
19.033,18.72,0.25,0.10278944828668354,0.31761123132339814,0.0931860515808472,0.028829778559082392,0.061615681160505226,0.5822111511571838
19.075,18.77,0.24,0.10383551598002776,0.3171523759751503,0.09469428803017818,0.028133193755898053,0.06228221644501306,0.584737590661486
19.135,18.83,0.24,0.10492991270077849,0.3166725626293202,0.09624397952860375,0.02744044063011366,0.06299906544593487,0.5872416092648834
19.198,18.88,0.29,0.10607355529794636,0.3161725098363687,0.09783568008680085,0.026751856343145346,0.06376669430015003,0.5897229743857256
19.259,18.94,0.3,0.10726733548216157,0.31565293646397374,0.09946991425966599,0.0260677703866271,0.0645855281623442,0.5921814586828487
19.3,18.99,0.28,0.1085121185751147,0.3151145609218089,0.10114717638790538,0.025388504463707526,0.06545595052389322,0.5946168402744724
19.341,19.05,0.29,0.10980874228417259,0.3145581003994811,0.10286792987095193,0.02471437237955734,0.06637830258096312,0.5970289029560807
19.425,19.1,0.29,0.11115801550302361,0.3139842701183946,0.10463260647195827,0.02404567994061202,0.06735288265278967,0.5994174364166059
19.485,19.16,0.25,0.11256071713926755,0.3133937825983402,0.10644160565565572,0.023382724862205936,0.06837994565116942,0.6017822364523002
19.527,19.21,0.22,0.11401759496993043,0.312787346939663,0.10829529395992608,0.022725796684358545,0.06945970260220731,0.6041231051777814
19.568,19.27,0.22,0.11552936452593666,0.31216566812190394,0.11019400440198146,0.02207517669556398,0.0705923202213171,0.6064398512338567
19.629,19.32,0.16,0.11709670800659469,0.3115294463198243,0.11213803592007174,0.021431137864491454,0.07177792054234934,0.6087322899918168
19.689,19.38,0.12,0.1187202732251263,0.31087937623770373,0.11412765285160822,0.020793944779518594,0.07301658060152934,0.6110002437539517
19.751,19.43,0.14,0.12040067258620073,0.3102161464627614,0.11616308444850049,0.020163853596000578,0.0743083321766358,0.6132435419500392
19.792,19.49,0.15,0.12213848209635131,0.3095404388384429,0.1182445244303836,0.019541111991080426,0.07565316158156045,0.6154620213295018
19.855,19.54,0.17,0.12393424040806121,0.3088529278581544,0.12037213057628132,0.01892595912570105,0.07705100951609258,0.6176555261488567
19.917,19.6,0.21,0.1257884478982156,0.30815428007983925,0.1225460243551211,0.018318625613372077,0.07850177097053775,0.6198239083540049
19.998,19.65,0.23,0.1277015657815593,0.30744515356163304,0.12476629059542663,0.017719333495197304,0.08000529518466527,0.6219670277568613
20.058,19.71,0.22,0.12967401525979008,0.30672619731869677,0.12703297719446696,0.01712829622067933,0.08156138566048425,0.6240847522058269
20.079,19.76,0.25,0.13170617670694013,0.3059980508012591,0.12934609486710527,0.016545718633915497,0.08316980022843223,0.6261769577496755
20.12,19.82,0.3,0.133798388891731,0.3052613433938773,0.13170561693454735,0.0159717969649556,0.08483025116666712,0.628243528794516
20.182,19.87,0.28,0.13595094823762588,0.3045166939359374,0.13411147915317012,0.015406718826219043,0.08654240537325224,0.6302843582536011
20.222,19.93,0.26,0.13816410812133392,0.30376471026345647,0.1365635795835963,0.01485066321395109,0.0883058845911159,0.6322993476898104
20.284,19.98,0.28,0.14043807821054563,0.3030059887722889,0.1390617785001644,0.014303800514765307,0.090120265685757,0.6342884074506543
20.408,20.04,0.24,0.14277302384170837,0.30224111400283654,0.14160589834091947,0.013766292517350606,0.09198508097572991,0.6362514567956083
20.429,20.09,0.2,0.14516906543866395,0.301470658246305,0.14419572369821199,0.013238292429410261,0.09389981861593465,0.6381884240155722
20.449,20.15,0.18,0.1476262779729346,0.30069518117247707,0.1468310013499331,0.012719944899872292,0.09586392303365225,0.6400992465441988
20.51,20.2,0.15,0.15014469046637327,0.2999152294788757,0.1495114403313414,0.012211386046353103,0.09787679541710967,0.6419838710608093
20.552,20.26,0.14,0.1527242855368078,0.29913133656107044,0.15223671204735534,0.011712743487790764,0.09993779425612484,0.6438422535845815
20.612,20.31,0.17,0.1553649989872072,0.2983440222037838,0.1550064504250686,0.011224136382177171,0.10204623593409304,0.6456743595597212
20.674,20.37,0.22,0.15806671943878906,0.2975537922924231,0.15782025210611245,0.01074567546942607,0.10420139537028746,0.6474801639313621
20.756,20.42,0.22,0.16082928800837737,0.2967611385447114,0.16067767667838148,0.010277463119532931,0.10640250671122378,0.6492596512119808
20.777,20.48,0.24,0.1636524980302273,0.2959665382621938,0.1635782469465862,0.009819593386245253,0.10864876406973262,0.6510128155381838
20.838,20.53,0.3,0.16653609482248724,0.29517045410149595,0.16652144924110734,0.009372152066428652,0.1109393223104019,0.6527396607177728
20.88,20.59,0.29,0.16947977549845938,0.29437333386526493,0.1695067337646933,0.008935216765164917,0.113273297880147,0.6544402002670588
20.943,20.64,0.29,0.17248318882280064,0.29357561031275153,0.17253351497660988,0.00850885696642666,0.11564976968278967,0.656114457438403
21.004,20.7,0.33,0.17554593511276517,0.2927777009900027,0.1756011720138865,0.008093134109019885,0.11806777999665753,0.6577624652379475
21.108,20.75,0.31,0.17866756618456872,0.29198000807959806,0.17870904914932145,0.007688101667368456,0.1205263354343251,0.6593842664334789
21.129,20.81,0.28,0.1818475853449623,0.291182918269784,0.18185645628591388,0.007293805236652759,0.12302440794368759,0.6609799135523765
21.169,20.86,0.28,0.18508544742810937,0.29038680264280653,0.1850426694873572,0.006910282621872868,0.1255609358495789,0.6625494688696626
21.23,20.92,0.27,0.18838055887783994,0.28959201658225203,0.18826693154416999,0.006537563930558812,0.1281348249351136,0.6640930043862653
21.271,20.97,0.22,0.1917322778753063,0.28879889969926253,0.19152845257498471,0.0061756716690089,0.1307449495618344,0.6656106017976959
21.353,21.03,0.19,0.19513991451199686,0.2880077757775544,0.19482641066246012,0.005824620842078043,0.1333901538275846,0.6671023524534145
21.394,21.08,0.23,0.19860273100798206,0.28721895273721126,0.19815995252320026,0.005484419056669632,0.13606925276081486,0.6685683573071742
21.476,21.14,0.23,0.20211994197517474,0.28643272261723113,0.20152819421096313,0.005155066629152056,0.13878103354978857,0.6700087268585784
21.496,21.19,0.25,0.2056907147252701,0.2856493615767958,0.20493022185231063,0.004836556696903067,0.14152425680490271,0.6714235810860072
21.538,21.25,0.31,0.20931416962191735,0.28486912991520114,0.20836509241371354,0.004528875334107035,0.14429765785215168,0.6728130493709635
21.6,21.3,0.34,0.21298938047661223,0.2840922721102963,0.21183183449901938,0.004232001671810071,0.147099948055676,0.6741772704138037
21.662,21.36,0.38,0.2167153749878032,0.2833190168751489,0.2153294491761374,0.003945908022121463,0.14992981616736095,0.6755163921407723
21.724,21.41,0.41,0.22049113522274658,0.28254957723251883,0.21885691083178024,0.003670560006393025,0.15278592970156277,0.6768305716022344
21.766,21.47,0.43,0.22431559814171678,0.28178415060662954,0.2224131680531381,0.0034059166871882817,0.15566693633322565,0.6781199748619506
21.848,21.52,0.41,0.22818765616427414,0.281022918931671,0.22599714453544126,0.003151930703848236,0.15857146531787483,0.6793847768772053
21.868,21.58,0.41,0.23210615777741087,0.2802660487764638,0.22960774001445947,0.0029085484115116953,0.16149812893217824,0.6806251613696008
21.929,21.63,0.43,0.23606990818551535,0.2795136914847515,0.2332438312230685,0.0026757100235691982,0.1644455239339223,0.6818413206863898
21.991,21.69,0.39,0.2400776700022014,0.27876598333064756,0.23690427287108573,0.002453349757647598,0.1674122330403171,0.6830334556523011
22.032,21.74,0.35,0.2441281639840876,0.2780230456888527,0.24058789864761554,0.002241395985307701,0.17039682642353418,0.6842017754118989
22.093,21.8,0.36,0.24822006980659006,0.27728498521934636,0.24429352224512996,0.002039771385685833,0.1733978632223071,0.6853464972625587
22.154,21.85,0.33,0.2523520268817199,0.27655189406628644,0.24801993840445702,0.0018483931032808522,0.1764138930682947,0.6864678464781389
22.215,21.91,0.31,0.2565226352177701,0.27582385007080606,0.2517659239797622,0.0016671729099793752,0.17944345762571323,0.6875660561234328
22.257,21.96,0.36,0.2607304563206307,0.27510091699730777,0.25553023902248684,0.001496017371284402,0.18248509214251113,0.6886413668594695
22.318,22.02,0.39,0.2649740141363326,0.2743831447727475,0.25931162788308604,0.001334828016579975,0.18553732701112866,0.6896940267396986
22.38,22.07,0.4,0.2692517960343307,0.2736705697382897,0.26310882032932553,0.0011835015131248698,0.18859868933670326,0.6907242909970857
22.421,22.13,0.43,0.27356225383100563,0.2729632149126326,0.26692053267986465,0.0010419298433720506,0.19166770451049617,0.691732421822153
22.483,22.18,0.47,0.2779038048528722,0.2722610902662764,0.2707454689518833,0.0009100004851757205,0.19474289778634207,0.6927186881320815
22.585,22.24,0.48,0.2822748330390083,0.27156419300602785,0.2745823220215903,0.0007875965944447157,0.1978227958580232,0.6936833653310638
22.627,22.29,0.49,0.28667369008221993,0.2708725078691217,0.2784297747965301,0.0006745971898341992,0.20090592843559538,0.6946267350622185
22.647,22.35,0.55,0.2910986966084444,0.27018600742644505,0.282286501398665,0.0005708773391198424,0.20399082981883004,0.6955490849514433
22.707,22.4,0.52,0.2955481433938722,0.26950465239443255,0.28615116835724896,0.00047630834691665366,0.2070760404660784,0.6964507083436315
22.748,22.46,0.49,0.30002029261923197,0.2688283919552309,0.29002243581053044,0.0003907579433872149,0.2101601085569914,0.6973319040316702
22.808,22.51,0.51,0.30451337916063065,0.2681571640847255,0.2938989587153048,0.0003140904735761295,0.21324159154763078,0.6981929759786262
22.868,22.57,0.5,0.3090256119163021,0.2674908958879681,0.29777938806331006,0.0002461670870009065,0.21631905771654264,0.6990342330335026
22.971,22.62,0.46,0.31355517516860615,0.26682950394142463,0.30166237210344,0.00018684592712724975,0.21939108770032584,0.6998559886409778
22.992,22.68,0.44,0.31810022998061227,0.2661728946413448,0.3055465575687189,0.0001359823204203084,0.22245627601712376,0.7006585605456129
23.054,22.73,0.47,0.3226589156265629,0.2655209645574742,0.3094305909069323,9.342896479249088e-05,0.22551323257633105,0.7014422704910774
23.115,22.79,0.49,0.3272293510554241,0.2648736007913265,0.3133131195137526,5.903611739781274e-05,0.22856058417263753,0.702207443914995
23.157,22.84,0.51,0.33180963638659555,0.26423068133828737,0.3171927929671273,3.265178184056888e-05,0.23159697596235132,0.7029544096400633
23.219,22.9,0.57,0.3363978544367244,0.2635920754528913,0.32106826426162227,1.4121894961024806e-05,0.23462107291981693,0.7036834995621184
23.302,22.95,0.58,0.3409920722764783,0.2629576440166471,0.32493819104138194,3.2905133874233035e-06,0.2376315612717147,0.7043950483358081
23.323,23.01,0.59,0.345590342816068,0.2623272399078063,0.3288012368303759,0.0,0.2406271499071015,0.7050893930585118
23.365,23.06,0.65,0.3501907064182284,0.2617007083724994,0.33265607225862887,4.09121037870232e-06,0.24360657176119868,0.7057668729531063
23.426,23.12,0.67,0.3547911925372941,0.26107788739667204,0.33650137628317084,1.54036791931787e-05,0.24656858517110697,0.7064278290501191
23.468,23.17,0.66,0.35938982138294145,0.2604586080782357,0.340335837402475,3.377580637711518e-05,0.24951197520180995,0.7070726038697726
23.53,23.23,0.67,0.36398460560711515,0.2598426949988513,0.34415815486315887,5.904504291120838e-05,0.2524355549410022,0.7077015411043955
23.591,23.28,0.69,0.3685735520125757,0.25922996659484837,0.34796703985773086,9.104807614804277e-05,0.25533816676144394,0.7083149853016918
23.672,23.34,0.66,0.3731546632814164,0.2586202355269396,0.3517612167122021,0.00012962101478337668,0.2582186835496714,0.7089132815493632
23.693,23.39,0.63,0.37772593972179386,0.2580133090485898,0.35553942406242434,0.00017459957375532732,0.261076009899971,0.7094967751616209
23.756,23.45,0.64,0.382285381031027,0.2574089893730708,0.35930041601803236,0.00022581925948760202,0.26390908327254786,0.7100658113681118
23.797,23.5,0.61,0.3868309880731339,0.25680707403935304,0.3630429633128873,0.0002831155559005158,0.2667168751147804,0.7106207350057557
23.857,23.56,0.62,0.39136076466875774,0.2562073562770482,0.36676585444089715,0.00034632411148318923,0.26949839194433495,0.7111618902139312
23.937,23.61,0.69,0.39587271939526847,0.2556096253706419,0.3704678967760492,0.00041528092750786735,0.2722526763927631,0.7116896201333751
23.958,23.67,0.72,0.40036486739463334,0.2550136670232312,0.3741479176754279,0.000489822547217753,0.27497880820807385,0.7122042666090784
24.04,23.72,0.73,0.40483523218645795,0.25441926371992546,0.3778047655639444,0.0005697862455955812,0.27767590521471813,0.7127061698973828
24.081,23.78,0.77,0.40928184748342206,0.25382619509103543,0.38143731099947836,0.0006550102192135953,0.2803431242294976,0.713195668377447
24.122,23.83,0.8,0.4137027590062254,0.2532342382751879,0.38504444771715024,0.000745333775678982,0.2829796619320742,0.7136730982672175
24.184,23.89,0.8,0.4180960262951411,0.2526431682825332,0.38862509365149406,0.0008405975222976349,0.28558475568897407,0.7141387933440514
24.267,23.94,0.8,0.42245972451534114,0.2520527583582348,0.39217819193533415,0.0009406435537811633,0.28815768433019057,0.7145930846701728
24.308,24.0,0.83,0.42679194625328226,0.25146278034640657,0.39570271187419137,0.0010453156390697587,0.29069776887769083,0.7150363003231912
24.411,24.05,0.81,0.4310908033015895,0.25087300505460053,0.3991976498950895,0.0011544594075343529,0.2932043732252856,0.7154687651319561
24.432,24.11,0.78,0.4353544284299892,0.2502832026188693,0.4026620304686855,0.001267922534928143,0.29567690476942915,0.7158908004180714
24.473,24.16,0.8,0.4395809771399444,0.24969314286934124,0.40609490700369155,0.0013855549294971782,0.2981148149905803,0.7163027237433969
24.536,24.22,0.76,0.4437686294007541,0.2491025956961199,0.4094953627125831,0.0015072089186188673,0.30051759998477084,0.7167048486638145
24.577,24.27,0.72,0.44791559136501025,0.2485113314151513,0.4128625114475774,0.0016327394362387478,0.3028848009449906,0.71709748448945
24.637,24.33,0.75,0.4520200970613906,0.24791912113356185,0.4161954985058042,0.0017620042113062353,0.3052160045919084,0.7174809360514544
24.678,24.38,0.79,0.45608041006278643,0.24732573711389164,0.4194935014024929,0.0018948639573673218,0.3075108435533117,0.7178555034753824
24.781,24.44,0.79,0.4600948251277372,0.24673095313660748,0.42275573061092525,0.0020311825634289323,0.30976899669148944,0.7182214819611822
24.802,24.49,0.85,0.46406166981314917,0.24613454486024502,0.4259814302678506,0.0021708272861921955,0.3119901893776714,0.7185791615698245
24.843,24.55,0.9,0.46797930605633364,0.24553629017849143,0.4291698788430752,0.002313668943763888,0.3141741937126436,0.7189288270165985
24.906,24.6,0.9,0.47184613172449674,0.24493596957351677,0.43232038977201115,0.0024595821109582986,0.3163208286927869,0.7192707574710951
24.946,24.66,0.91,0.4756605821298997,0.24433336646492831,0.4354323120500794,0.0026084453162991067,0.31842996032100956,0.7196052263638418
25.007,24.71,0.96,0.479421131508984,0.24372826755382682,0.43850503078796044,0.0027601412408395864,0.32050150166230174,0.7199325011994944
25.068,24.77,0.95,0.48312629446385497,0.2431204631615013,0.4415379677267892,0.0029145569188866534,0.3225354128438965,0.7202528433763887
25.151,24.82,0.94,0.4867746273646238,0.24250974756229593,0.4445305817124901,0.0030715839406259184,0.3245317010002414,0.720566508012203
25.172,24.88,0.95,0.4903647297112033,0.2418959193101572,0.4474823691285437,0.0032311186565546165,0.32649042016317215,0.7208737437754681
25.233,24.93,0.94,0.49389524545322805,0.24127878155834417,0.45039286428658426,0.0033930623835577286,0.3284116710978234,0.7211747927226528
25.294,24.99,0.9,0.4973648642668671,0.24065814237174665,0.4532616397743439,0.0035573216124064654,0.3302956010849034,0.7214698901406076
25.356,25.04,0.88,0.5007723227873883,0.24003381503121993,0.45608830676056283,0.0037238082164526218,0.33214240364997927,0.7217592643942214
25.397,25.1,0.87,0.504116405796426,0.23940561832931648,0.45887251525654704,0.003892439661335406,0.33395231824038607,0.7220431367792304
25.458,25.15,0.84,0.5073959473629424,0.23877337685678923,0.4616139543340926,0.004063139215559801,0.33572562985027427,0.7223217213801872
25.52,25.21,0.85,0.5106098319368608,0.23813692127926875,0.46431235229947215,0.004235836161832927,0.3374626685941519,0.7225952249336689
25.562,25.26,0.91,0.5137569953942895,0.2374960886035642,0.466967476823127,0.004410466009009533,0.33916380922909306,0.7228638466967979
25.623,25.32,0.93,0.5168364260331723,0.23685072243308175,0.4695791350246584,0.0045869707043033,0.3408294706256375,0.723127778321161
25.664,25.37,0.93,0.519847165518114,0.2362006732119025,0.472147173512714,0.004765298845096923,0.3424601151873502,0.7233872037321579
25.727,25.43,0.97,0.5227883097730452,0.2355457984571288,0.474671478379418,0.004945405889384024,0.34405624821907826,0.7236422990138057
25.788,25.48,1.0,0.5256590098203631,0.23488596297915484,0.47715197514909885,0.005127254363668459,0.34561841724410924,0.7238932322990043
25.872,25.54,1.0,0.5284584725652666,0.23422103908951458,0.4795886286812263,0.005310814067032521,0.3471472112706342,0.7241401636652969
25.893,25.59,1.02,0.5311859615241358,0.23355090679594842,0.48198144302763657,0.005496062270061966,0.3486432600081216,0.7243832450362339
25.936,25.65,1.04,0.5338407974959832,0.23287545398435158,0.4843304612443207,0.005682983907369084,0.35010723303440866,0.7246226200885234
25.996,25.7,1.03,0.5364223591761705,0.2321945765873472,0.48663576515825874,0.005871571762535619,0.3515398389145025,0.7248584241652196
26.057,25.76,1.0,0.5389300837117386,0.2315081787393451,0.4888974750899715,0.006061826644418788,0.35294182427224635,0.7250907841952668
26.119,25.81,1.01,0.5413634671978393,0.2308161729180479,0.4911157495325951,0.006253757553926271,0.3543139728161279,0.7253198186197268
26.16,25.87,0.96,0.5437220651148986,0.23011848007239216,0.49329078478837024,0.006447381840492031,0.35565710432058334,0.7255456373250041
26.24,25.92,0.92,0.5460054927062239,0.22941502973688144,0.4954228145634665,0.006642725347558657,0.3569720735641476,0.7257683415833385
26.281,25.98,0.92,0.548213425295789,0.22870576013221666,0.49751210952201835,0.006839822546440653,0.3582597692257287,0.7259880240007831
26.341,26.03,0.95,0.5503455985459073,0.22799061825204947,0.49955897680014594,0.007038716658028832,0.3595211127401426,0.7262047684728313
26.382,26.09,0.95,0.5524018086544799,0.22726955993556616,0.5015637594805761,0.007239459761912506,0.36075705711385914,0.7264186501478205
26.462,26.14,0.98,0.5543819124914885,0.22654254992550824,0.5035268360282987,0.0074421128926759105,0.36196858570174695,0.7266297353982566
26.524,26.2,1.02,0.5562858276744084,0.22580956191119603,0.5054486196875702,0.007646746123324868,0.3631567109455323,0.7268380818002123
26.545,26.25,1.03,0.5581135325822681,0.2250705785561487,0.5073295578405764,0.00785343863594723,0.3643224730747327,0.727043738121007
26.607,26.31,1.04,0.5598650663082227,0.22432559150995868,0.5091701313281494,0.008062278779821708,0.36546693877096115,0.7272467443154299
26.669,26.36,1.09,0.5615405285507123,0.22357460140412272,0.5109708537330522,0.008273364117290986,0.36659119979668614,0.7274471315308085
26.732,26.42,1.07,0.5631400794435537,0.22281761783151832,0.5127322706264859,0.008486801457757709,0.36769637158973817,0.727644922121219
26.772,26.47,1.06,0.5646639393255288,0.22205465930918453,0.514454958778603,0.008702706880140547,0.3687835918250549,0.7278401296711107
26.854,26.53,1.08,0.5661123884502041,0.22128575322406527,0.516139525333927,0.008921205744089203,0.36985401894534015,0.7280327590285709
26.915,26.58,1.07,0.567485766636815,0.22051093576138492,0.5177866069526784,0.009142432690203952,0.3709088306624529,0.7282228063484271
26.977,26.64,1.03,0.5687844728631497,0.219730251815332,0.5193968689191069,0.009366531629455667,0.37194922243143774,0.7284102591453803
26.998,26.69,1.02,0.5700089648014305,0.21894375488175932,0.5209710042179946,0.009593655722029956,0.3729764058991471,0.7285950963573741
27.038,26.75,1.0,0.5711597582982277,0.21815150693269314,0.5225097325805261,0.009823967345928943,0.373991607329392,0.7287772884194306
27.099,26.8,0.99,0.5722374267994372,0.21735357827258137,0.5240137995007462,0.01005763805579498,0.3749960660064905,0.728956797348197
27.159,26.86,0.99,0.5732426007213217,0.21655004737636632,0.5254839752238141,0.01029484853254189,0.37599103261895656,0.7291335768374635
27.221,26.91,1.04,0.5741759667686032,0.21574100070958557,0.526921053707241,0.010535788524471436,0.3769777676249348,0.7293075723648716
27.262,26.97,1.04,0.5750382672006009,0.21492653253074845,0.5283258515562603,0.010780656780562085,0.37795753960088146,0.7294787213099667
27.345,27.02,1.04,0.5758302990464317,0.21410674467623902,0.5296992069344636,0.011029660976532156,0.37893162357496474,0.7296469530836637
27.386,27.08,1.09,0.5765529132703173,0.21328174632798771,0.5310419784508477,0.011283017634112807,0.3799012993467227,0.7298121892691325
27.426,27.13,1.11,0.5772070138881148,0.21245165376412933,0.5323550440245008,0.011540952033697554,0.38086784979464267,0.7299743437740528
27.489,27.19,1.1,0.5777935570362673,0.21161659009283032,0.5336392997282733,0.011803698120233469,0.3818325591734863,0.7301333229941678
27.55,27.24,1.12,0.5783135499944839,0.21077668496946902,0.5348956586128933,0.012071498402044184,0.3827967114033453,0.730289025988029
27.61,27.3,1.12,0.5787680501635621,0.20993207429741995,0.5361250495130938,0.012344603842271264,0.3837615883525894,0.730441344662791
27.651,27.35,1.1,0.5791581639999068,0.20908289991280232,0.5373284158374048,0.012623273742725061,0.38472846811702066,0.7305901639708892
27.753,27.41,1.04,0.5794850459084301,0.2082293092536737,0.5385067143433413,0.012907775620115913,0.3856986232976728,0.7307353621174385
27.773,27.46,1.06,0.5797498970956382,0.20737145501424403,0.5396609138997464,0.013198385074833055,0.3866733192797529,0.7308768107781852
27.835,27.52,0.96,0.5799539643848123,0.20650949478474037,0.5407919942380585,0.013495385652532494,0.38765381251521186,0.7310143753278493
27.876,27.57,0.91,0.5800985389951937,0.20564359067760254,0.5419009446942684,0.013799068698735263,0.3886413488113085,0.7311479150786678
27.938,27.63,0.95,0.5801849552869843,0.20477390894075712,0.5429887629432748,0.014109733206478034,0.389637161627316,0.7312772835289312
28.0,27.68,0.97,0.5802145894737597,0.20390061955878644,0.5440564537272669,0.01442768565686515,0.3906424703812219,0.7314023286212437
28.083,27.74,0.97,0.5801888583036182,0.20302389584287928,0.5451050275796501,0.014753239852216521,0.3916584787679606,0.7315228930101995
28.103,27.79,1.01,0.5801092177101361,0.2021439140105432,0.5461354995458935,0.015086716741475116,0.3926863730904981,0.7316388143390898
28.164,27.85,1.04,0.579977161434032,0.201260852756187,0.5471488879025838,0.015428444237607544,0.393727320605017,0.7317499255251686
28.205,27.9,1.03,0.5797942196164227,0.20037489281382126,0.5481462128759523,0.015778757026826105,0.3947824678815149,0.7318560550529777
28.267,27.96,1.05,0.5795619573646292,0.19948621651326062,0.5491284953611966,0.016137996369571982,0.3958529391812473,0.7319570272752424
28.329,28.01,1.08,0.5792819732916266,0.19859500733130261,0.550096755644009,0.016506509893330967,0.3969398348525947,0.7320526627209066
28.39,28.07,1.06,0.5789558980303813,0.1977014494394248,0.5510520121258312,0.016884651377464022,0.39804422974707077,0.7321427784099154
28.452,28.12,1.05,0.5785853927244101,0.19680572724961765,0.5519952800544455,0.01727278053032091,0.3991671716573098,0.7322271881743834
28.472,28.18,1.07,0.5781721474959352,0.19590802496005946,0.5529275702615671,0.017671262758947672,0.4003096797789708,0.7323057029858022
28.535,28.23,1.04,0.5777178798930608,0.19500852610236757,0.5538498879091437,0.01808046893163469,0.40147274319855747,0.7323781312879099
28.595,28.29,0.99,0.5772243333174486,0.19410741309209872,0.5547632312460753,0.01850077513341653,0.40265731940916777,0.7324442793348014
28.635,28.34,0.99,0.5766932754339832,0.19320486678407994,0.5556685903770275,0.018932562414545894,0.40386433285614864,0.7325039515337777
28.696,28.4,0.96,0.5761264965638971,0.19230106603407512,0.5565669460449424,0.019376216531955242,0.40509467351453854,0.7325569507923385
28.757,28.45,0.95,0.5755258080627786,0.19139618726825083,0.5574592684287689,0.01983212768374182,0.406349195500032,0.7326030788686451
28.819,28.51,0.97,0.5748930406848289,0.19049040406189288,0.5583465159578429,0.02030069023676181,0.4076287157149969,0.7326421367247448
28.882,28.56,1.01,0.5742300429346826,0.18958388672882376,0.5592296341442291,0.020782302447489,0.4089340125308778,0.732673924881819
28.943,28.62,1.02,0.5735386794080445,0.18867680192294464,0.5601095544342534,0.021277366176331455,0.4102658245081694,0.7326982437767126
29.026,28.67,1.02,0.5728208291223681,0.18776931225326224,0.5609871930803779,0.021786286595607374,0.4116248491550831,0.7327148941190127
29.047,28.73,1.07,0.5720783838388138,0.18686157591363906,0.5618634500345225,0.022309471891394997,0.41301174172606947,0.7327236772479737
29.087,28.78,1.07,0.5713132463768317,0.18595374632831696,0.5627392078639003,0.0228473329594675,0.4144271140614623,0.7327243954886025
29.19,28.84,1.06,0.5705273289228467,0.1850459718140443,0.5636153306904255,0.02340028309549729,0.4158715334696318,0.7327168525062485
29.21,28.89,1.08,0.5697225513346595,0.1841383952594311,0.5644926631547736,0.023968737679693257,0.4173455216531611,0.7327008536590699
29.251,28.95,1.08,0.5689008394433007,0.1832311538219803,0.5653720294062244,0.02455311385600968,0.4188495536806761,0.7326762063477557
29.315,29.0,1.05,0.5680641233542055,0.182324378643109,0.5662542321195007,0.02515383020601051,0.42038405700604875,0.7326427203619422
29.355,29.06,1.03,0.5672143357497152,0.1814181945814063,0.5671400515398948,0.02577130641743734,0.42194941053673607,0.7326002082228306
29.416,29.11,1.03,0.5663534101949871,0.18051271996437956,0.5680302445580301,0.026405962947547577,0.4235459437530139,0.732548485521607
29.477,29.17,0.98,0.5654832794494311,0.179608066359014,0.5689255438156231,0.0270582206813267,0.42517393587979535,0.7324873712533331
29.56,29.22,0.93,0.5646058737856934,0.1787043383616091,0.5698266568435728,0.0277285005847225,0.4268336151125989,0.732416688146021
29.58,29.28,0.98,0.5637231193180737,0.17780163340749325,0.5707342652335725,0.028417223353103836,0.4285251578990489,0.7323362629846092
29.662,29.33,0.99,0.5628369363421075,0.17690004160125192,0.5716490238442706,0.029124809055185292,0.43024868827705953,0.7322459269294946
29.683,29.39,0.99,0.5619492376869356,0.1759996455680158,0.5725715600427981,0.029851676772695783,0.43200427727060675,0.7321455158291957
29.743,29.44,1.03,0.5610619270819823,0.1751005203261727,0.5735024729822991,0.030598244236125713,0.4337919423438166,0.7320348705265667
29.805,29.5,1.04,0.560176897539454,0.1742027331816038,0.5744423329159806,0.0313649274569418,0.43561164691403564,0.731913837157831
29.846,29.55,1.04,0.5592960297542434,0.17330634364317973,0.5753916805481748,0.03215214035670025,0.43746329992458155,0.7317822674436124
29.927,29.61,1.06,0.5584211905229622,0.1724114033588828,0.576351026422957,0.03296029439355115,0.43934675547795565,0.7316400189711741
29.988,29.66,1.09,0.5575542311839511,0.17151795607167006,0.5773208503509912,0.033789798186687876,0.4412618125303866,0.7314869554671701
30.029,29.72,1.07,0.556696986080183,0.17062603759412626,0.5783016008754281,0.03464105713931395,0.4432082146486602,0.7313229470603182
30.092,29.77,1.06,0.5558512710469893,0.16973567580102905,0.5792936947778048,0.03551447306072071,0.44518564983026887,0.7311478705334696
30.154,29.83,1.06,0.5550188819265411,0.16884689063905892,0.5802975166249582,0.03641044378811507,0.44719375038797465,0.7309616095645803
30.194,29.88,1.03,0.5542015931110073,0.16795969415295012,0.58131341835797,0.03732936280885201,0.4492320928999052,0.7307640549560636
30.235,29.94,0.98,0.5534011561162819,0.16707409052739125,0.5823417189241243,0.03827161888368744,0.4513001982262645,0.7305551048519864
30.317,29.99,0.96,0.5526192981880861,0.16619007614398146,0.5833827039527851,0.0392375956716125,0.4533975315936283,0.7303346649425296
30.338,30.05,0.94,0.5518577209421351,0.1653076396525231,0.5844366254759966,0.04022767135675947,0.45552350274761055,0.7301026486551163
30.399,30.1,0.93,0.5511180990399687,0.16442676205588294,0.5855037016944982,0.04124221827778661,0.4576774661744311,0.729858977331626
30.48,30.16,0.96,0.5504020789019126,0.16354741680760984,0.5865841167897123,0.04228160256010906,0.45985872139161116,0.7296035803911682
30.541,30.21,1.0,0.5497112774585164,0.16266956992148945,0.58767802078211,0.04334618375134736,0.4620665133077301,0.7293363954779787
30.563,30.27,1.0,0.5490472809416742,0.16179318009225865,0.588785529436226,0.04443631446036467,0.4643000326509492,0.7290573685940859
30.665,30.32,1.0,0.5484116437165303,0.16091819882678546,0.5899067242125128,0.04555234000025386,0.466558416465898,0.72876645421648
30.686,30.38,1.05,0.5478058871552156,0.16004457058509705,0.5910416522661587,0.04669459803562079,0.46884074867851144,0.7284636153985355
30.727,30.43,1.03,0.5472314985534484,0.159172232930684,0.5921903264929846,0.047863418234444295,0.47114606072845955,0.7281488238554574
30.788,30.49,1.03,0.5466899300909931,0.15830111668954078,0.5933527256225174,0.049059121924660026,0.4734733322688589,0.727822060033489
30.85,30.54,1.04,0.5461825978368793,0.15743114611745537,0.5945287943583408,0.0502820217554402,0.47582149193299594,0.7274833131626307
30.912,30.6,1.03,0.5457108808001777,0.1565622390751027,0.5957184435658152,0.05153242136294522,0.4781894181678057,0.7271325812926048
30.954,30.65,1.01,0.5452761200270511,0.15569430721050295,0.5969215505072654,0.052810615040156425,0.48057594013382104,0.7267698713118523
31.016,30.71,0.99,0.5448796177447177,0.15482725614841292,0.5981379591246878,0.05411688741034027,0.48297983867124783,0.7263951989494044
31.078,30.76,0.98,0.5445226365528585,0.15396098568626979,0.5993674803699618,0.05545151310373133,0.4853998473317098,0.7260085887595563
31.139,30.82,0.93,0.5442063986628428,0.15309538999641273,0.6006098925824473,0.056814756437076314,0.4878346534750567,0.7256100740893343
31.2,30.87,0.93,0.5439320851849616,0.15223035783442754,0.601864941913714,0.05820687109573863,0.4902828994304163,0.7251996970287862
31.241,30.93,0.99,0.543700835463689,0.15136577275352145,0.6031323427989679,0.05962809981811168,0.4927431837204203,0.7247775083441145
31.303,30.98,0.99,0.5435137464608729,0.1505015133247875,0.6044117784745506,0.06107867408206496,0.49521406234726567,0.7243435673936354
31.408,31.04,1.0,0.5433718721866546,0.14963745336311432,0.6057029015407065,0.06255881379305063,0.4976940501390475,0.7238979420264997
31.428,31.09,1.04,0.5432762231778301,0.14877346215840034,0.6070053345686673,0.0640687269734014,0.5001816221546768,0.7234407084640773
31.469,31.15,1.06,0.5432277660233127,0.14790940471166072,0.6083186707509955,0.06560860945232812,0.5026752151456743,0.72297195116386
31.511,31.2,1.05,0.5432274229363404,0.14704514197556964,0.6096424745940306,0.0671786445562408,0.5051732290731664,0.7224917626657336
31.573,31.26,1.08,0.5432760713730556,0.14618053109897644,0.6109762826511959,0.0687790027992797,0.5076740286784573,0.7220002434204756
31.614,31.31,1.09,0.5433745436970566,0.1453154256750006,0.612319604295843,0.07040984157422651,0.5101759451056019,0.7214975016003911
31.675,31.37,1.07,0.5435236268894794,0.14444967599243488,0.613671922532306,0.07207130484413143,0.5126772775744349,0.7209836528920688
31.757,31.42,1.05,0.5437240623041247,0.14358312929033168,0.6150326948438593,0.073763522835057,0.5151762951025204,0.7204588202713561
31.777,31.48,1.06,0.5439765454671228,0.1427156300157628,0.6164013540763055,0.07548661173036492,0.517671238274459,0.7199231337607305
31.84,31.53,1.02,0.5442817259206035,0.14184702008479327,0.6177773093559101,0.07724067336695728,0.5201603210569097,0.7193767301693111
31.881,31.59,0.98,0.5446402071097813,0.14097713914672813,0.6191599470403396,0.07902579493383798,0.5226417326575418,0.7188197528157786
31.943,31.64,0.99,0.5450525463127337,0.14010582485170553,0.6205486317011204,0.08084204867332345,0.5251136394259223,0.7182523512344524
32.005,31.7,1.01,0.5455192546119928,0.13923291312169278,0.6219427071359565,0.08268949158520127,0.5275741867940924,0.7176746808647456
32.129,31.75,1.02,0.5460407969068855,0.13835823842489203,0.6233414974090337,0.08456816513411179,0.5300215012542958,0.7170869027241936
32.149,31.81,1.05,0.5466175919653603,0.13748163405352642,0.6247443079172357,0.08647809496046704,0.5324536923710651,0.7164891830652702
32.169,31.86,1.09,0.5472500125138522,0.13660293240499785,0.6261504264800174,0.08841929059530482,0.5348688548247003,0.7158816930162335
32.23,31.92,1.11,0.5479383853636036,0.13572196526647964,0.6275591244506028,0.09039174517954768,0.5372650704831167,0.7152646082063366
32.271,31.97,1.12,0.5486829915718324,0.134838564103086,0.6289696578461748,0.09239543518819858,0.5396404104990593,0.71463810837584
32.332,32.03,1.18,0.5494840666362,0.13395256034980427,0.6303812684947558,0.09443032016006926,0.5419929374297601,0.7140023769713756
32.393,32.08,1.17,0.5503418007211593,0.13306378570736002,0.6317931851965384,0.09649634243367904,0.5443207073762096,0.7133576007272919
32.434,32.14,1.17,0.5512563389148826,0.1321720724421532,0.6332046248974353,0.09859342688998587,0.546621772139323,0.7127039692336545
32.496,32.19,1.2,0.5522277815155643,0.13127725369038065,0.634614793872622,0.10072148070262239,0.5488941813903764,0.7120416744916119
32.558,32.25,1.2,0.5532561843459634,0.13037916376641154,0.6360228889178595,0.10288039309621856,0.5511359848531768,0.7113709104568303
32.599,32.3,1.17,0.5543415590951158,0.12947763847539434,0.6374280985464712,0.10507003511316028,0.5533452344954647,0.7106918725717294
32.661,32.36,1.18,0.5554838736861719,0.12857251542998524,0.6388296041899378,0.10729025938886014,0.5555199867270518,0.7100047572872732
32.723,32.41,1.17,0.5566830526693031,0.1276636343710316,0.6402265814001755,0.10954089993542519,0.55765830460216,0.7093097615751053
32.765,32.47,1.17,0.5579389776386122,0.12675083749201385,0.6416182010516005,0.11182177193353786,0.5597582600233328,0.7086070824308638
32.909,32.52,1.19,0.5592514876719702,0.12583396976702332,0.6430036305410857,0.11413267153243126,0.5618179359441684,0.7078969163695696
32.93,32.58,1.22,0.5606203797926785,0.12491287928201127,0.6443820349838567,0.11647337565799873,0.5638354285679786,0.7071794589140308
32.951,32.63,1.24,0.562045409451825,0.12398741756899441,0.6457525784033102,0.11884364182923167,0.5658088495393832,0.7064549040772707
33.012,32.69,1.26,0.5635262910301136,0.12305743994288744,0.6471144249127049,0.12124320798329247,0.5677363281257892,0.7057234438400576
33.033,32.74,1.32,0.5650626983579056,0.12212280584062486,0.6484667398866756,0.12367179230959602,0.5696160133857553,0.7049852676246782
33.095,32.8,1.35,0.5666542652522507,0.12118337916217821,0.6498086911205728,0.12612909309327897,0.5714460763213166,0.7042405617661505
33.156,32.85,1.36,0.5683005860698008,0.12023902861294856,0.6511394499757175,0.12861478856840444,0.5732247120115033,0.7034895089820733
33.219,32.91,1.39,0.5700012162746493,0.11928962804690119,0.6524581925087526,0.13112853678125447,0.5749501417244586,0.7027322878423211
33.261,32.96,1.4,0.5717556730202672,0.11833505680975082,0.6537641005833994,0.1336699754641015,0.5766206150057646,0.7019690722397803
33.322,33.02,1.41,0.5735634357448539,0.11737520008149888,0.6550563629630828,0.1362387219198967,0.5782344117407809,0.7012000308633521
33.403,33.07,1.4,0.5754239467795601,0.11640994921763811,0.6563341763830618,0.13883437291838976,0.5797898441889607,0.7004253266744618
33.424,33.13,1.41,0.5773366119691821,0.11543920208834754,0.6575967466008512,0.14145650460430156,0.5812852589882367,0.6996451163882985
33.505,33.18,1.37,0.5793008013050305,0.11446286341501012,0.6588432894238464,0.1441046724182469,0.5827190391276602,0.6988595499608931
33.588,33.24,1.35,0.5813158495696961,0.11348084510343598,0.6600730317131381,0.1467784110311639,0.5840896058865055,0.6980687700829945
33.608,33.29,1.41,0.5833810569933734,0.11249306657326506,0.6612852123625029,0.14947723429305917,0.5853954207380245,0.6972729116815843
33.65,33.35,1.43,0.5854956899213036,0.1114994550830763,0.6624790832515156,0.15220063519688135,0.586634987215953,0.6964721014297922
33.711,33.4,1.45,0.587658981491811,0.1104999460507254,0.6636539101716811,0.15494808585826725,0.5878068527417822,0.6956664572659681
33.772,33.46,1.49,0.5898701323243282,0.10949448336841475,0.6648089737244699,0.1577190375118215,0.5889096104108023,0.6948560879226715
33.833,33.51,1.53,0.5921283112167854,0.1084830197120135,0.6659435701902026,0.16051292052450408,0.5899419007350155,0.694041092466373
33.895,33.57,1.54,0.594432655851789,0.10746551684418548,0.6670570123668795,0.16332914442661023,0.5909024133412074,0.6932215598487068
33.956,33.62,1.56,0.5967822735111513,0.1064419459109526,0.6681486303782458,0.16616709796078286,0.591789888622701,0.6923975684701867
33.977,33.68,1.59,0.5991762417984969,0.10541228773141646,0.6692177724505902,0.16902614914951491,0.5926031193435639,0.6915691857573522
34.038,33.73,1.57,0.6016136093698246,0.10437653308047264,0.6702638056579926,0.17190564538162614,0.5933409521942865,0.6907364677543449
34.079,33.79,1.56,0.6040933966720168,0.10333468296447706,0.6712861166359205,0.17480491351820476,0.5940022892981539,0.689899458729928
34.141,33.84,1.58,0.6066145966893587,0.10228674888992757,0.6722841122632305,0.1777232600184974,0.5945860896677166,0.6890581908009348
34.204,33.9,1.54,0.6091761756981772,0.10123275312526044,0.6732572203127332,0.1806599710861665,0.595091370610885,0.6882126835730786
34.244,33.95,1.51,0.6117770740297326,0.10017272895582575,0.6742048900705623,0.1836143128362285,0.595517209086249,0.687362943799974
34.347,34.01,1.49,0.6144162068414798,0.09910672093202269,0.6751265929246183,0.18658553148289134,0.5958627430072232,0.6865089650611554
34.368,34.06,1.48,0.6170924648967949,0.09803478511045144,0.6760218229223609,0.18957285354843245,0.5961271724945618,0.685650727459822
34.41,34.12,1.47,0.6198047153532426,0.09695698928779084,0.6768900972981969,0.19257548609318045,0.5963097610766658,0.6847881973409973
34.47,34.17,1.49,0.6225518025594411,0.09587341322697367,0.6777309569706743,0.19559261696660388,0.596409836836931,0.6839213270307826
34.532,34.23,1.53,0.6253325488605577,0.09478414887513167,0.678543967009653,0.19862341507945366,0.5964267935072365,0.6830500545973566
34.593,34.28,1.52,0.6281457554124269,0.09368930057272241,0.6793287170736388,0.2016670306968196,0.5963600915065833,0.6821743036343627
34.634,34.34,1.52,0.630990203004284,0.09258898525322459,0.6800848218175088,0.20472259575189125,0.5962092589238963,0.6812939830673138
34.736,34.39,1.57,0.6338646528901335,0.09148333263275381,0.6808119212709011,0.20778922418019896,0.5959738924440877,0.6804089869836365
34.757,34.45,1.56,0.636767847628876,0.09037248538886097,0.6815096811875663,0.2108660122741063,0.5956536582166038,0.6795191944869373
34.799,34.5,1.54,0.6396985119333861,0.08925659932767462,0.682177793365998,0.21395203905728344,0.5952482926658086,0.6786244695760139
34.861,34.56,1.56,0.6426553535287622,0.08813584353848837,0.6828159759416523,0.21704636667881683,0.5947576032426795,0.6777246610490517
34.924,34.61,1.55,0.645637064019951,0.08701040053486583,0.683423973651125,0.2201480408264987,0.5941814691173941,0.6768196024333626
34.965,34.67,1.5,0.6486423197689553,0.0858804663812923,0.6840015580687109,0.2232560911587364,0.593519841812454,0.6759091119409576
35.069,34.72,1.49,0.6516697827818558,0.08474625080434162,0.6845485278158236,0.22636953175452676,0.5927727457760075,0.6749929924502374
35.09,34.78,1.47,0.6547181016058784,0.08360797728729501,0.6850647087437556,0.22948736158105484,0.591940278895002,0.6740710315140762
35.131,34.83,1.45,0.6577859122367119,0.08246588314717526,0.6855499540902521,0.23260856497860427,0.5910226129477035,0.6731430013945817
35.193,34.89,1.45,0.6608718390361864,0.08132021959324033,0.6860041446103274,0.23573211216256157,0.5900199939949797,0.6722086591247962
35.256,34.94,1.49,0.6639744956603105,0.08017125176605559,0.6864271886816707,0.23885695974236232,0.5889327427095888,0.671267746597542
35.297,35.0,1.49,0.6670924859975523,0.07901925875627977,0.6868190223848852,0.24198205125724084,0.5877612546425743,0.6703199906815048
35.358,35.05,1.49,0.6702244051171256,0.07786453360228095,0.6871796095587017,0.24510631772860036,0.5865060004257987,0.6693651033645347
35.461,35.11,1.52,0.6733688402269096,0.07670738326567479,0.687508941830236,0.24822867822874622,0.5851675259096524,0.6684027819240604
35.482,35.16,1.53,0.676524371640537,0.07554812858384413,0.6878070386203268,0.25134804046560777,0.5837464522350531,0.6674327091244483
35.523,35.22,1.52,0.6796895737531446,0.07438710419845442,0.6880739471240083,0.25446330138295054,0.5822434758389403,0.6664545534411139
35.585,35.27,1.52,0.6828630160252573,0.0732246584589658,0.688309742266189,0.2575733477755503,0.5806593683925771,0.6654679693112002
35.627,35.33,1.53,0.6860432639742563,0.07206115330019912,0.6885145266326145,0.2606770569188892,0.578994976672063,0.6644725974106402
35.688,35.38,1.51,0.6892288801728278,0.07089696409314343,0.6886884303762255,0.2637732972130766,0.5772512223605591,0.6634680649574538
35.729,35.44,1.48,0.6924184252537467,0.06973247946836401,0.6888316110990456,0.2668609288408442,0.5754291017817779,0.662453986041121
35.81,35.49,1.48,0.6956104589202977,0.06856810111153026,0.6889442537097513,0.2699388044395756,0.5735296855643226,0.6614299619778593
35.872,35.55,1.45,0.6988035409616055,0.0674042435306869,0.6890265702570746,0.27300576978733343,0.5715541182364395,0.6603955816915336
35.913,35.6,1.45,0.7019962322720792,0.0662413337949663,0.6890787997391389,0.27606066450277467,0.5695036177506718,0.6593504221198073
36.016,35.66,1.5,0.7051870958740397,0.06507981124450764,0.6891012078887256,0.2791023227587281,0.5673794749378089,0.6582940486449701
36.036,35.71,1.52,0.7083746979424765,0.06392012717137935,0.6890940869343384,0.28212957400907296,0.5651830528894232,0.6572260155487141
36.057,35.77,1.51,0.711557608830766,0.06276274447128698,0.6890577553368515,0.2851412437283994,0.562915786268249,0.6561458664900062
36.118,35.82,1.53,0.7147344040961221,0.06160813726586462,0.6889925575014737,0.2881361541638695,0.5605791805457175,0.6550531350051412
36.18,35.88,1.56,0.7179036655234986,0.060456790495442725,0.6888988634647492,0.29111312509876375,0.5581748111660954,0.6539473450290462
36.242,35.93,1.56,0.72106398214665,0.05930919948234607,0.6887770685563628,0.2940709746273374,0.5557043226368578,0.6528280114369744
36.283,35.99,1.56,0.7242139512650798,0.05816586946493944,0.6886275930355876,0.29700851994079536,0.5531694275450872,0.6516946406058539
36.344,36.04,1.58,0.7273521794556741,0.057027315102745335,0.6884508817023176,0.29992457812435325,0.5505719054998583,0.6505467309946809
36.405,36.1,1.54,0.7304772835779069,0.05589405995300844,0.6882474034827306,0.30281796696541297,0.5479136020007294,0.6493837737434167
36.446,36.15,1.52,0.7335878917715747,0.054766635919114286,0.688017650989721,0.3056875057728281,0.5451964272326023,0.6482052532898518
36.547,36.21,1.52,0.7366826444460332,0.05364558267131909,0.6877621400582858,0.3085320162071089,0.5424223547873128,0.647010648003888
36.568,36.26,1.5,0.7397601952599137,0.05253144704027057,0.6874814092560818,0.3113503231212305,0.5395934203123429,0.6457994308386449
36.609,36.32,1.47,0.7428192120902833,0.0514247823837784,0.6871760193693683,0.3141412554115062,0.5367117200870327,0.6445710699977667
36.692,36.37,1.51,0.7458583779901828,0.05032614792726816,0.6868465528645236,0.31690364687785555,0.5337794095266113,0.6433250296182286
36.733,36.43,1.54,0.7488763921334027,0.04923610807837226,0.6864936133252656,0.3196363370927712,0.5307987016143144,0.6420607704678734
36.775,36.48,1.55,0.7518719707452975,0.04815523171618683,0.6861178248656765,0.3223381722783073,0.527771865261833,0.6407777506568377
36.835,36.54,1.57,0.7548438480184103,0.04708409145584871,0.6857198315191068,0.32500800619048004,0.524701223598393,0.639475426362041
36.917,36.59,1.61,0.7577907770117116,0.04602326288923002,0.6853002966030521,0.3276447010105712,0.5215891521889224,0.6381532525639032
36.938,36.65,1.6,0.7607115305323519,0.0449733238026799,0.6848599020601709,0.3302471282428968,0.5184380771819934,0.636810683794478
36.998,36.7,1.61,0.7636049019989042,0.043934853372884976,0.6843993477757119,0.33281416961863514,0.5152504733885015,0.6354471748961558
37.06,36.76,1.64,0.7664697062851613,0.042908431342060904,0.6839193508717407,0.33534471800529747,0.5120288622923178,0.634062181790047
37.101,36.81,1.63,0.7693047805436183,0.041894637173785915,0.6834206449786772,0.33783767832135536,0.5087758099944054,0.6326551622530692
37.162,36.87,1.61,0.7721089850078693,0.04089404919083262,0.6829039794847791,0.34029196845541465,0.5054939250921281,0.6312255767026732
37.223,36.92,1.6,0.7748812037732133,0.03990724369640993,0.6823701187643265,0.34270652018922587,0.5021858564956946,0.6297728889880551
37.305,36.98,1.58,0.7776203455548176,0.03893479408031349,0.6818198413853778,0.3450802801237508,0.4988542911838602,0.6282965671866041
37.346,37.03,1.53,0.7803253444228463,0.03797726991160243,0.6812539392981,0.34741221060744637,0.4955019519011335,0.6267960844042754
37.407,37.09,1.5,0.7829951605140179,0.03703523601954967,0.6806732170047679,0.3497012906659133,0.4921315947987781,0.6252709195785422
37.47,37.14,1.53,0.7856287807190829,0.03610925156475448,0.6800784907125755,0.3519465169320818,0.48874600702188803,0.6237205582825787
37.511,37.2,1.53,0.788225219345675,0.03519986910247006,0.6794705874704288,0.354146904576058,0.4853480042447524,0.6221444935293194
37.573,37.25,1.54,0.7907835187558843,0.03430763364041111,0.678850344290887,0.3563014882336107,0.4819404281566644,0.6205422265740316
37.636,37.31,1.6,0.7933027499777872,0.03343308169353027,0.6782186072584248,0.3584093229320338,0.4785261439003292,0.61891326771401
37.657,37.36,1.6,0.7957820132901182,0.032576740338385445,0.6775762306252224,0.3604694850118424,0.47510803746513613,0.6172571370839557
37.719,37.42,1.6,0.7982204387793096,0.031739126269771774,0.6769240758957734,0.36248107304248295,0.47168901303776567,0.615573365445543
37.78,37.47,1.63,0.8006171868681797,0.030920744862338343,0.6762630109017056,0.3644432087300538,0.4682719903128868,0.6138614949696252
37.821,37.53,1.65,0.802971448815641,0.030122089239995077,0.6755939088683541,0.3663550378149164,0.4648599017670115,0.612121080009471
37.882,37.58,1.64,0.8052824471869169,0.029343639356010462,0.674917647474794,0.3682157309569909,0.4614556898988879,0.6103516878633966
37.944,37.64,1.63,0.8075494362939613,0.028585861086772357,0.6742351079092384,0.3700244846064956,0.45806230444011126,0.6085528995251713
38.027,37.69,1.63,0.809771702605985,0.027849205342244623,0.6735471739218851,0.37178052185792654,0.45468269953991997,0.6067243104205758
38.048,37.75,1.56,0.8119485651301782,0.027134107196212814,0.6728547308774334,0.37348309328513685,0.4513198309283981,0.6048655311285214
38.11,37.8,1.51,0.8140793757628081,0.026440985039475867,0.6721586648095403,0.37513147775547345,0.4479766530624915,0.6029761880851829
38.152,37.86,1.49,0.816163519610894,0.025770239759172364,0.6714598614794133,0.37672498322104475,0.4446561162593364,0.6010559242696695
38.213,37.91,1.43,0.8182004152846551,0.02512225394734814,0.6707592054405384,0.37826294748529443,0.44136116382138046,0.5991043998698437
38.275,37.97,1.4,0.8201895151608634,0.02449739114168466,0.6700575791112666,0.37974473894312477,0.4380947291576596,0.5971212929269887
38.316,38.02,1.42,0.8221303056171188,0.02389599510106233,0.6693558618566203,0.3811697572929037,0.4348597329054184,0.5951062999580912
38.377,38.08,1.42,0.8240223072369451,0.023318389118372362,0.6686549290803241,0.3825374342187555,0.43165908005608755,0.5930591365545658
38.439,38.13,1.4,0.8258650749855152,0.02276487537271362,0.6679556513278013,0.38384723404155074,0.42849565708949056,0.5909795379563224
38.5,38.19,1.4,0.8276581983557927,0.022235734322865276,0.6672588934007182,0.385098654337015,0.4253723291200947,0.588867259600219
38.56,38.24,1.41,0.8294013014848849,0.021731224143724626,0.6665655134836106,0.3862912265194234,0.4222919370591463,0.5867220776420805
38.643,38.3,1.37,0.831094043240443,0.021251580207237417,0.6658763622831431,0.3874245163894113,0.4192572947965996,0.5845437894516229
38.663,38.35,1.34,0.832736117276987,0.02079701460920461,0.6651922821805956,0.38849812464454014,0.41627118640682076,0.5823322140797474
38.746,38.41,1.35,0.8343272520621251,0.0203677157431841,0.664514106398202,0.38951168735138997,0.4133363633821096,0.5800871926977642
38.767,38.46,1.3,0.8358672108727498,0.019963847922482705,0.6638426581800193,0.3904648763780697,0.4104555418981169,0.5778085890081659
38.808,38.52,1.24,0.8373557917614298,0.019585551050946864,0.6631787499880527,0.39135739978612605,0.4076314001152255,0.5754962896266134
38.869,38.57,1.21,0.8387928274933361,0.019232940342975943,0.6625231827144047,0.3921890021809279,0.4048665755199079,0.5731502044348128
38.93,38.63,1.17,0.8401781854541406,0.018906106092900343,0.6618767449102446,0.3929594650197034,0.40216366230995676,0.5707702669039894
38.992,38.68,1.09,0.8415117675294296,0.01860511349361409,0.661240212032417,0.39366860687649213,0.39952520882729214,0.5683564343886912
39.033,38.74,1.05,0.8427935099562507,0.018330002504136335,0.6606143457085091,0.39431628366340477,0.39695371504178567,0.5659086883907324
39.115,38.79,1.07,0.8440233831474464,0.01808078776562738,0.6599998930211672,0.3949023888077556,0.39445163008922446,0.5634270347931492
39.156,38.85,1.07,0.8452013914894149,0.017857458565287677,0.659397585812389,0.39542685338480443,0.392021349866197,0.5609115040641255
39.217,38.9,1.06,0.8463275731138884,0.017659978847519044,0.6588081400084272,0.39588964620598366,0.38966521468436327,0.5583621514309169
39.258,38.96,1.1,0.847401999644265,0.01748828727168122,0.6582322549658247,0.39629077386262784,0.38738550698634133,0.5557790570238416
39.32,39.01,1.09,0.8484247759170283,0.01734229731568517,0.6576706128390104,0.39663028072530804,0.38518444912534994,0.5531623259904271
39.38,39.07,1.08,0.8493960396788217,0.017221897424530716,0.6571238779698353,0.3969082488989296,0.3830642012107483,0.5505120885797993
39.421,39.12,1.09,0.8503159612597555,0.017126951202771686,0.656592696299395,0.39712479813379814,0.3810268590216775,0.5478285001973956
39.504,39.18,1.09,0.8511847432235383,0.017057297649763953,0.6560776948025046,0.3972800856928771,0.3790744519910809,0.5451117414300993
39.524,39.23,1.05,0.8520026199950904,0.0170127514364072,0.6555794809452579,0.39737430617545444,0.37720894126243465,0.5423620180419078
39.586,39.29,1.03,0.8527698574663584,0.016993103221960015,0.6550986421661805,0.3974076912974685,0.3754322178215397,0.539579560940342
39.646,39.34,1.01,0.8534867525811357,0.016998120009426146,0.6546357453815801,0.3973805096288308,0.3737461007057108,0.536764626113889
39.687,39.4,0.96,0.8541536328997386,0.017027545537998828,0.654191336515785,0.39729306628819683,0.37215233529262726,0.5339174945408728
39.749,39.45,0.91,0.8547708561443729,0.017081100711100358,0.6537659400570068,0.39714570259576754,0.370652591670976,0.5310384720702324
39.852,39.51,0.9,0.8553388097260027,0.017158484058590308,0.65336005863954,0.39693879568487034,0.3692484630948209,0.5281278892747109
39.933,39.56,0.87,0.8558579102534581,0.017259372231676305,0.6529741726529218,0.39667275807317764,0.3679414645233831,0.5251861012769393
39.954,39.62,0.87,0.8563286030254316,0.017383420528959408,0.6526087398785607,0.39634803719444633,0.36673303124761775,0.5222134875488377
39.996,39.67,0.9,0.8567513615058345,0.017530263451937676,0.6522641951541778,0.3959651148916477,0.36562451760467035,0.5192104516847039
40.038,39.73,0.91,0.8571266867828259,0.017699515288182185,0.6519409500662693,0.3955245068723102,0.36461719578104546,0.5161774211483076
40.101,39.78,0.9,0.8574551070117004,0.01789077072029668,0.6516393926707046,0.3950267621268622,0.3637122547051588,0.5131148469943076
40.164,39.84,0.92,0.8577371768417467,0.018103605458703726,0.6513598872415152,0.3944724623108084,0.3629107990298875,0.5100232035643542
40.205,39.89,0.93,0.8579734768271373,0.018337576896292444,0.6511027740479042,0.3938622210917344,0.3622138482057494,0.5069029881583027
40.246,39.95,0.91,0.8581646128218656,0.018592224783007896,0.650868369159476,0.3931966834623816,0.36162233564537966,0.5037547206810635
40.308,40.0,0.89,0.8583112153587091,0.018867071918535292,0.6506569642796239,0.3924765250213574,0.36113710798000154,0.5005789432656854
40.35,40.06,0.91,0.8584139390121802,0.019161624861284757,0.6504688266069117,0.3917024512233624,0.36075892440860036,0.4973762198733479
40.412,40.11,0.87,0.8584734617454337,0.019475374651875633,0.6503041987242203,0.39087519660100617,0.3604884561404898,0.49414713587095854
40.474,40.17,0.82,0.8584904842410749,0.019807797549282354,0.6501632985154031,0.38999552396031395,0.3603262859318876,0.4908922975870512
40.577,40.22,0.8,0.8584657292157591,0.02015835577777502,0.650046319109169,0.3890642235519853,0.36027290771701315,0.4876123318466408
40.597,40.28,0.76,0.8583999407183894,0.020526498282751365,0.6499534288498839,0.38808211222038813,0.3603287263340563,0.48430788548562576
40.639,40.33,0.7,0.8582938834116691,0.02091166149350467,0.6498847712949223,0.38705003253221637,0.36049405734612716,0.4809796248453088
40.7,40.39,0.72,0.8581483418367221,0.021313270090963815,0.6498404652380958,0.38596885188674934,0.3607691269569763,0.47762823524764736
40.761,40.44,0.74,0.8579641196604403,0.02173073777853101,0.6498206047585692,0.3848394616096438,0.3611540720209065,0.4742544204519573
40.823,40.5,0.74,0.8577420389051615,0.02216346805434486,0.6498252592945888,0.383662776032024,0.3616489401459356,0.470858902093945
40.864,40.55,0.75,0.8574829391602469,0.022610854983558207,0.6498544737413053,0.3824397315563888,0.3622536898889814,0.4674424191081247
40.947,40.61,0.8,0.85718767677517,0.02307228396944474,0.6499082685719232,0.38117128571068165,0.3629681910416634,0.46400572713484645
40.967,40.66,0.8,0.8568571240338457,0.023547132522266218,0.649986639981363,0.3798584161918171,0.36379222500525404,0.46054959791326944
41.008,40.72,0.8,0.8564921683100624,0.024034771024881597,0.6500895600515635,0.37850211989995086,0.36472548525331205,0.4570748186616569
41.07,40.77,0.84,0.8560937112039915,0.024534563494120018,0.6502169769375139,0.37710341196475966,0.3657675778805742,0.45358219144633694
41.132,40.83,0.85,0.8556626676598675,0.02504586833695255,0.6503688150731138,0.37566332476491665,0.36691802223674164,0.45007253254060026
41.214,40.88,0.82,0.8551999650650555,0.025568039100477447,0.6505449753960223,0.3741829069418149,0.3681762516438525,0.4465466717747443
41.235,40.94,0.82,0.8547065423308335,0.026100425214734175,0.6507453355907241,0.3726632224085217,0.369541614195976,0.4430054518784314
41.318,40.99,0.81,0.8541833489552993,0.02664237272743022,0.6509697503491114,0.3711053493549666,0.3710133736399862,0.4394497278164823
41.338,41.05,0.77,0.8536313440688542,0.027193225029782126,0.6512180516479359,0.3695103792504648,0.372590710336139,0.4358803661191916
41.399,41.1,0.73,0.8530514954627864,0.02775232357279091,0.6514900490424991,0.36787941584483697,0.37427272229707464,0.43229824420822854
41.459,41.16,0.76,0.8524447786015213,0.028319008573348157,0.6517855299759169,0.3662135741695721,0.37605842630369374,0.4287042497191405
41.52,41.21,0.77,0.8518121756191551,0.028892619709585798,0.6521042601032268,0.3645139795405792,0.37794675909612535,0.42509927982140044
41.562,41.27,0.78,0.8511546743008698,0.029472496804897455,0.6524459836295261,0.36278176656406397,0.37993657863775526,0.42148424053683387
41.625,41.32,0.84,0.8504732670497667,0.030057980500098596,0.6528104236612576,0.3610180781469724,0.38202666545008107,0.4178600460571654
41.688,41.38,0.85,0.8497689498396046,0.030648412913231657,0.6531972825697193,0.3592240645132852,0.38421572401605436,0.4142276180613391
41.75,41.43,0.85,0.8490427211539407,0.031243138286545583,0.6536062423659046,0.35740088222726035,0.3865023842495661,0.41058788503323834
41.811,41.49,0.88,0.8482955809122248,0.03184150362021146,0.6540369650858321,0.35554969322460217,0.38888520302880347,0.4069417815804386
41.831,41.54,0.91,0.8475285293834759,0.03244285929241953,0.654489093185619,0.35367166385247767,0.39136266579131335,0.40329024775464617
41.892,41.6,0.91,0.8467425660882635,0.03304655966563048,0.6549622499456931,0.3517679639192753,0.39393318818871487,0.3996342283745037
41.954,41.65,0.89,0.8459386886898468,0.033651963678894226,0.6554560398836909,0.3498397657549906,0.3965951177990991,0.39597467235146905
42.056,41.71,0.91,0.84511789187557,0.034258435426217176,0.6559700491757492,0.3478882432831059,0.3993467358952408,0.39231253201947064
42.077,41.76,0.87,0.8442811662299747,0.03486534472088595,0.656503846086054,0.34591457110475005,0.40218625926679835,0.38864876246900926
42.12,41.82,0.83,0.843429497101481,0.035472067645499365,0.6570569814046393,0.34391992359578666,0.40511184209466944,0.38498432088633
42.18,41.87,0.83,0.8425638634647694,0.03607798708730739,0.6576289888934926,0.34190547401732935,0.4081215778755778,0.38132016589823364
42.242,41.93,0.85,0.8416852367811052,0.03668249325833844,0.6582193857410467,0.3398723936400216,0.41121350139479923,0.3776572569230274
42.283,41.98,0.86,0.8407945798588493,0.03728498419970307,0.6588276730250682,0.33782185088228656,0.41438559074471043,0.37399655352806055
42.346,42.04,0.89,0.8398928457162935,0.03788486626941842,0.659453336183849,0.3357550104626908,0.4176357693866169,0.3703390147942403
42.428,42.09,0.94,0.838980976448856,0.038481554613110196,0.6600958454954827,0.33367303256657527,0.420961908253166,0.36668559868786843
42.49,42.15,0.94,0.8380599021025797,0.03907447361701356,0.6607546565649535,0.33157707202715136,0.42436182788860155,0.3630372614401085
42.511,42.2,0.95,0.8371305395558448,0.03966305734280047,0.66142921081875,0.3294682775214006,0.42783330062416836,0.35939495693440593
42.553,42.26,1.0,0.836193791411238,0.04024674994388345,0.6621189360066945,0.3273477907813613,0.43137405278608154,0.35575963610220657
42.614,42.31,0.99,0.83525054489955,0.04082500606295206,0.6628232467106383,0.3252167458216248,0.43498176693359764,0.3521322463273422
42.677,42.37,0.98,0.8343016707979152,0.04139729121060146,0.663541544859607,0.32307626818400925,0.43865408412482665,0.34851373085946297
42.718,42.42,1.01,0.8333480223640954,0.04196308212500874,0.664273220250936,0.3209274742004017,0.44238860620800907,0.3449050282369061
42.779,42.48,1.0,0.8323904342889132,0.042521867112650734,0.6650176510769299,0.3187714702746743,0.44618289813603607,0.341307071719386
42.841,42.53,0.96,0.8314297216688538,0.04307314637002243,0.665774204456598,0.3166093521844348,0.4500344903020095,0.33772078873089717
42.903,42.59,0.95,0.8304666790008471,0.04361643228625454,0.6665422369720311,0.3144422044032533,0.45394088089361384,0.3341471003132126
42.963,42.64,0.93,0.8295020792012107,0.04415124972649609,0.6673210952089796,0.31227109944393106,0.4578995382639894,0.3305869205903426
43.004,42.7,0.93,0.8285366726506703,0.0446771362959216,0.6681101163011942,0.3100970972233351,0.46190790331665876,0.3270411562442892
43.065,42.75,0.95,0.827571186267295,0.045193642584262554,0.6689086284780509,0.3079212444493467,0.46596339190185393,0.3235107060024226
43.127,42.81,1.01,0.826606322609065,0.045700332390819845,0.6697159516149157,0.3057445740305433,0.470063397221384,0.3199964601367906
43.168,42.86,1.02,0.8256427590076992,0.04619678292996348,0.6705313977856404,0.30356810450925276,0.474205292239018,0.316499299975664
43.21,42.92,1.04,0.8246811467352493,0.04668258501718467,0.671354271816541,0.3013928395185555,0.4783864320932868,0.313020097427622
43.272,42.97,1.11,0.8237221102048782,0.04715734323584123,0.6721838718411954,0.29921976726369093,0.4826041565096572,0.3095597145184767
43.334,43.03,1.12,0.8227662462071792,0.04762067608477198,0.673019489855408,0.2970498600281826,0.48685579220915076,0.30611900294130034
43.394,43.08,1.13,0.8218141231833574,0.0480722161069357,0.6738604122717202,0.2948840737048594,0.49113865531065104,0.30269880361976487
43.457,43.14,1.16,0.8208662805365644,0.048511609999210066,0.6747059204728798,0.29272334735187944,0.4954500537243268,0.2992999462849236
43.518,43.19,1.19,0.8199232279826201,0.048938518703524746,0.6755552913637455,0.2905686027738461,0.4997872895337864,0.29592324906548323
43.538,43.25,1.17,0.8189854449413104,0.04935261747958119,0.6764077979212131,0.2884207441280815,0.5041476613647468,0.2925695180915673
43.601,43.3,1.15,0.8180533799694332,0.04975359595951261,0.6772627097418779,0.2862806575561294,0.5085284667381347,0.2892395471119561
43.661,43.36,1.17,0.8171274502367402,0.050141158184924456,0.6781192935872588,0.28414921084059336,0.5129270044056239,0.2859341171247893
43.742,43.41,1.13,0.8162080410459063,0.050515022626819985,0.6789768139264849,0.2820272530874406,0.517340576665642,0.2826539960217059
43.803,43.47,1.13,0.815295505397535,0.050874922188982485,0.6798345334763352,0.2799156144339288,0.5217664916578374,0.27939993824540366
43.823,43.52,1.2,0.8143901636010469,0.05122060419545837,0.6806917137384451,0.27781510578234936,0.5262020656338904,0.27617268446058446
43.885,43.58,1.23,0.8134923029321073,0.05155183036281485,0.6815476155333954,0.2757265185597462,0.5306446252024354,0.27297296123822234
43.947,43.63,1.25,0.8126021773370908,0.0518683767578245,0.6824014995313578,0.2736506245036282,0.5350915095457767,0.26980148075303584
44.01,43.69,1.29,0.8117200071849217,0.05217003374120769,0.6832526267789781,0.2715881754735209,0.5395400726061123,0.26665894049398464
44.052,43.74,1.32,0.810845979066537,0.05245660589807165,0.6841002592222623,0.2695399032880586,0.5439876852391159,0.2635460229875565
44.093,43.8,1.33,0.8099802456421755,0.05272791195569008,0.6849436602253403,0.267506519587209,0.5484317373329403,0.26046339553358294
44.154,43.85,1.34,0.8091229255367528,0.05298378468927038,0.6857820950851233,0.265488715719183,0.55286963989092,0.25741170995336327
44.215,43.91,1.38,0.8082741032836693,0.053224070816358486,0.686614831541965,0.2634871626516207,0.5572988270764687,0.2543916023499373
44.255,43.96,1.37,0.8074338293174654,0.053448630880558,0.6874411402865177,0.26150251090669663,0.5617167582188447,0.25140369288042275
44.317,44.02,1.35,0.8066021200157284,0.05365733912531767,0.6882602954630074,0.2595353905198363,0.5661209197786056,0.24844858554038649
44.379,44.07,1.37,0.8057789577905676,0.053850083358620626,0.6890715751691414,0.2575864110217668,0.5705088272716875,0.2455268679602299
44.44,44.13,1.34,0.8049642912298663,0.054026764809429466,0.6898742619528552,0.2556561614435839,0.57487802715111,0.2426391112135319
44.501,44.18,1.3,0.8041580352883804,0.054187297976714344,0.6906676433060781,0.25374521034440356,0.5792260986453047,0.23978586963724402
44.541,44.24,1.33,0.8033600715285905,0.054331610471872516,0.6914510121556475,0.25185410586104123,0.5835506555520098,0.2369676806635902
44.623,44.29,1.36,0.8025702484109962,0.05445964285536146,0.6922236673514314,0.2499833757790411,0.5878493479865653,0.23418506466348193
44.644,44.35,1.38,0.801788381633366,0.054571348468381284,0.6929849141516516,0.24813352762427993,0.5921198640833224,0.23143852480124175
44.705,44.4,1.41,0.8010142545182889,0.054666693260457005,0.6937340647053366,0.24630504877434423,0.5963599316487936,0.22872854690043734
44.749,44.46,1.45,0.8002476184482761,0.05474565561378326,0.6944704385317713,0.24449840658895935,0.6005673197651773,0.22605559932065764
44.81,44.51,1.46,0.7994881933475819,0.054808226165210486,0.6951933629968107,0.24271404855882783,0.6047398403429897,0.22342013284510767
44.871,44.57,1.47,0.7987356682098591,0.0548544076267724,0.6959021737859183,0.24095240247228758,0.6088753496216975,0.2208225805789535
44.932,44.62,1.52,0.7979897016707332,0.05488421460565253,0.6965962153738183,0.2392138765992087,0.6129717496174256,0.21826335785838546
45.015,44.68,1.52,0.7972499226243909,0.05489767342441166,0.6972748414906527,0.23749885989148015,0.6170269895170021,0.2157428621703787
45.035,44.73,1.5,0.7965159308832841,0.05489482194217524,0.697937415584562,0.2358077221992924,0.6210390670177695,0.2132614730831312
45.077,44.79,1.51,0.7957872978800354,0.05487570937739284,0.6985833112806121,0.23414081450227886,0.6250060296127412,0.21081955218715118
45.138,44.84,1.51,0.7950635674105601,0.054840396132747896,0.6992119128360091,0.23249846915447528,0.6289259758208083,0.20841744304695423
45.2,44.9,1.48,0.794344256417388,0.05478895362278532,0.699822615591585,0.23088100014198443,0.632797056361774,0.20605547116334616
45.263,44.95,1.46,0.7936288558121344,0.054721464104797835,0.7004148264195474,0.2292887033522168,0.6366174752759916,0.2037339439463024
45.304,45.01,1.48,0.792916831336061,0.05463802051344927,0.700987964167491,0.22772185685361734,0.6403854909883329,0.2014531506984817
45.366,45.06,1.48,0.7922076244576233,0.054538726299510246,0.7015414600985916,0.22618072118485977,0.6440994173161104,0.19921336260942418
45.426,45.12,1.49,0.7915006533058114,0.054423695272980986,0.7020747583278181,0.2246655396525953,0.6477576244204438,0.19701483276048226
45.467,45.17,1.55,0.7907953136379722,0.05429305145078368,0.7025873162538256,0.22317653863696915,0.6513585397004545,0.19485779614050217
45.528,45.23,1.56,0.7900909798407217,0.05414692890907645,0.7030786049860837,0.22171392790418382,0.6549006486296326,0.19274246967222478
45.589,45.28,1.56,0.7893870059625288,0.05398547164007604,0.7035481097667035,0.22027790092539037,0.6583824955337669,0.19066905224933253
45.67,45.34,1.6,0.7886827267765356,0.05380883341312194,0.7039953303863906,0.2188686352011903,0.6618026843099549,0.18863772478403493
45.73,45.39,1.62,0.7879774588721882,0.053617177639589106,0.7044197815939641,0.21748629259103588,0.6651598790863631,0.18664865026505992
45.751,45.45,1.62,0.7872705017742885,0.05341067724114968,0.7048209934989595,0.21613101964679174,0.6684528048225651,0.18470197382591555
45.812,45.5,1.63,0.7865611390881463,0.05318951452080308,0.7051985119669423,0.214802947949701,0.6716802478504312,0.18279782282331536
45.853,45.56,1.65,0.7858486396695643,0.052953881036055694,0.7055518990072689,0.21350219445001406,0.6748410563556736,0.18093630692568868
45.914,45.61,1.63,0.7851322588184192,0.0527039774736378,0.7058807331531376,0.2122288618085516,0.6779341408002596,0.17911751821171176
45.975,45.67,1.61,0.78441123949457,0.052440013525186235,0.7061846098338208,0.21098303873949534,0.680958474285997,0.17734153127878974
46.016,45.72,1.63,0.783684813554769,0.052162207763358316,0.7064631417389731,0.20976480035373357,0.6839130928596335,0.1756084033613713
46.097,45.78,1.62,0.7829522030091722,0.05187078751782578,0.7067159591748602,0.20857420850209374,0.6867970957598212,0.17391817445889007
46.158,45.83,1.63,0.7822126212959454,0.0515659887505451,0.7069427104122746,0.20741131211778335,0.6896096456062518,0.1722708674730411
46.179,45.89,1.68,0.7814652745723115,0.05124805592965312,0.70714306202581,0.2062761475573882,0.6923499685312151,0.1706664883540377
46.24,45.94,1.71,0.7807093630202566,0.050917241901311625,0.7073166992241057,0.20516873893982812,0.6950173542538128,0.16910502625546692
46.301,46.0,1.71,0.7799440821650606,0.050573807758807626,0.7074633261706729,0.20408909848271237,0.6976111560971099,0.16758645369739278
46.383,46.05,1.72,0.7791686242048651,0.050218022708206654,0.7075826662949598,0.2030372268356064,0.7001307909486245,0.16611072673743357
46.403,46.11,1.77,0.778382179349582,0.049850163929883055,0.7076744625933773,0.20201311340984066,0.7025757391647303,0.16467778514963582
46.466,46.16,1.76,0.7775839371675185,0.049470516435338445,0.707738477920104,0.20101673670459605,0.7049455444197184,0.16328755261105835
46.528,46.22,1.75,0.7767730879380794,0.04907937291889198,0.7077744952675548,0.20004806462909344,0.7072398135004228,0.16193993689605785
46.59,46.27,1.78,0.7759488240088398,0.04867703360403519,0.7077823180364338,0.19910705482080587,0.7094582160474601,0.16063483007829593
46.633,46.33,1.76,0.7751103411552145,0.04826380608439314,0.7077617702952914,0.19819365495966654,0.7116004842442575,0.15937210874046928
46.694,46.38,1.72,0.7742568399408747,0.04784000515930945,0.7077126970294824,0.19730780307822846,0.7136664124551276,0.15815163419171913
46.757,46.44,1.72,0.77338752707696,0.04740595266413819,0.70763496437939,0.19644942786767366,0.7156558568136956,0.15697325269260304
46.839,46.49,1.7,0.7725016167779972,0.04696197729540879,0.7075284598677439,0.19561844897947875,0.7175687347629791,0.15583679568742523
46.86,46.55,1.67,0.7715983321123269,0.04650841443111345,0.7073930926158136,0.19481477732245117,0.7194050245483403,0.15474208004365755
46.901,46.6,1.69,0.7706769063447287,0.04604560594642833,0.707228793548181,0.1940383153548191,0.7211647646643968,0.15368890829816
46.963,46.66,1.74,0.7697365842688612,0.04557390002522609,0.7070355155857009,0.1932889573710813,0.7228480532568173,0.15267706890990296
47.023,46.71,1.74,0.768776623527052,0.045093650967773055,0.7068132338261762,0.19256658978334512,0.7244550474797999,0.1517063365188982
47.064,46.77,1.74,0.7677962959149054,0.044605218995058066,0.7065619457122065,0.19187109139690006,0.7259859628099796,0.15077647221107573
47.124,46.82,1.79,0.7667948886681447,0.044108970050252175,0.7062816711856181,0.191202333679778,0.7274410723175487,0.14988722378887614
47.185,46.88,1.79,0.7657717057291156,0.04360527559780518,0.7059724528278649,0.1905601810259794,0.7288207058954812,0.14903832604735184
47.248,46.93,1.79,0.7647260689904195,0.04309451242064823,0.705634355985798,0.1899444910119087,0.7301252494478733,0.14822950105558114
47.308,46.99,1.8,0.7636573195132029,0.042577062415943764,0.7052674688822143,0.18935511464547164,0.7313551440385397,0.147460458443199
47.348,47.04,1.81,0.762564818717696,0.042053312389815516,0.7048719027106203,0.18879189660724915,0.7325108850011285,0.14673089569183967
47.389,47.1,1.78,0.7614479495437069,0.041523653851491815,0.7044477917137035,0.18825467548314107,0.7335930210121162,0.14604049843130798
47.451,47.15,1.76,0.7603061175789062,0.04098848280731793,0.7039952932450405,0.18774328398790877,0.7346021531281214,0.1453889407403464
47.512,47.21,1.76,0.7591387521528628,0.040448199555136094,0.7035145878135868,0.18725754917915377,0.7355389337889967,0.14477588545192277
47.595,47.26,1.71,0.7579453073948943,0.03990320847960045,0.7030058791104914,0.18679729266140827,0.7364040657881445,0.14420098446301505
47.615,47.32,1.7,0.7567252632538567,0.039353917849070316,0.7024693940177155,0.1863623307801663,0.7371983012114096,0.14366387904891909
47.698,47.37,1.76,0.7554781264780329,0.03880073961476771,0.7019053825978356,0.18595247480584198,0.7379224403457603,0.14316420018213005
47.719,47.43,1.76,0.7542034315533241,0.03824408921282922,0.7013141180642614,0.18556753110774168,0.7385773305588095,0.1427015688558322
47.781,47.48,1.77,0.7529007415979704,0.03768438536976245,0.7006958967309621,0.18520730131816543,0.7391638651500835,0.14227559641198248
47.842,47.54,1.81,0.7515696492120385,0.03712204991169106,0.7000510379406955,0.18487158248676425,0.7396829821749106,0.14188588487390413
47.924,47.59,1.82,0.7502097772799633,0.03655750757766547,0.6993798839706897,0.18456016722529076,0.7401356632418559,0.14153202728324185
47.946,47.65,1.82,0.7488207797245413,0.03599118583721522,0.6986827999147943,0.18427284384288317,0.7405229322847591,0.14121360804111244
48.008,47.7,1.82,0.7474023422109749,0.03542351471221742,0.69796017354122,0.18400939647206319,0.7408458543105635,0.14093020325332895
48.048,47.76,1.85,0.7459541827997958,0.034854926603063954,0.6972124151251399,0.1837696051857122,0.7411055341242682,0.14068138107965208
48.11,47.81,1.83,0.7444760525477326,0.034285856119048934,0.6964399572555938,0.1835532461053786,0.7413031150324417,0.1404667020871069
48.172,47.87,1.8,0.7429677360557765,0.03371673991289292,0.6956432546163132,0.18336009150136356,0.7414397775268302,0.14028571960747038
48.214,47.92,1.81,0.7414290519638606,0.033148016519332225,0.6948227837402249,0.18318990988515663,0.7415167379496492,0.14013798009904932
48.297,47.98,1.78,0.7398598533917388,0.03258012619766055,0.6939790427374988,0.18304246609489921,0.741535247142181,0.14002302351282955
48.359,48.03,1.74,0.7382600283257812,0.032013510778007195,0.6931125509970646,0.18291752137462486,0.7414965890782623,0.13994038366301637
48.38,48.09,1.73,0.7366294999514937,0.03144861351100679,0.6922238488615304,0.1828148334480643,0.7414020794841573,0.13988958860191922
48.44,48.14,1.75,0.7349682269316172,0.030885878920366674,0.6913134972754152,0.18273415658777561,0.741253064446167,0.13987016099906438
48.502,48.2,1.75,0.7332762036297042,0.03032575265768485,0.690382077406604,0.18267524168025182,0.741050919007157,0.13988161852437755
48.542,48.25,1.77,0.7315534602791253,0.029768681358736223,0.689430190240934,0.1826378362875484,0.7407970457530116,0.139923474235267
48.604,48.31,1.8,0.7298000630975321,0.02921511250036412,0.6884584561498341,0.18262168470593013,0.74049287338992,0.13999523696744423
48.666,48.36,1.78,0.7280161143468822,0.028665494257124446,0.6874675144309916,0.1826265280220417,0.7401398553133722,0.1400964117293474
48.728,48.42,1.78,0.7262017523391997,0.028120275356945917,0.6864580228220675,0.18265210416716354,0.7397394681697856,0.14022650010007856
48.79,48.47,1.83,0.7243571513882955,0.027579904935248922,0.6854306569875305,0.18269814797019296,0.7392932104117598,0.14038500063080112
48.852,48.53,1.82,0.7224825217077692,0.027044832387106064,0.6843861099787147,0.18276439120998852,0.7388026008480395,0.14057140924954867
48.872,48.58,1.8,0.7205781092557169,0.026515507217094284,0.6833250916672764,0.1828505626675787,0.7382691771893308,0.14078521966937646
48.953,48.64,1.81,0.7186441955267044,0.025992378886494083,0.6822483281522923,0.18295638817853754,0.7376944945911841,0.1410259237997341
49.055,48.69,1.81,0.7166810972917105,0.025475896657441703,0.6811565611413473,0.18308159068563315,0.7370801241952244,0.14129301216085113
49.076,48.75,1.77,0.7146891662869274,0.02496650943353582,0.6800505473060786,0.18322589029171205,0.7364276516700521,0.14158597430085498
49.117,48.8,1.74,0.7126687888524593,0.024464665596310848,0.6789310576127474,0.18338900431275656,0.7357386757531269,0.141904299215296
49.178,48.86,1.74,0.7106203855220581,0.023970812836966296,0.677798876628487,0.18357064733111975,0.7350148067949112,0.14224747576872276
49.219,48.91,1.73,0.7085444105650254,0.02348539798281369,0.6766548018039379,0.18377053124900058,0.7342576653064296,0.1426149931179232
49.281,48.97,1.73,0.7064413514813198,0.023008866818044826,0.6754996427329908,0.18398836534223212,0.7334688805112536,0.1430063411364132
49.341,49.02,1.78,0.7043117284507618,0.022541663898571915,0.6743342203903478,0.18422385631441976,0.7326500889027452,0.1434210108396882
49.402,49.08,1.78,0.7021560937371565,0.022084232360745543,0.673159366347576,0.1844767083513871,0.7318029328072837,0.1438584948106486
49.422,49.13,1.78,0.6999750310481562,0.02163701372371422,0.6719759219683319,0.18474662317579152,0.7309290589541667,0.14431828762450813
49.504,49.19,1.81,0.6977691548517342,0.021200447685109782,0.670784737583456,0.18503330010172206,0.730030117052934,0.14479988627241455
49.566,49.24,1.82,0.6955391096502227,0.020774971909678645,0.6695866716467058,0.1853364360890934,0.7291077583789666,0.14530279058296422
49.607,49.3,1.8,0.6932855692129795,0.020361021810438428,0.6683825898720097,0.18565572579767467,0.7281636343683203,0.1458265036407878
49.668,49.35,1.77,0.6910092357688806,0.019959030321936504,0.6671733643532555,0.18599086164067563,0.7271993952228433,0.14637053220141896
49.771,49.41,1.78,0.6887108391600015,0.019569427665212143,0.6659598726677572,0.18634153383793609,0.7262166885267025,0.14693438710170753
49.792,49.46,1.75,0.6863911359579753,0.01919264110412785,0.6647429969646756,0.1867074304688622,0.7252171578754617,0.14751758366510762
49.812,49.52,1.71,0.6840509085446234,0.018829094692848495,0.6635236230397595,0.18708823752532602,0.7242024415188035,0.14811964210125597
49.873,49.57,1.73,0.6816909641584826,0.01847920901437125,0.6623026393978168,0.18748363896481923,0.7231741710178722,0.1487400878993214
49.955,49.63,1.69,0.6793121339088889,0.018143400910080928,0.6610809363043118,0.18789331676418672,0.7221339699180743,0.1493784522146125
49.976,49.68,1.67,0.6769152717592769,0.017822083200333294,0.6598594048274369,0.1883169509742434,0.721083452438015,0.15003427224788912
