Time_Host,Time_Arduino,easingdata,CH1_Oxy,CH1_Deoxy,CH2_Oxy,CH2_Deoxy,CH3_Oxy,CH3_Deoxy
0.105,0.04,0.0,0.4016039837024074,0.2311888059993786,0.49079056767129564,0.09009448308968866,0.8947272762750015,0.0
0.166,0.1,0.0,0.40678186103409036,0.22931407507679158,0.489191057654427,0.08793266725143291,0.8917889618531096,0.0057811677768105346
0.249,0.16,0.0,0.4119758507635278,0.22744578300481375,0.48757731663854376,0.08577630493196864,0.8888611547425551,0.011607147435561323
0.27,0.21,0.0,0.4171841394173284,0.22558474304999893,0.48594993546637855,0.08362638462810831,0.8859451027208235,0.01747649764577945
0.332,0.27,0.0,0.4224049004439822,0.22373176500162545,0.48430951702502467,0.08148389595736731,0.8830420437596085,0.02338775694087324
0.434,0.32,0.0,0.4276362953992804,0.22188765451149775,0.48265667566264403,0.07934982898318892,0.8801532047106593,0.02933944488504666
0.455,0.37,0.0,0.4328764751230593,0.22005321244121073,0.48099203657808465,0.07722517354502004,0.8772797999899117,0.035330063259046446
0.497,0.43,0.0,0.4381235809054854,0.21822923421769413,0.47931623518366906,0.07511091859390763,0.8744230302609249,0.04135809726369824
0.558,0.49,0.0,0.44337574564113497,0.21641650919785743,0.4776299164414772,0.07300805153426959,0.8715840811186805,0.047422016740140495
0.619,0.54,0.0,0.4486310949691546,0.2146158200431618,0.4759337341735211,0.07091755757247982,0.8687641217748291,0.05352027740561281
0.663,0.6,0.15,0.4538877483978142,0.21282794210495887,0.47422835034627586,0.06884041907289931,0.8659643037455098,0.05965132210359404
0.766,0.65,0.09,0.4591438204117492,0.21105364282148248,0.4725144343300941,0.06677761492199805,0.8631857595429296,0.06581358206700037
0.807,0.7,0.05,0.46439742156013714,0.20929368112750654,0.4707926621340978,0.06473011990127057,0.860429601372021,0.07200547819301414
0.827,0.76,0.12,0.4696466595239943,0.20754880687787108,0.4690637156172202,0.062698904069727,0.8576969198336912,0.07822542232791577
0.869,0.81,0.11,0.47488964016085145,0.20581976028623256,0.46732828167620766,0.06068493215677758,0.8549887826363913,0.0844718185600943
0.952,0.87,0.08,0.4801244685252953,0.20410727138043303,0.465587051411551,0.05868916296629504,0.8523062333178805,0.09074306451929369
0.993,0.93,0.07,0.4853492498641855,0.20241205947583768,0.4638407192724658,0.056712548792579115,0.8496502899791845,0.09703755268011148
1.074,0.98,0.13,0.4905620905856898,0.2007348326679255,0.4620899821821648,0.05475603484889182,0.8470219440328411,0.10335367166775956
1.094,1.03,0.05,0.49576109920162004,0.19907628734534502,0.4603355386447979,0.052820558709159283,0.8444221589676338,0.10968980756408765
1.156,1.09,-0.03,0.5009443872428629,0.1974371077245815,0.4585780878355629,0.05090704976335376,0.8418518691320798,0.11604434521185644
1.217,1.14,0.12,0.5061100701479609,0.19581796540731805,0.4568183286756135,0.04901642868699602,0.8393119785389977,0.12241566951522405
1.278,1.2,0.01,0.5112562681251387,0.19421951896150053,0.4550569588935135,0.04714960692516054,0.8368033596935006,0.12880216673439687
1.319,1.25,-0.06,0.5163811069882309,0.1926424135270522,0.45329467407509033,0.04530748619134158,0.834326852446752,0.13520222577240396
1.381,1.31,0.01,0.5214827189670109,0.19108728044716083,0.4515321667036189,0.043490957981553835,0.8318832628778215,0.1416142394519573
1.443,1.36,-0.03,0.526559243492387,0.18955473692603747,0.44977012519234527,0.04170090310404229,0.8294733622059813,0.14803660578034641
1.484,1.42,-0.05,0.5316088279568612,0.18804538571398038,0.4480092329114403,0.03993819122492889,0.8270978857357558,0.15446772920030977
1.546,1.47,-0.05,0.5366296284505613,0.1865598148204844,0.4462501672115248,0.03820368043006173,0.824757531836994,0.16090602182484443
1.608,1.53,0.01,0.5416198104730937,0.1850985972560405,0.44449359844594455,0.03649821680328373,0.8224529609622265,0.16734990465393093
1.67,1.58,-0.07,0.5465775496215295,0.1836622908031616,0.4427401889940228,0.034822634021281614,0.8201847947035833,0.17379780877116932
1.711,1.64,-0.13,0.5515010322549968,0.18225143781705386,0.4409905922875782,0.03317775296511183,0.8179536148915983,0.18024817651834232
1.772,1.7,-0.01,0.5563884561365676,0.180866565056249,0.43924545184305835,0.03156438134843948,0.8157599627382794,0.18669946264594667
1.833,1.75,-0.13,0.5612380310533392,0.17950818354341253,0.43750540030167473,0.029983313362474964,0.8136043380268534,0.19315013543777085
1.895,1.8,-0.22,0.5660479794157993,0.1781767884564557,0.4357710584799396,0.02843532933756925,0.8114871983505889,0.19959867780765955
1.916,1.86,-0.15,0.5708165368377007,0.17687285905000286,0.43404303443298275,0.026921195421433602,0.809408958403075,0.20604358836667336
1.978,1.91,-0.2,0.5755419526978398,0.17559685860713975,0.43232192253300894,0.025441663273932255,0.807369989322271,0.21248338245892823
2.042,1.97,-0.27,0.580222490685325,0.17434923442117717,0.4306083025652483,0.023997469778318962,0.8053706180905361,0.2189165931644992
2.083,2.02,-0.31,0.5848564293300457,0.17313041780695268,0.4289027388437296,0.02258933676867465,0.80341112699271,0.22534177226788454
2.146,2.08,-0.29,0.5894420625200822,0.17194082414101236,0.4272057793491691,0.021217970773173542,0.8014917531341871,0.23175749119062933
2.208,2.13,-0.36,0.5939777000077789,0.17078085292984221,0.425517954891228,0.019884062772662685,0.7996126880207857,0.2381623418868254
2.291,2.19,-0.42,0.5984616679061308,0.16965088790515,0.423839778297337,0.01858828797391001,0.7977740772020436,0.24455493770034767
2.312,2.25,-0.3,0.6028923091770676,0.16855129714502917,0.4221717436302021,0.017331305596776574,0.7959760199793962,0.2509339141828424
2.375,2.3,-0.41,0.6072679841131793,0.16748243321966189,0.4205143254360306,0.016113758674491992,0.7942185691805363,0.2572979298716277
2.416,2.35,-0.5,0.6115870708144604,0.1664446333600592,0.4188679780254153,0.014936273866171572,0.792501731001121,0.2636456670268097
2.477,2.41,-0.42,0.6158479656617148,0.16543821964821762,0.4172331347887157,0.013799461280726712,0.7908254649148755,0.26997583232704525
2.54,2.46,-0.47,0.620049083788365,0.16446349922697606,0.41561020754767536,0.012703914311352538,0.789189683653034,0.27628715752351024
2.664,2.52,-0.54,0.6241888595524906,0.1635207645277912,0.4139995859449232,0.01165020947980214,0.7875942532538923,0.2825784000517685
2.684,2.58,-0.55,0.6282657470108964,0.162610293514641,0.4124016368729069,0.010638906289687788,0.7860389931830726,0.2888483436013645
2.705,2.63,-0.54,0.6322782203969276,0.1617323499423027,0.4108167039437107,0.00967054708807714,0.7845236765249363,0.29509579864306046
2.746,2.68,-0.61,0.6362247746036908,0.16088718362727175,0.4092451070011382,0.008745656934650263,0.7830480302454123,0.30131960291372584
2.827,2.74,-0.67,0.6401039256742771,0.1600750307295973,0.407687141676374,0.007864743477666726,0.7816117355263135,0.3075186218590008
2.868,2.79,-0.59,0.643914211300468,0.15929611404393165,0.40614307898845126,0.007028296835982421,0.7802144281710152,0.3136917490339643
2.91,2.85,-0.7,0.6476541913312265,0.15855064329811275,0.40461316499065886,0.006236789486348367,0.7788556990811633,0.3198379064621315
3.012,2.9,-0.78,0.6513224482920584,0.1578388154576171,0.4030976204639076,0.005490676155225548,0.7775350948038567,0.32595604495319225
3.032,2.96,-0.64,0.6549175879160859,0.15716081503422835,0.40159664065794404,0.004790393714372365,0.7762521181485365,0.33204514437998595
3.073,3.02,-0.69,0.6584382396874969,0.1565168143972573,0.40011039508116064,0.0041363610794943675,0.7750062288725802,0.33810421391530865
3.133,3.07,-0.74,0.6618830573979002,0.15590697408565551,0.3986390273395885,0.0035289791112997192,0.7737968444343925,0.3441322922292783
3.194,3.12,-0.7,0.6652507197159723,0.155331443119439,0.39718265502548145,0.002968630518404892,0.7726233408126053,0.3501284476481104
3.257,3.18,-0.7,0.6685399307706961,0.15479035930893592,0.39574136965570933,0.0024556797616532805,0.771485053389902,0.3560917782752456
3.317,3.23,-0.75,0.6717494207484966,0.1542838495604282,0.39431523666002705,0.001990472959498884,0.7703812778998814,0.36202141207583083
3.378,3.29,-0.77,0.6748779465046182,0.1538120301767854,0.3929042954191425,0.001573337794184672,0.769311271435272,0.36791650692561895
3.418,3.35,-0.68,0.677924292189075,0.15337500715176064,0.3915085593523562,0.0012045834185379512,0.7682742535156808,0.37377625062540426
3.481,3.4,-0.76,0.680887269887441,0.15297287645671323,0.3901280160543989,0.0008845003632987732,0.7672694072129436,0.3795998608821569
3.543,3.45,-0.84,0.6837657202766372,0.1526057243186312,0.3887626274809652,0.0006133604449726741,0.7662958803320088,0.385386585258054
3.563,3.51,-0.69,0.6865585132957437,0.15227362748842418,0.38741233018234233,0.00039141667424206063,0.7653527866451783,0.3911357010886337
3.625,3.56,-0.76,0.6892645488317121,0.15197665349854486,0.3860770355844759,0.00021890316497386278,0.7644392071773981,0.39684651537132204
3.728,3.62,-0.82,0.6918827574196341,0.15171486090910302,0.38475663031674534,9.603504386140282e-05,0.7635541915401577,0.40251836462561885
3.748,3.67,-0.75,0.6944121009568869,0.1514882995417804,0.3834509765856004,2.3008360780702087e-05,0.7626967593114176,0.408150614726242
3.789,3.73,-0.75,0.6968515734301091,0.15129701070099216,0.38215991259307913,0.0,0.7618659014588899,0.41374266071050253
3.872,3.79,-0.76,0.6992002016537054,0.15114102738179802,0.38088325299909703,2.716759241941589e-05,0.7610605818038886,0.419293926561158
3.892,3.84,-0.77,0.7014570460184011,0.15102037446409342,0.3796207894262719,0.00010464942906267312,0.7602797385228725,0.42480386496598477
3.955,3.9,-0.66,0.703621201248254,0.1509350688926685,0.378372291005914,0.0002325643761171681,0.7595222856837295,0.43027195705533033
4.016,3.95,-0.71,0.7056917971644788,0.15088511984281316,0.37713750496370163,0.0004110117918912762,0.7587871148138186,0.4356977121189144
4.14,4.0,-0.77,0.7076679994544169,0.1508705288712455,0.37591615724348115,0.0006400714461065947,0.7580730964967649,0.4410806673031576
4.161,4.06,-0.6,0.7095490104440019,0.15089129005223714,0.3747079531675707,0.0009198034419701963,0.757379081995014,0.44642038729030054
4.181,4.12,-0.66,0.7113340698721189,0.15094739009888308,0.3735125781319214,0.0012502481414806978,0.7567039048951623,0.4517164639605491
4.243,4.17,-0.69,0.7130224556653002,0.15103880846954182,0.3723296983344538,0.0016314260944384586,0.7560463827730928,0.4569685160384596
4.284,4.22,-0.6,0.7146134847112103,0.15116551745957724,0.3711589615348494,0.0020633379716726553,0.7554053188759632,0.46217618872473964
4.345,4.28,-0.61,0.7161065136293857,0.15132748227863502,0.3699999978440519,0.0025459645030255335,0.7547795038181503,0.46733915331456954
4.408,4.33,-0.64,0.7175009395377463,0.151524661113734,0.36885242054175343,0.0030792664206122076,0.7541677172882943,0.47245710680346453
4.469,4.39,-0.67,0.7187962008134468,0.15175700517846316,0.3677158269201532,0.0036631844078388104,0.7535687297646118,0.4775297714816394
4.53,4.45,-0.56,0.7199917778466525,0.15202445874858508,0.36658979915228107,0.004297639054645913,0.7529813042356548,0.4825568945178012
4.592,4.5,-0.61,0.721087193785822,0.15232695918433234,0.36547390518316214,0.004982530819433598,0.7524041979236933,0.48753824753328634
4.613,4.55,-0.66,0.7220820152730583,0.15266443693965767,0.3643676996420803,0.0057177399981145575,0.7518361640078606,0.4924736261674711
4.675,4.61,-0.47,0.7229758531680524,0.1530368155586733,0.36327072477416317,0.006503126700732399,0.7512759533442024,0.49736284963539923
4.737,4.66,-0.53,0.7237683632591565,0.15344401165949068,0.36218251138949364,0.007338530836063929,0.7507223161797917,0.5022057602785818
4.8,4.72,-0.57,0.7244592469601782,0.1538859349056773,0.36110257982793303,0.008223772104616337,0.7501740038581178,0.5070022231099428
4.861,4.78,-0.46,0.7250482519915505,0.15436248796561547,0.3600304409378175,0.009158650000451896,0.7496297705130635,0.5117521253538874
4.902,4.83,-0.46,0.7255351730446233,0.15487356646013545,0.3589655970666954,0.010142943822283135,0.7490883747489027,0.5164553759824383
4.944,4.88,-0.47,0.7259198524279478,0.1554190588988719,0.3579075430623173,0.011176412694243958,0.7485485813038826,0.5211119052483513
5.008,4.94,-0.48,0.7262021806945375,0.15599884660586433,0.3568557672821405,0.01225879559668435,0.7480091626950502,0.5257216642160896
5.068,5.0,-0.4,0.7263820972491672,0.15661280363500663,0.3558097526096744,0.013389811407285835,0.7474689008421115,0.5302846242915129
5.109,5.05,-0.47,0.7264595909348798,0.15726079667600168,0.35476897747605857,0.014569158952743346,0.7469265886682134,0.534800776751094
5.253,5.11,-0.53,0.726434700597957,0.15794268495150282,0.3537329168853272,0.015796517071213916,0.7463810316756353,0.5392701322714455
5.274,5.16,-0.37,0.7263075156306619,0.1586583201061442,0.35270104344185566,0.017071544685704137,0.745831049494428,0.5436927204598991
5.294,5.21,-0.44,0.7260781764910539,0.1594075460881685,0.35167282837851077,0.01839388088854313,0.7452754774020842,0.548068589386859
5.335,5.27,-0.5,0.7257468751991091,0.16019019902437256,0.3506477425840378,0.01976314503707391,0.7447131678123262,0.5523978051206185
5.397,5.33,-0.41,0.725313855808205,0.16100610708912408,0.34962525762820207,0.021178936860706037,0.7441429917311392,0.5566804512652903
5.439,5.38,-0.42,0.7247794148508385,0.16185509036822093,0.34860484678319387,0.022640836579472967,0.743563840178236,0.5609166285023872
5.501,5.43,-0.42,0.7241439017572734,0.16273696071833943,0.3475859860397991,0.024148405034212433,0.7429746255721832,0.5651064541365023
5.582,5.49,-0.42,0.7234077192456736,0.1636515216227903,0.34656815511682143,0.025701183828473827,0.7423742830774663,0.5692500616454618
5.603,5.54,-0.33,0.7225713236822138,0.16459856804430634,0.3455508384622183,0.027298695482272577,0.7417617719118336,0.573347600235283
5.664,5.6,-0.38,0.721635225409717,0.16557788627559297,0.3445335262444158,0.028940443597837134,0.7411360766123659,0.5773992344002266
5.726,5.66,-0.43,0.7205999890435105,0.16658925378837935,0.3435157153322789,0.030625913037519433,0.7404962082588281,0.581405143488204
5.788,5.71,-0.26,0.7194662337333521,0.16763243908170652,0.3424969102622385,0.03235457011405374,0.7398412056529874,0.5853655212717578
5.869,5.76,-0.34,0.7182346333904434,0.16870720153018393,0.3414766241911135,0.034125862793336195,0.7391701364527012,0.5892805755247941
5.889,5.82,-0.41,0.7169059168786481,0.1698132912329619,0.3404543798332091,0.03593922090988136,0.7384820982596959,0.5931505276052286
5.931,5.87,-0.31,0.715480868169049,0.17095044886424027,0.33942971038030884,0.03779405639511764,0.7377762196600725,0.5969756120436737
5.993,5.93,-0.36,0.7139603264569663,0.1721184055262188,0.33840216040323967,0.0396897635186778,0.7370516612167096,0.6007560761382443
6.054,5.99,-0.38,0.7123451862405206,0.17331688260543895,0.3373712867337617,0.04162571914279902,0.7363076164128141,0.6044921795555365
6.115,6.04,-0.39,0.7106363973597498,0.17454559163348468,0.3363366593255855,0.04360128298990362,0.7355433125459109,0.6081841939378181
6.176,6.09,-0.32,0.7088349649951919,0.1758042341530133,0.3352978620933453,0.04561579792340706,0.7347580115716076,0.6118324025164672
6.217,6.15,-0.38,0.7069419496247877,0.17709250159005344,0.3342544937283859,0.04766859024177689,0.7339510108964895,0.6154370997316485
6.32,6.2,-0.39,0.7049584669379061,0.17841007513344415,0.33320616849024165,0.04975896998584609,0.733121644119533,0.6189985908581778
6.34,6.26,-0.23,0.7028856877052619,0.17975662562222303,0.33215251697269954,0.05188623125937225,0.732269281721478,0.6225171916374557
6.382,6.32,-0.32,0.7007248376034982,0.1811318134417066,0.33109318684335703,0.054049652562819406,0.7313933317016863,0.6259932279152753
6.444,6.37,-0.39,0.698477196993263,0.18253528842896777,0.33002784355560627,0.056248497140333954,0.7304932401621357,0.62942703528526
6.504,6.42,-0.28,0.6961441006497254,0.1839666897884128,0.32895617103200775,0.058482013339902286,0.7295684918383655,0.6328189587376288
6.545,6.48,-0.3,0.6937269374446533,0.18542564601814293,0.3278778723180714,0.06074943498667477,0.7286186105773342,0.636169352312957
6.606,6.54,-0.34,0.6912271499794159,0.18691177484772026,0.3267926702055379,0.063049981769398,0.7276431597622529,0.6394785787606057
6.667,6.59,-0.33,0.6886462341684659,0.18842468318788613,0.32570030782431375,0.0653828596398527,0.7266417426845228,0.6427470092015238
6.728,6.64,-0.29,0.6859857387729976,0.18996396709272548,0.32460054920226206,0.06774726122516864,0.7256140028629874,0.6459750227951352
6.769,6.7,-0.35,0.6832472648845953,0.19152921173471626,0.32349317979211445,0.07014236625286206,0.7245596243108021,0.649163006410009
6.829,6.75,-0.41,0.6804324653587862,0.19311999139304722,0.32237800696482855,0.0725673419884156,0.7234783317502932,0.6523113542980066
6.871,6.81,-0.34,0.6775430441984466,0.19473586945554297,0.3212548604687642,0.07502134368520261,0.7223698907762498,0.6554204677715729
6.932,6.87,-0.43,0.6745807558870032,0.19637639843449084,0.3201235928540912,0.07750351504653803,0.7212341079681114,0.6584907548838413
6.995,6.92,-0.5,0.67154740467128,0.19804111999663246,0.3189840798618583,0.08001298869963384,0.7200708309515095,0.6615226301112179
7.037,6.97,-0.39,0.6684448437936971,0.19972956500757513,0.31783622077715884,0.0825488866812551,0.7188799484095593,0.664516514038137
7.162,7.03,-0.41,0.6652749746733765,0.20144125359085374,0.31667993874584455,0.08511032093486774,0.7176613900442369,0.6674728330436881
7.183,7.08,-0.43,0.6620397460356481,0.2031756952018016,0.3155151810542815,0.08769639381901387,0.7164151264881026,0.6703920189898546
7.225,7.14,-0.42,0.6587411529894207,0.20493238871631148,0.3143419193716779,0.09030619862657772,0.7151411691666196,0.6732745089111275
7.267,7.2,-0.37,0.6553812360519635,0.2067108225345059,0.3131601499545682,0.0929388201145406,0.7138395701113902,0.6761207447052814
7.329,7.25,-0.41,0.6519620801208348,0.20851047469926492,0.31196989381311957,0.09559333504374606,0.7125104217247208,0.6789311728251097
7.412,7.3,-0.45,0.6484858133929479,0.2103308130294973,0.31077119683902255,0.09826881272812864,0.7111538564960305,0.6817062439709527
7.452,7.36,-0.3,0.644954606231015,0.2121712952679869,0.30956412989482324,0.10096431559280777,0.7097700466707103,0.6844464127838782
7.472,7.41,-0.39,0.6413706699778499,0.21403136924359745,0.3083487888646424,0.10367889974041342,0.7083592038721388,0.6871521375394035
7.534,7.47,-0.47,0.6377362557192129,0.2159104730475735,0.30712529466629784,0.1064116155249968,0.7069215786776504,0.6898238798416736
7.595,7.53,-0.36,0.6340536529960304,0.21780803522366152,0.305893793224903,0.10916150813289399,0.7054574601493647,0.6924621043180205
7.656,7.58,-0.4,0.6303251884669581,0.21972347497175612,0.3046544554080866,0.11192761816991122,0.7039671753208856,0.6950672783138311
7.697,7.63,-0.46,0.6265532245223641,0.22165620236473493,0.30340747692305864,0.11470898225417565,0.70245108864093,0.6976398715876649
7.82,7.69,-0.46,0.6227401578508279,0.2236056185781192,0.3021530781758107,0.11750463361398329,0.7009096013749891,0.7001803560065926
7.839,7.75,-0.43,0.6188884179591873,0.22557111613218947,0.3008915040927721,0.12031360268997897,0.6993431509661441,0.7026892052417377
7.859,7.8,-0.48,0.6150004656470882,0.22755207914615475,0.29962302390529194,0.12313491774097811,0.6977522103561747,0.7051668944640178
7.922,7.86,-0.52,0.6110787914369196,0.2295478836039067,0.298347930897361,0.12596760545268185,0.6961372872680895,0.7076139000401048
7.983,7.91,-0.37,0.6071259139599267,0.2315578976307982,0.2970665421170246,0.12881069154846386,0.694498923451177,0.7100306992286552
8.025,7.96,-0.45,0.6031443782992901,0.23358148178077712,0.2957791980519782,0.13166320140133358,0.692837693889695,0.7124177698768761
8.086,8.02,-0.53,0.5991367542909994,0.2356179893331175,0.29448626226987773,0.13452416064612904,0.6911542059763526,0.7147755901174999
8.149,8.08,-0.41,0.5951056347834818,0.2376667665979496,0.2931881210239425,0.13739259579098187,0.6894490986518319,0.7171046380662282
8.21,8.13,-0.45,0.5910536338571467,0.2397271532297717,0.2918851828244911,0.14026753482710383,0.6877230415116965,0.7194053915196779
8.25,8.19,-0.49,0.5869833850052357,0.2417984825481182,0.2905778779771221,0.14314800783596032,0.6859767338821013,0.7216783276538709
8.312,8.24,-0.48,0.5828975392775457,0.24388008186458596,0.28926665808828345,0.14603304759295418,0.6842109038657774,0.7239239227233168
8.374,8.3,-0.45,0.5787987633887339,0.24597127281547368,0.2879519955389969,0.14892169016682705,0.6824263073598301,0.7261426517607583
8.436,8.35,-0.51,0.574689737793088,0.24807137169930926,0.2866343829275379,0.15181297551404208,0.6806237270469608,0.7283349882776561
8.519,8.41,-0.56,0.5705731547278172,0.2501796898185373,0.28531433248193677,0.15470594806742294,0.6788039713617599,0.7305014039655349
8.54,8.46,-0.44,0.566451716227073,0.2522955338246312,0.2839923754432375,0.1575996573183139,0.6769678734337518,0.7326423683983642
8.601,8.52,-0.55,0.5623281321090173,0.2544182060658778,0.2826690614205354,0.16049315839149542,0.6751162900088806,0.7347583487361841
8.642,8.57,-0.65,0.558205117938318,0.2565470049370733,0.2813449577188847,0.16338551261206274,0.6732501003511334,0.7368498094302331
8.725,8.63,-0.55,0.5540853929664298,0.25868122523038944,0.28002064864122345,0.1662757880634675,0.6713702051259874,0.7389172119298477
8.745,8.68,-0.58,0.5499716780519553,0.26082015848668677,0.2786967347655153,0.1691630601359239,0.6694775252673596,0.7409610143914018
8.806,8.74,-0.62,0.5458666935632466,0.26296309334658047,0.2773738321983388,0.1720464120643939,0.6675730008296727,0.7429816713895658
8.888,8.79,-0.62,0.5417731572651828,0.265109315900629,0.27605257180614,0.17492493545542562,0.6656575898265896,0.7449796336311539
8.909,8.85,-0.58,0.5376937821918213,0.26725811003810435,0.2747335984253321,0.1777977308022012,0.6637322670579501,0.7469553476717995
8.97,8.9,-0.63,0.5336312745064999,0.26940875779386186,0.27341757005241024,0.18066390798720094,0.661798022926452,0.7489092556356648
9.031,8.96,-0.67,0.5295883313509964,0.27156053969285804,0.2721051570152671,0.18352258677191272,0.6598558622456241,0.7508417949383916
9.072,9.01,-0.54,0.5255676386854815,0.27371273509188787,0.27079704112691994,0.1863728972730309,0.6579068030406633,0.7527533980135298
9.132,9.07,-0.64,0.5215718691212264,0.2758646225181255,0.2694939148229026,0.1892139804245872,0.6559518753437181,0.7546444920427006
9.194,9.12,-0.72,0.5176036797482877,0.2780154800040537,0.2681964802836205,0.1920449884254597,0.6539921199852373,0.7565154986897682
9.256,9.18,-0.6,0.5136657099606639,0.280164585418374,0.266905448543005,0.19486508517172157,0.6520285873830344,0.7583668338392955
9.338,9.23,-0.64,0.5097605792816599,0.2823112167925012,0.26562153858484927,0.19767344667331588,0.6500623363307598,0.7601989073395429
9.358,9.29,-0.68,0.505890885192368,0.2844546526422727,0.2643454764282437,0.20046926145457025,0.6480944327874673,0.7620121227502776
9.4,9.34,-0.68,0.5020592009662068,0.2865941722845893,0.26307799420353284,0.20325173093812607,0.6461259486699662,0.7638068770956501
9.463,9.4,-0.68,0.498268073512413,0.28872905614882133,0.2618198292202135,0.20602006981193174,0.6441579606496726,0.7655835606223715
9.526,9.45,-0.76,0.4945200212313358,0.2908585860828941,0.2605717230282003,0.208773506378995,0.6421915489556965,0.7673425565633953
9.628,9.51,-0.81,0.4908175318843212,0.292982045654004,0.2593344204738893,0.21151128288962234,0.6402277961858834,0.769084240907312
9.649,9.56,-0.71,0.4871630604808775,0.2950987204439347,0.2581086687524334,0.21423265585591472,0.6382677861274602,0.7708089821737059
9.71,9.62,-0.8,0.48355902718568927,0.2972078983389382,0.2568952164576119,0.2169368963483337,0.636312602588847,0.7725171411947465
9.731,9.67,-0.88,0.48000781524791,0.2993088698141226,0.25569481263064286,0.21962329027419095,0.634363328244079,0.7742090709033118
9.793,9.73,-0.74,0.4765117689550324,0.3014009282122703,0.2545082058092549,0.2222911386379489,0.6324210434911935,0.7758851161279596
9.854,9.78,-0.78,0.4730731916135761,0.3034833700169826,0.2533361430783314,0.2249397577832306,0.6304868253258723,0.7775456133950674
9.895,9.84,-0.84,0.46969434355883366,0.30555549512003577,0.25217936912344935,0.22756847961644247,0.6285617462315634,0.7791908907384917
10.017,9.89,-0.82,0.4663774401959039,0.3076166070828842,0.2510386252886179,0.2301766518119537,0.6266468730872917,0.780821267517105
10.038,9.95,-0.79,0.46312465007425657,0.30966601339233174,0.2499146486395093,0.23276363799883779,0.6247432660943808,0.782437054240557
10.08,10.0,-0.85,0.45993809299813343,0.31170302571046155,0.24880817103347283,0.2353288179292234,0.6228519777233343,0.7840385524035728
10.142,10.06,-0.9,0.45681983817515376,0.31372696011898454,0.2477199181976284,0.2378715876283455,0.6209740516821166,0.7856260543291118
10.202,10.11,-0.8,0.45377190240551957,0.3157371373582589,0.24665060881631884,0.24039135952645002,0.6191105219070471,0.7871998430207184
10.223,10.16,-0.9,0.4507962483142325,0.3177328830613025,0.24560095362919138,0.2428875625727592,0.6172624115774915,0.7887601920244017
10.285,10.22,-1.0,0.4478947826287545,0.3197135279831608,0.24457165454116353,0.24535964233175256,0.6154307321554734,0.7903073653003926
10.389,10.28,-0.87,0.4450693545045538,0.32167840822600446,0.24356340374551183,0.24780706106206116,0.6136164824512679,0.7918416171051377
10.41,10.33,-0.95,0.4423217539009681,0.3236268654603177,0.24257688286130355,0.2502292977783075,0.6118206477159559,0.793363191883898
10.451,10.39,-1.02,0.4396537100097358,0.32555824714253045,0.24161276208635885,0.25262584829625245,0.6100441987618016,0.7948723241743508
10.514,10.44,-0.99,0.43706688973832797,0.32747190672948334,0.24067169936686242,0.25499622526166615,0.6082880911111922,0.7963692385216055
10.577,10.5,-0.98,0.4345628962499344,0.3293672038901497,0.23975433958466108,0.2573399581633876,0.6065532641747862,0.797854149405021
10.639,10.55,-1.01,0.4321432675617075,0.3312435047150178,0.23886131376321737,0.25965659333105556,0.6048406404594016,0.7993272611771757
10.722,10.61,-1.05,0.4298094752026514,0.3331001819234761,0.23799323829312352,0.2619456939179844,0.603151124806068,0.8007887680153162
10.742,10.66,-0.95,0.42756292293237025,0.33493661506948547,0.23715071417801137,0.26420683986965954,0.6014856036585812,0.8022388538855927
10.803,10.72,-1.03,0.42540494552179997,0.3367521907457747,0.23633432630163767,0.26643962787832337,0.5998449443628452,0.8036776925203559
10.844,10.77,-1.12,0.42333680759704756,0.3385463027867668,0.2355446427168807,0.2686436713241172,0.5982299944972536,0.805105447408773
10.905,10.83,-0.96,0.4213597025475201,0.34031835247042436,0.23478221395734994,0.2708186002032524,0.5966415812343251,0.8065222718010142
10.989,10.88,-1.02,0.4194747514996154,0.34206774871919016,0.23404757237229007,0.2729640610436877,0.5950805107337714,0.807928308726259
11.01,10.94,-1.08,0.4176830023573074,0.34379390830018713,0.23334123148543195,0.27507971680880194,0.5935475675671116,0.8093236910247965
11.093,10.99,-1.03,0.4159854289109222,0.34549625602486633,0.23266368537837886,0.277165246789596,0.5920435141739049,0.8107085413944962
11.114,11.05,-1.04,0.41438293001534604,0.34717422494830585,0.2320154080990437,0.2792203464860045,0.5905690903496641,0.8120829724518868
11.156,11.1,-1.09,0.4128763288388765,0.3488272565683472,0.2313968530956014,0.28124472747792056,0.5891250127654922,0.8134470868080318
11.217,11.16,-1.14,0.41146637218386695,0.3504548010247382,0.23080845267637698,0.2832381172865386,0.5877119745194375,0.8148009771593469
11.279,11.21,-1.06,0.41015372988015875,0.35205631729849285,0.23025061749603418,0.28520025922665404,0.5863306447194944,0.8161447263934684
11.32,11.27,-1.14,0.4089389942520702,0.35363127341172235,0.22972373606835744,0.28713091225058324,0.5849816680980859,0.8174784077102586
11.381,11.32,-1.19,0.40782267965946445,0.3551791466282154,0.2292281743058322,0.28902985078438,0.5836656646577426,0.8188020847580163
11.464,11.38,-1.03,0.40680522211316644,0.35669942365502905,0.2287642750861312,0.29089686455701547,0.5823832293475745,0.8201158117849542
11.505,11.43,-1.08,0.40588697896481307,0.35819160084529644,0.2283323578455385,0.2927317584231484,0.581134931770039,0.8214196338059787
11.546,11.49,-1.13,0.4050682286710743,0.3596551844023972,0.22793271819928407,0.2945343521800606,0.5799213159174488,0.8227135867847982
11.63,11.54,-1.06,0.40434917063205666,0.3610896905856239,0.2275656275887031,0.29630448037930956,0.5787428999376767,0.8239976978313486
11.692,11.6,-1.06,0.40372992510365213,0.36249464591746866,0.22723133295509582,0.2980419921336263,0.577600175928571,0.825271985414472
11.713,11.65,-1.09,0.4032105331836489,0.3638695873926028,0.22693005644015435,0.2997467509195392,0.5764936097606452,0.826536459589706
11.776,11.71,-1.13,0.4027909568714929,0.36521406268856316,0.226661995112807,0.3014186343761766,0.5754236409276253,0.8277911222420014
11.817,11.76,-1.03,0.4024710792016012,0.3665276303781348,0.22642732072229282,0.30305753410070424,0.5743906824244657,0.8290359673431291
11.878,11.82,-1.11,0.40225070445011224,0.3678098601433993,0.22622617947723003,0.304663355440878,0.5733951206524376,0.8302709812234955
11.94,11.87,-1.21,0.4021295584149304,0.36906033299137464,0.22605869185039174,0.30623601728521344,0.5724373153508876,0.8314961428580305
12.001,11.93,-1.05,0.4021072887688758,0.37027864147111644,0.22592495240885785,0.30777545185127797,0.5715175995552174,0.8327114241657833
12.062,11.98,-1.14,0.4021834654856977,0.3714643898920755,0.22582502966918647,0.309281604472597,0.5706362795805837,0.8339167903228291
12.103,12.04,-1.2,0.4023575813385829,0.3726171945434525,0.2257589659772287,0.31075443338462544,0.5697936350307294,0.8351122000880873
12.185,12.09,-1.14,0.4026290524705509,0.373736683914276,0.22572677741216798,0.3121939095102191,0.5689899188312784,0.8362976061416352
12.206,12.15,-1.14,0.40299721903586266,0.37482249891391806,0.2257284537143291,0.3136000162450097,0.5682253572867648,0.8374729554350592
12.267,12.2,-1.17,0.4034613459113424,0.37587429309269604,0.22576395823627093,0.31497274924304597,0.567500150160599,0.8386381895533248
12.328,12.26,-1.15,0.4040206234763253,0.37689173286213445,0.2258332279166412,0.3163121162030324,0.5668144707770931,0.8397932450876294
12.39,12.31,-1.05,0.40467416845976395,0.3778744977144372,0.22593617327622248,0.317618136655507,0.5661684661446325,0.8409380540186815
12.451,12.37,-1.13,0.4054210248529082,0.37882228044074784,0.22607267843557188,0.3188908417512867,0.565562257099072,0.8420725441098287
12.493,12.42,-1.21,0.40626016488590627,0.37973478734782473,0.22624260115365213,0.32013027405147515,0.5649959384664831,0.8431966393094251
12.555,12.48,-1.05,0.40719049006665875,0.3806117384728236,0.22644577288687032,0.3213364873192766,0.5644695792444218,0.8443102601617982
12.615,12.53,-1.12,0.40821083228029575,0.3814528677959126,0.22668199886796792,0.32250954631380147,0.563983222800932,0.8454133242261505
12.678,12.59,-1.16,0.40931995494769574,0.38225792345045356,0.22695105820423295,0.3236495265860039,0.5635368870904771,0.8465057465027553
12.699,12.64,-1.09,0.4105165542414626,0.3830266679305114,0.22725270399451175,0.32475651427687163,0.5631305648859762,0.8475874398658446
12.782,12.7,-1.09,0.41179926035776676,0.3837588782954722,0.22758666346451847,0.3258306059179715,0.56276422402614,0.8486583155025945
12.803,12.75,-1.13,0.4131666388424731,0.38445434637154396,0.22795263811998334,0.32687190823440054,0.562437807677311,0.8497182833576168
12.865,12.81,-1.17,0.4146171919699583,0.38511287894989643,0.22835030391721248,0.327880537950141,0.5621512346090306,0.8507672525823567
12.989,12.86,-1.08,0.41614936017290793,0.3857342979812282,0.2287793114506315,0.3288566215958238,0.5619043994825658,0.8518051319887796
13.009,12.91,-1.16,0.41776152352123785,0.38631844076656213,0.22923928615685576,0.3298002953189195,0.5616971731516214,0.8528318305067043
13.05,12.97,-1.24,0.41945200324809795,0.38686516014406364,0.22972982853479254,0.3307117046963926,0.5615294029744301,0.8538472576441171
13.091,13.03,-1.08,0.4212190633207376,0.38737432467163785,0.23025051438124772,0.3315910045498405,0.5614009131363498,0.8548513239497856
13.132,13.08,-1.14,0.42306091205383606,0.3878458188050062,0.2308008950414928,0.33243835876310196,0.5613115049820374,0.8558439414774793
13.214,13.14,-1.17,0.4249757037627424,0.38827954307092716,0.23138049767423588,0.33325394010227877,0.5612609573561974,0.8568250242511195
13.296,13.19,-1.09,0.4269615404539274,0.3886754142352489,0.23198882553041225,0.3340379300381236,0.5612490269518702,0.8577944887302034
13.316,13.25,-1.07,0.4290164735499227,0.38903336546550804,0.2326253582451944,0.33479051857075875,0.5612754486652591,0.8587522542748418
13.356,13.3,-1.09,0.43113850564614864,0.38935334648776676,0.23328955214265543,0.33551190405665915,0.5613399359561485,0.8596982436097269
13.417,13.36,-1.11,0.43332559229721246,0.38963532373733284,0.23398084055256355,0.33620229303779264,0.5614421812130325,0.8606323832863475
13.479,13.41,-1.0,0.43557564383040387,0.3898792805029888,0.2346986341388234,0.3368619000727994,0.5615818561221657,0.8615546041427664
13.542,13.47,-1.07,0.4378865271842369,0.39008521706434746,0.2354423212391222,0.33749094757008025,0.5617586120398445,0.8624648417602607
13.582,13.52,-1.14,0.44025606776999904,0.3902531508219249,0.2362112682153837,0.33808966562265386,0.5619720803673065,0.8633630369161263
13.665,13.58,-0.99,0.44268205135438654,0.390383116419483,0.23700481981467317,0.33865829184462964,0.562221872927716,0.8642491360319273
13.685,13.63,-1.06,0.44516222596142935,0.39047516585812375,0.23782229954024814,0.3391970712091292,0.5625075823447445,0.8651230916164644
13.745,13.69,-1.11,0.44769430379197717,0.3905293686015658,0.23866301003247983,0.33970625588749637,0.5628287824222754,0.8659848627027302
13.806,13.74,-1.05,0.45027596315896234,0.3905458116720299,0.23952623345937327,0.34018610508966324,0.5631850285247699,0.8668344152781055
13.868,13.8,-1.06,0.4529048504365489,0.39052459973617737,0.2404112319164234,0.3406368849055307,0.5635758579578556,0.8676717227070203
13.909,13.85,-1.1,0.4555785820212102,0.39046585518051213,0.24131724783559103,0.3410588681471262,0.5640007903487083,0.8684967661452745
13.971,13.91,-1.12,0.45829474630269906,0.3903697181756231,0.24224350440322717,0.3414523341911716,0.5644593280257886,0.8693095349451947
14.034,13.96,-1.01,0.46105090564278417,0.3902363467286333,0.24318920598678825,0.34181756882162667,0.5649509563974908,0.8701100270508161
14.076,14.02,-1.07,0.46384459835958186,0.39006591672323165,0.2441535385701698,0.3421548640717827,0.5654751443292577,0.8708982493822865
14.138,14.07,-1.16,0.46667334071534344,0.38985862194666465,0.24513567019747187,0.3424645180655065,0.5660313445187127,0.8716742182087273
14.198,14.13,-0.98,0.4695346289056634,0.389614674103069,0.24613475142501015,0.34274683485726964,0.5666189938683839,0.8724379595088128
14.259,14.18,-1.04,0.4724259410482396,0.38933430281252995,0.24714991578142503,0.3430021242705984,0.5672375138556208,0.873189509318371
14.32,14.24,-1.09,0.4753447391694704,0.3890177555952686,0.24818028023577943,0.34323070173458664,0.5678863108993198,0.8739289140643736
14.402,14.29,-1.02,0.4782884711872655,0.38866529784042775,0.24922494567356385,0.3434328881181465,0.5685647767231121,0.8746562308847373
14.422,14.35,-0.98,0.48125457288853807,0.38827721275898386,0.25028299738054627,0.34360900956171747,0.5692722887147362,0.8753715279333734
14.463,14.4,-1.02,0.484240469899983,0.3878538013203163,0.2513535055344476,0.3437593973061665,0.5700082102813961,0.8760748846699163
14.524,14.46,-1.06,0.48724357965086784,0.3873953821719656,0.2524355257044599,0.3438843875186074,0.5707718912009602,0.8767663921335734
14.565,14.51,-0.96,0.49026131332660117,0.38690229154214917,0.25352809935863885,0.3439843211149042,0.5715626679689378,0.8774461532005193
14.626,14.57,-1.05,0.4932910778118401,0.3863748831246536,0.2546302543792038,0.34405954357865676,0.5723798641412319,0.8781142828242495
14.687,14.62,-1.14,0.49633027762187515,0.38581352794573687,0.25574100558576135,0.3441104047765073,0.5732227906726973,0.8787709082582931
14.749,14.68,-0.97,0.49937631682099093,0.3852186142126707,0.25685935526645226,0.3441372587696438,0.574090746251544,0.8794161692606887
14.789,14.73,-1.01,0.502426600926477,0.38459054714352575,0.2579842937170105,0.3441404636213875,0.5749830176295873,0.8800502182796411
14.851,14.79,-1.05,0.5054785387969488,0.38392974877778635,0.2591147997877191,0.3441203812007572,0.5758988799483172,0.88067322061983
14.893,14.84,-0.99,0.5085295445036107,0.3832366577674249,0.26024984143822405,0.3440773769819139,0.5768375970607544,0.8812853545888831
14.954,14.9,-0.98,0.5115770391831346,0.3825117291481292,0.26138837630015294,0.34401181983940654,0.5777984218491252,0.8818868116235384
15.016,14.95,-1.0,0.5146184528709358,0.3817554340904356,0.26252935224749785,0.3439240818391352,0.5787805965384689,0.882477796395025
15.058,15.01,-1.02,0.5176512263137283,0.3809682596306263,0.2636717079747361,0.34381453802496365,0.5797833530063591,0.8830585268932275
15.139,15.06,-0.9,0.5206728127602784,0.38015070838142256,0.2648143735826643,0.3436835662009675,0.5808059130889842,0.8836292344892267
15.2,15.12,-0.98,0.5236806797293115,0.37930329822265985,0.26595627117193177,0.3435315467093637,0.5818474888839029,0.8841901639758409
15.241,15.17,-1.07,0.5266723107536084,0.37842656197222696,0.2670963154442723,0.3433588622041952,0.5829072830498524,0.8847415735857995
15.282,15.23,-0.92,0.5296452070994343,0.37752104703759704,0.2682334143114633,0.34316589742086623,0.5839844891040584,0.8852837349871817
15.364,15.28,-0.98,0.5325968894605603,0.37658731504829035,0.2693664695120887,0.34295303894160983,0.5850782917175336,0.8858169332557493
15.406,15.34,-1.05,0.5355248996262282,0.3756259414696144,0.2704943772362182,0.3427206749569616,0.5861878670088554,0.8863414668238441
15.508,15.39,-1.01,0.5384268021223865,0.37463751519806665,0.2716160287581106,0.34246919502333995,0.5873123828368986,0.8868576474055564
15.529,15.45,-0.99,0.5413001858254697,0.3736226381388265,0.2727303110770272,0.34219898981686114,0.5884509990930006,0.8873657998978942
15.569,15.5,-1.03,0.5441426655479562,0.37258192476576846,0.2738361075662313,0.3419104508835232,0.5896028679930192,0.8878662622576998
15.631,15.56,-1.04,0.5469518835949021,0.37151600166442084,0.27493229863022844,0.3416039703858962,0.5907671343696973,0.8883593853541092
15.693,15.61,-0.9,0.5497255112906223,0.3704255070583205,0.27601776237027437,0.3412799408464944,0.5919429359657247,0.8888455327963971
15.754,15.66,-0.98,0.5524612504747355,0.36931109031923254,0.2770913752581448,0.34093875488804576,0.5931294037278833,0.8893250807370906
15.876,15.72,-1.06,0.5551568349669131,0.3681734114617143,0.2781520128181618,0.3405808049708921,0.5943256621027012,0.889798417650263
15.897,15.78,-0.92,0.5578100319998693,0.36701314062250817,0.27919855031749224,0.34020648312775487,0.5955308293341178,0.890265944084937
15.917,15.83,-0.94,0.560418643620373,0.3658309575252429,0.2802298634647758,0.3398161806960929,0.5967440177637254,0.8907280723935372
15.938,15.89,-1.0,0.562980508058288,0.36462755093091737,0.28124482911716436,0.3394102880482788,0.5979643341341938,0.8911852264353896
15.998,15.94,-0.97,0.5654935010637969,0.36340361807467975,0.2822423259958282,0.3389891943198763,0.5991908798965064,0.8916378412552994
16.059,16.0,-0.97,0.5679555372130443,0.3621598640894728,0.2832212354099363,0.33855328713638666,0.6004227515216823,0.8920863627372474
16.12,16.05,-1.02,0.5703645711825346,0.3608970014171566,0.2841804419890902,0.33810295233889814,0.6016590408177019,0.8925312472332163
16.162,16.1,-1.09,0.5727185989926716,0.359615749207761,0.2851188344241646,0.33763857370915307,0.602898835252342,0.8929729611671868
16.244,16.16,-0.98,0.5750156592208159,0.3583168327075881,0.2860353062164787,0.3371605326946226,0.6041412182825785,0.8934119806143753
16.285,16.21,-1.08,0.5772538341841931,0.3570009826369411,0.28692875643518956,0.33666920813424545,0.6053852696911337,0.893848790855829
16.348,16.27,-1.17,0.5794312510929068,0.35566893455830934,0.28779809048277,0.336164975985528,0.6066300659306286,0.8942838859085298
16.389,16.32,-1.03,0.581546083173199,0.35432142823587476,0.28864222086840224,0.3356482090537296,0.607874680475683,0.8947177680311867
16.45,16.38,-1.07,0.5835965507609754,0.3529592069872385,0.2894600679890984,0.3351192767238653,0.6091181841831848,0.8951509472059248
16.491,16.43,-1.13,0.5855809223654678,0.3515830170282887,0.29025056091832446,0.33457854469625775,0.6103596456608157,0.8955839405961274
16.594,16.49,-1.1,0.5874975157027201,0.3501936068122007,0.2910126382018414,0.33402637472640184,0.6115981316438224,0.8960172719807409
16.614,16.55,-1.07,0.5893446986984459,0.34879172636365885,0.29174524866041257,0.3334631243699502,0.6128327073799622,0.8964514711653893
16.655,16.6,-1.12,0.5911208904597838,0.3473781266094689,0.29244735219899887,0.33288914673363706,0.6140624370225032,0.8968870733706846
16.737,16.66,-1.14,0.5928245622155437,0.345953558706802,0.29311792062205827,0.3323047902329702,0.6152863840310886,0.897324618598208
16.779,16.71,-1.0,0.5944542382246174,0.34451877337039216,0.2937559384545597,0.3317103983575362,0.6165036115802142,0.8977646509747129
16.839,16.76,-1.09,0.5960084966523429,0.34307452020006873,0.29436040376832084,0.33110630944477676,0.6177131829750115,0.8982077180751666
16.879,16.82,-1.15,0.5974859704147341,0.341621547010034,0.29493032901327665,0.3304928564630967,0.6189141620740065,0.8986543702252833
16.961,16.87,-1.02,0.5988853479906014,0.34016059916132346,0.29546474185328536,0.32987036680515786,0.6201056137185087,0.8991051597842182
17.002,16.93,-1.05,0.6002053742016915,0.3386924188989008,0.29596268600609366,0.3292391620922003,0.6212866041682897,0.8995606404081039
17.043,16.98,-1.11,0.6014448509610342,0.337217744694872,0.2964232220870926,0.32859955799021484,0.6224562015431758,0.9000213662951354
17.125,17.04,-1.11,0.6026026379896177,0.33573731059938555,0.29684542845646344,0.3279518640388105,0.6236134762701449,0.9004878914129354
17.166,17.09,-1.08,0.60367765350138,0.3342518456008822,0.2972284020692596,0.3272963834936552,0.6247575015354915,0.9009607687089383
17.229,17.15,-1.14,0.6046688748563835,0.33276207299740657,0.29757125932793477,0.32663341318337047,0.625887353741574,0.9014405493045496
17.313,17.2,-1.18,0.605575339181927,0.3312687097806859,0.29787313693679685,0.3259632433817319,0.6270021129675492,0.9019277816739172
17.334,17.26,-1.04,0.6063961439612091,0.3297724660346503,0.2981331927578392,0.3252861576959795,0.6281008634333803,0.9024230108082337
17.396,17.32,-1.12,0.6071304475890128,0.3282740443500196,0.2983506066673664,0.32460243297198843,0.6291826939662684,0.9029267773665777
17.437,17.37,-1.19,0.6077774698937298,0.32677413925652743,0.2985245814127902,0.3239123392170018,0.6302466984685506,0.9034396168143624
17.499,17.42,-1.06,0.6083364926249101,0.325273436674329,0.29865434346892306,0.32321613954060957,0.6312919763860431,0.9039620585505019
17.56,17.48,-1.08,0.608806859905474,0.323772613386113,0.29873914389306516,0.3225140901146387,0.6323176331757613,0.9044946250244205
17.62,17.53,-1.1,0.6091879786477422,0.3222723365314208,0.2987782591781603,0.32180644015260235,0.6333227807718984,0.9050378308440737
17.703,17.59,-1.08,0.6094793189324619,0.32077326312468896,0.2987709921032561,0.3210934319093701,0.6343065380489059,0.9055921818761876
17.723,17.64,-1.01,0.6096804143500492,0.31927603959855433,0.29871667258045603,0.3203753007017634,0.6352680312805122,0.9061581743399295
17.765,17.7,-1.05,0.6097908623033933,0.31778130137392735,0.29861465849753743,0.31965227495077214,0.6362063945935388,0.9067362938952302
17.826,17.75,-1.08,0.6098103242717335,0.3162896724582584,0.29846433655540866,0.31892457624605136,0.6371207704153776,0.907327014726996
17.867,17.81,-0.93,0.609738526035277,0.31480176507332935,0.2982651230995931,0.3181924194332965,0.6380103099140215,0.9079307986264702
17.93,17.86,-1.01,0.6095752578603534,0.3133181793138045,0.2980164649449325,0.3174560127250365,0.6388741734295584,0.9085480940710208
17.992,17.92,-1.08,0.6093203746449756,0.3118395028376985,0.29771784019270503,0.316715557835338,0.6397115308960741,0.9091793353036383
18.076,17.98,-0.97,0.6089737960246847,0.3103663105898654,0.2973687590393431,0.3159712501388812,0.6405215622529353,0.909824941413417
18.095,18.03,-0.99,0.6085355064385574,0.3088991645595438,0.2969687645759469,0.31522327885481344,0.6413034578444533,0.9104853154182938
18.156,18.08,-1.03,0.608005555155249,0.30743861357288155,0.2965174335778018,0.31447182725570655,0.642056418806897,0.9111608433513334
18.196,18.14,-0.99,0.6073840562588696,0.30598519312124656,0.2960143772830888,0.3137170729018734,0.6427796574417872,0.9118518933518863
18.258,18.19,-0.92,0.6066711885943702,0.30453942522602534,0.29545924215993385,0.3129591879012355,0.6434723975743736,0.9125588147629743
18.322,18.25,-0.96,0.6058671956720194,0.30310181834048183,0.2948517106609144,0.312198339194858,0.6441338748961959,0.9132819372362564
18.363,18.3,-0.98,0.6049723855305049,0.30167286728910087,0.29419150196412674,0.31143468886815723,0.6447633372906364,0.9140215698459285
18.445,18.36,-0.8,0.6039871305581849,0.30025305324468876,0.29347837269989757,0.31066839448767336,0.6453600451404204,0.914778000212904
18.486,18.41,-0.87,0.602911867272076,0.29884284374336145,0.2927121176622234,0.30989960946318124,0.6459232716160939,0.9155514936406257
18.55,18.47,-0.93,0.6017470960542389,0.29744269273745494,0.2918925705040164,0.3091284834348038,0.6464523029445927,0.9163422922638672
18.613,18.52,-0.8,0.6004933808453109,0.2960530406863452,0.29101960441524527,0.3083551626847077,0.6469464386571586,0.9171506142118878
18.674,18.58,-0.83,0.5991513487950777,0.2946743146851101,0.2900931327830972,0.3075797905728725,0.6474049918159748,0.9179766527872997
18.695,18.64,-0.84,0.5977216898701782,0.2933069286308509,0.28911310983334193,0.3068025079963121,0.6478272892189944,0.9188205756620224
18.757,18.69,-0.83,0.5962051564192062,0.2919512834263664,0.2880795312521147,0.3060234538710369,0.6482126715824857,0.9196825240917598
18.798,18.75,-0.74,0.594602562695609,0.29060776722076087,0.28699243478733255,0.3052427656360339,0.6485604937008934,0.9205626121504557
18.859,18.8,-0.81,0.5929147843389294,0.2892767556864606,0.2858519008289543,0.30446057977856583,0.6488701245836923,0.9214609259861972
18.922,18.85,-0.87,0.591142757815064,0.2879586123320018,0.2846580529672806,0.3036770323801375,0.6491409475689904,0.9223775231000104
18.963,18.91,-0.7,0.5892874798162836,0.2866536888498588,0.283411058528483,0.3028922596824917,0.6493723604137228,0.9233124316489318
19.044,18.96,-0.78,0.5873500066217853,0.2853623254984877,0.2821111290865649,0.30210639867296574,0.6495637753603353,0.9242656497746844
19.086,19.02,-0.83,0.5853314534194696,0.28408485151769425,0.2807585209509617,0.3013195876884867,0.6497146191799027,0.9252371449592313
19.168,19.07,-0.72,0.5832329935895004,0.2828215855763898,0.27935353562898135,0.3005319670374552,0.6498243331916648,0.9262268534084135
19.189,19.13,-0.72,0.5810558579500865,0.2815728362517361,0.27789652026228834,0.29974367963871534,0.6498923732590303,0.927234679464781
19.251,19.18,-0.73,0.5788013339658961,0.28033890253854254,0.27638786803665705,0.29895487167672924,0.6499182097621622,0.9282604950506204
19.314,19.24,-0.72,0.5764707649195606,0.27912007438763714,0.27482801856422717,0.2981656932719953,0.6499013275473261,0.929304139142101
19.354,19.3,-0.64,0.5740655490468239,0.27791663327180816,0.2732174582375092,0.2973762991656814,0.6498412258532951,0.9303654172753725
19.417,19.35,-0.7,0.5715871386360811,0.2767288527778005,0.2715567205544355,0.29658684941736474,0.6497374182152388,0.9314441010853756
19.479,19.41,-0.77,0.5690370390932843,0.2755569992227437,0.2698463864138243,0.29579751011466215,0.649589432346647,0.932539927878055
19.54,19.46,-0.6,0.5664168079733971,0.2744013322933006,0.2680870843807026,0.29500845409342835,0.6493968099999506,0.9336526002366233
19.601,19.51,-0.68,0.5637280539797518,0.2732621057057623,0.26627949092101144,0.29421986166709924,0.6491591068065854,0.9347817856624837
19.644,19.57,-0.77,0.56097243593275,0.2721395678852934,0.264424330605279,0.29343192136368557,0.6488758920973007,0.9359271162514116
19.703,19.62,-0.68,0.558151661709343,0.27103396266258184,0.2625223762808801,0.2926448306688972,0.6485467487035812,0.9370881884055585
19.745,19.68,-0.69,0.5552674871547111,0.2699455299861876,0.2605744492125409,0.29185879677385856,0.6481712727411137,0.9382645625817962
19.806,19.73,-0.72,0.5523217149675936,0.26887450664885876,0.25858141919079053,0.2910740373258183,0.6477490733762529,0.9394557630768796
19.846,19.79,-0.75,0.5493161935607384,0.2678211270260061,0.25654420460809607,0.29029078118019236,0.6472797725764275,0.9406612778499038
19.908,19.84,-0.67,0.5462528158979155,0.2667856238244496,0.25446377250243035,0.28950926915223374,0.6467630048454367,0.9418805583825083
19.969,19.9,-0.74,0.5431335183089073,0.26576822883945406,0.2523411385680378,0.28872975476657753,0.646198416944595,0.9431130195772297
20.01,19.95,-0.81,0.5399602792838222,0.2647691737179766,0.2501773671331752,0.28795250500285535,0.6455856676007039,0.9443580396943527
20.07,20.01,-0.62,0.5367351182480041,0.2637886907259662,0.2479735711046085,0.28717780103553353,0.6449244272018304,0.9456149603275442
20.132,20.07,-0.69,0.5334600943187557,0.2628270135174913,0.24573091187866064,0.2864059389660741,0.6442143774818822,0.9468830864185103
20.175,20.12,-0.74,0.5301373050450484,0.2618843779034557,0.24345059921861806,0.28563723054548845,0.6434552111949843,0.9481616863108767
20.277,20.17,-0.66,0.5267688851313728,0.2609610226177277,0.2411338910983121,0.28487200388535855,0.6426466317807523,0.9494499918434218
20.296,20.23,-0.66,0.5233570051469264,0.26005719007858513,0.2387820935117185,0.28411060415542544,0.6417883530216714,0.950747198482687
20.357,20.28,-0.7,0.5199038702214878,0.25917312714340934,0.2363965602484714,0.28335339426583267,0.6408800986939098,0.9520524654948933
20.418,20.34,-0.71,0.516411718729467,0.25830908585457746,0.23397869263524082,0.2826007555321051,0.6399216022129888,0.9533649161570379
20.479,20.39,-0.62,0.5128828209637102,0.25746532417455115,0.23152993924295603,0.28185308832096945,0.6389126062757935,0.9546836380069817
20.541,20.45,-0.7,0.5093194778006709,0.2566421067082184,0.22905179555988459,0.2811108126751564,0.6378528625004931,0.956007683132303
20.581,20.5,-0.78,0.5057240193585539,0.25583970541060563,0.2265458036305982,0.28037436891535694,0.6367421310659874,0.9573360684976293
20.643,20.56,-0.63,0.50209880365,0.25505840027813637,0.22401355166085288,0.2796442182175499,0.6355801803525577,0.9586677763101082
20.685,20.61,-0.7,0.49844621523079513,0.25429848002167066,0.22145667358839768,0.2789208431639686,0.6343667865854387,0.9600017544226237
20.726,20.67,-0.79,0.4947686638459476,0.2535602427196254,0.21887684861969414,0.2782047482660444,0.6331017334830356,0.961336916774327
20.788,20.73,-0.74,0.4910685830742311,0.2528439964495785,0.21627580073246616,0.2774964604577691,0.6317848119115219,0.9626721438680078
20.85,20.78,-0.73,0.48734842897202874,0.2521500598968532,0.21365529814394393,0.27679652955801803,0.6304158195475635,0.964006283283734
20.892,20.83,-0.76,0.48361067871709246,0.251478762938623,0.21101715274463628,0.2761055287004286,0.6289945605509064,0.9653381502281221
20.953,20.89,-0.79,0.4798578292526331,0.25083044720210457,0.20836321949744235,0.2754240547294675,0.6275208452485176,0.9666665281185359
21.016,20.94,-0.68,0.4760923959319588,0.25020546659547405,0.20569539580188118,0.27475272856138067,0.6259944898319576,0.9679901692014485
21.079,21.0,-0.76,0.47231691116376084,0.24960418781021762,0.20301562082318442,0.27409219550879527,0.6244153160696846,0.9693077952041447
21.119,21.05,-0.86,0.4685339230581114,0.2490269907937048,0.20032587478597305,0.27344312556782296,0.6227831510360231,0.9706180980188859
21.18,21.11,-0.75,0.464745994073268,0.24847426919084864,0.19762817823223383,0.2728062136666042,0.6210978268585825,0.9719197404185947
21.22,21.16,-0.82,0.4609556996634648,0.24794643075379638,0.19492459124332678,0.2721821798743102,0.6193591804859229,0.9732113568031046
21.281,21.22,-0.89,0.4571656269279103,0.24744389771869646,0.19221721262578315,0.2715717695697032,0.6175670534772335,0.9744915539750351
21.383,21.27,-0.88,0.45337837326115493,0.24696710714875067,0.18950817906064604,0.2709757535684712,0.6157212918157201,0.9757589119444333
21.404,21.33,-0.87,0.4495965450048957,0.24651651124292978,0.18679966421609873,0.27039492820868505,0.613821745747322,0.9770119847613777
21.445,21.39,-0.94,0.44582275610125494,0.24609257760983416,0.18409387782314263,0.26983011539381835,0.6118682696463009,0.9782493013758174
21.508,21.44,-1.0,0.44205962674756694,0.2456957895062377,0.18139306471411296,0.26928216259284476,0.6098607219091287,0.9794693665239796
21.549,21.5,-0.89,0.43830978205266985,0.2453266460399001,0.17869950382384228,0.26875194279701276,0.607798964877987,0.980670661640744
21.611,21.55,-1.01,0.43457585069462223,0.2449856623362839,0.17601550715330455,0.26824035443296995,0.605682864795072,0.9818516457974361
21.671,21.6,-1.1,0.4308604635796378,0.24467336966886158,0.17334341869559028,0.2677483212319823,0.6035122917887625,0.9830107566645548
21.733,21.66,-0.99,0.42716625250186624,0.24439031555274987,0.17068561332407386,0.26727679205505733,0.6012871198925875,0.9841464114989923
21.795,21.71,-1.03,0.42349584880348135,0.24413706380144776,0.16804449564265148,0.2668267406738376,0.599007227097793,0.9852570081553422
21.875,21.77,-1.09,0.41985188203435897,0.24391419454649557,0.16542249879792645,0.2663991655071794,0.5966724954401476,0.9863409261209392
21.896,21.82,-1.08,0.41623697861040587,0.24372230421997346,0.1628220832531856,0.26599508931342564,0.5942828111214828,0.9873965275743253
21.938,21.88,-1.03,0.4126537604694315,0.2435620054998851,0.1602457355239583,0.2656155588384907,0.5918380646663695,0.9884221584668791
22.0,21.93,-1.09,0.40910484372341854,0.24343392721856752,0.1576959668749379,0.2652616444199621,0.5893381511142552,0.9894161496273784
22.104,21.99,-1.15,0.40559283730613344,0.24333871423431086,0.15517531197805295,0.2649344395474735,0.5867829702473247,0.9903768178893188
22.125,22.05,-1.02,0.4021203416151434,0.24327702726639314,0.1526863275315017,0.26463506037964085,0.5841724268542738,0.9913024672408418
22.166,22.1,-1.12,0.39868994714745637,0.24324954269373852,0.1502315908395986,0.2643646452178797,0.5815064310301319,0.9921913899971544
22.227,22.16,-1.21,0.3953042331281149,0.24325695231741262,0.1478136983533231,0.26412435393744665,0.5787848985121877,0.9930418679953237
22.309,22.21,-1.14,0.39196576613115836,0.24329996308719534,0.14543526417149746,0.2639153673760919,0.5760077510520075,0.9938521738113402
22.329,22.26,-1.17,0.388677098692469,0.2433792967924761,0.14309891850259293,0.26373888668072254,0.5731749168234433,0.9946205719993313
22.392,22.32,-1.2,0.38544076791413673,0.2434956897176757,0.14080730608723385,0.2635961326124659,0.5702863308663954,0.9953453203528267
22.513,22.37,-1.22,0.38225929406003717,0.2436498922623675,0.13856308458152053,0.263488344810525,0.5673419355659395,0.9960246711880012
22.533,22.43,-1.17,0.37913517914232214,0.24384266852625774,0.1363689229013273,0.26341678101523947,0.5643416811663069,0.9966568726487998
22.554,22.48,-1.25,0.37607090549852956,0.2440747958591526,0.13422749952779042,0.263382716250775,0.5612855263190967,0.9972401700337956
22.596,22.54,-1.31,0.37306893435902133,0.24434706437599465,0.13214150077426184,0.2633874419678636,0.5581734386650047,0.9977728071445535
22.658,22.59,-1.14,0.3701317044044586,0.24466027643699956,0.1301136190150638,0.263432265147015,0.5550053954482428,0.9982530276552102
22.721,22.65,-1.23,0.36726163031306625,0.24501524609287859,0.12814655087643687,0.2635185073626142,0.5517813841627176,0.9986790765029298
22.781,22.7,-1.3,0.36446110129752246,0.24541279849512307,0.12624299539013462,0.2636475038083277,0.5485014032289339,0.9990492012988598
22.842,22.76,-1.21,0.3617324796314425,0.24585376927135738,0.12440565211017265,0.2638206022842768,0.5451654627005393,0.9993616537591559
22.884,22.82,-1.23,0.3590780991656411,0.24633900386579022,0.12263721919333591,0.2640391621464607,0.541773584999406,0.9996146911555559
22.946,22.87,-1.26,0.3565002638346654,0.2468693568447511,0.12094039144417355,0.26430455321889434,0.5383258056780983,0.9998065777849114
23.008,22.92,-1.28,0.3540012461543873,0.24744569116724213,0.11931785832533316,0.2646181546689158,0.5348221742085255,0.9999355864570154
23.05,22.98,-1.2,0.3515832857117161,0.24806887742039635,0.11777230193419587,0.26498135384613924,0.5312627547955302,1.0
23.113,23.03,-1.29,0.3492485876477459,0.24873979301971302,0.11630639494689943,0.26539554508554297,0.5276476272141417,0.999998112782498
23.154,23.09,-1.37,0.34699932113586845,0.2494593213739363,0.11492279853096711,0.2658621284751952,0.523976887669187,0.9999282322516853
23.215,23.14,-1.22,0.34483761785653033,0.25022835101445473,0.11362416022787995,0.26638250858911044,0.5202506496759072,0.9997886804862443
23.277,23.2,-1.32,0.34276557047040535,0.25104777468912204,0.11241311180704593,0.26695809318571534,0.5164690449601523,0.9995777957632368
23.319,23.25,-1.39,0.34078523109173825,0.25191848842046777,0.11129226709270763,0.26759029187239436,0.5126322243766267,0.999293934137833
23.38,23.31,-1.3,0.3388986097634729,0.25284139052841886,0.11026421976538632,0.2682805147366317,0.5087403588435533,0.9989354710347962
23.442,23.36,-1.29,0.3371076729355816,0.25381738061783166,0.109331541139515,0.26903017094431225,0.5047936402920504,0.998500802850544
23.502,23.42,-1.32,0.3354143419478822,0.25484735853125573,0.10849677791899169,0.2698406673057624,0.5007922826284308,0.9979883485645139
23.584,23.48,-1.34,0.3338204915185402,0.25593222326743814,0.10776244993245286,0.27071340681012873,0.4967365227075771,0.9973965513584739
23.605,23.53,-1.25,0.3323279482394297,0.2570728718661686,0.1071310478501255,0.27164978712873644,0.4926266213155426,0.9967238802423282
23.667,23.58,-1.31,0.3309384890795881,0.2582701982601638,0.1066050308841731,0.27265119908812424,0.4884628641595533,0.9959688316848704
23.709,23.64,-1.39,0.32965383989811603,0.2595250920947771,0.10618682447451222,0.2737190251135196,0.48424556286361553,0.9951299312478632
23.79,23.69,-1.24,0.32847567396801475,0.26083843751641345,0.10587881796213612,0.2748546376435898,0.47997505596795664,0.9942057352217439
23.809,23.75,-1.28,0.32740561051259465,0.26221111193061325,0.10568336225205223,0.27605939751738684,0.47565170993054057,0.9931948322611968
23.87,23.8,-1.34,0.3264452132561776,0.2636439847308653,0.10560276746799807,0.27733465233448806,0.47127592012889985,0.992095845018779
23.952,23.86,-1.3,0.3255959889907918,0.2651379159993591,0.1056393006011335,0.2786817347894579,0.4668481118605486,0.990907431774731
23.973,23.91,-1.3,0.3248593861604982,0.2666937551810415,0.10579518315493887,0.28010196098187135,0.4623687413402981,0.9896282880609847
24.035,23.97,-1.37,0.3242367934649572,0.2683123397324577,0.10607258878860099,0.28159662870321756,0.4578382966928379,0.9882571482772926
24.097,24.02,-1.43,0.323729538483786,0.26999449374696566,0.10647364096122099,0.28316701570207453,0.4532572989389346,0.9867927872973352
24.139,24.08,-1.34,0.323338886323127,0.27174102655805993,0.10700041057920591,0.2848143779290573,0.4486263029735654,0.9852340220626348
24.221,24.14,-1.44,0.323066038285676,0.2735527313226909,0.10765491364921971,0.2865399477631701,0.44394589853422944,0.9835797131620894
24.26,24.19,-1.53,0.32291213056522994,0.2754303835865912,0.10843910893906232,0.28834493222131585,0.4392167111575823,0.981828766394939
24.321,24.25,-1.41,0.32287823296663265,0.2773747398337222,0.1093548956488256,0.2902305111528543,0.43443940312242324,0.9799801343149854
24.382,24.3,-1.44,0.322965347651862,0.2793865360220279,0.11040411109465514,0.2921978354212285,0.4296146743769525,0.9780328177538946
24.422,24.35,-1.5,0.323174407912922,0.2814664861077625,0.11158852840741441,0.294248025074831,0.4247432634480943,0.9759858673214433
24.484,24.41,-1.49,0.32350627697211903,0.28361528056078555,0.11290985424849447,0.2963821675094726,0.41982594833059617,0.9738383848806034
24.546,24.46,-1.46,0.3239617468102618,0.2858335848733951,0.11436972654497245,0.29860131562500014,0.4148635473535936,0.9715895249953553
24.609,24.52,-1.52,0.3245415370233601,0.28812203806541187,0.1159697122463301,0.3009064859787512,0.4098569200223162,0.9692384963491333
24.69,24.57,-1.58,0.32524629370847935,0.2904812511883485,0.1177113051049691,0.3032986569386359,0.40480696783258474,0.966784563131844
24.71,24.63,-1.46,0.32607658837950076,0.29291180583157617,0.11959592348278723,0.3057787668387398,0.39971463505570076,0.9642270463934619
24.752,24.68,-1.55,0.32703291691366526,0.295414252633419,0.12162490818611131,0.308347712140426,0.394580909491287,0.961565325362265
24.813,24.74,-1.66,0.32811569852991845,0.2979891098000795,0.12379952033131145,0.3110063456019911,0.38940682318557657,0.9587988387258438
24.856,24.8,-1.56,0.32932527480019175,0.3006368616352587,0.1261209392434597,0.3137554744599976,0.3841934531126059,0.955927085873068
24.915,24.85,-1.61,0.3306619086948716,0.30335795708327207,0.12859026039046262,0.31659585862544143,0.37894192181570646,0.9529496280952476
24.976,24.91,-1.66,0.3321257836637937,0.30615280828837055,0.13120849335518606,0.31952820889790046,0.37365339800659725,0.9498660897447959
25.078,24.96,-1.66,0.33371700275406735,0.3090217891729384,0.13397655984815038,0.32255318520079496,0.36832909711927586,0.9466761593497938
25.099,25.01,-1.6,0.33543558776590165,0.3119652340372507,0.13689529176341,0.3256713948408735,0.36297028181582935,0.9433795906829376
25.141,25.07,-1.65,0.33728147844745887,0.3149834361835126,0.13996542928027025,0.328883390794995,0.35757826244122837,0.9399762037834084
25.203,25.12,-1.7,0.33925453172963466,0.31807664656692225,0.1431876190135402,0.3321896700272136,0.35215439742412863,0.9364658859302787
25.265,25.18,-1.51,0.341354521001602,0.3212450724764976,0.14656241221505975,0.3355906718391146,0.3467000936206934,0.9328485925661184
25.307,25.23,-1.59,0.3435811354279999,0.324488876248373,0.15009026302927525,0.3390867762562956,0.34121680659847864,0.9291243481695056
25.37,25.29,-1.66,0.3459339793087588,0.3278081740142357,0.15377152680566283,0.34267830245385816,0.3357060408574869,0.9252932470751509
25.412,25.34,-1.56,0.34841257148270255,0.3312030344875573,0.1576064584708189,0.3463655072237728,0.3301693499856091,0.92135545424034
25.475,25.4,-1.58,0.3510163447762684,0.33467347779024526,0.16159521096307794,0.3501485834869595,0.32460833674581696,0.9173112059563527
25.557,25.45,-1.59,0.35374464549893136,0.33821947432224475,0.16573783373257508,0.3540276588528709,0.31902465309257394,0.9131608105035067
25.578,25.51,-1.6,0.35659673298712596,0.34184094367652174,0.17003427130971188,0.3580027942293123,0.31342000011502075,0.9089046487484918
25.62,25.57,-1.52,0.3595717791986292,0.3455377536017691,0.17448436194501946,0.3620739824851946,0.3077961279045896,0.9045431746826761
25.701,25.62,-1.56,0.36266886835953077,0.34930971901507796,0.1790878363234702,0.3662411471688606,0.30215483534482296,0.9000769159000656
25.743,25.67,-1.64,0.3658869966660652,0.353156601066714,0.18384431635635742,0.370504141284549,0.29649796982129634,0.8955064740135769
25.783,25.73,-1.48,0.3692250720436599,0.35707810625903785,0.18875331405391568,0.37486274612949194,0.29082742684967816,0.8908325250082446
25.844,25.78,-1.56,0.37268191396557016,0.36107388562151743,0.19381423048189042,0.37931667019406035,0.2851451496200935,0.8860558195299352
25.905,25.84,-1.61,0.3762562533334153,0.3651435339437011,0.19902635480526445,0.3838655481273262,0.2794531284560805,0.8811771831080858
25.966,25.89,-1.52,0.3799467324217927,0.3692865890679841,0.20438886342230592,0.3885089397703909,0.27375340018656247,0.876197516310955
26.029,25.95,-1.52,0.3837519048890472,0.37350253124394134,0.20990081919205017,0.3932463292598143,0.26804804742940624,0.8711177948318253
26.07,26.0,-1.53,0.3876702358562766,0.3777907825458899,0.21556117075829279,0.39807712420341473,0.26233919778528136,0.8659390695045976
26.152,26.06,-1.55,0.39170010205671013,0.382150706355231,0.2213687519731382,0.4030006549306283,0.2566290229406916,0.8606624662472302
26.193,26.11,-1.45,0.39583979205766673,0.3865816069090419,0.22732228142312458,0.408016173819534,0.25091973767924575,0.8552891859314999
26.256,26.17,-1.51,0.400087506557388,0.39108272891631796,0.23342036206093109,0.4131228547025541,0.24521359880045238,0.8498205041775906
26.316,26.23,-1.6,0.4044413587591274,0.39565325724318934,0.2396614809456628,0.4183197923527248,0.23951290394553412,0.8442577710720244
26.338,26.28,-1.44,0.4088993748249418,0.4002923166683389,0.24604400909467503,0.4236060020523199,0.2338199903299746,0.8386024108074837
26.398,26.33,-1.51,0.4134594944116875,0.40499897170972726,0.2525662014498643,0.4289804192454867,0.2281372333827103,0.8328559212430806
26.458,26.39,-1.58,0.41811957129172816,0.40977222652361406,0.25922619696129123,0.43444189927645127,0.22246704529205089,0.8270198733836973
26.521,26.44,-1.52,0.4228773740607783,0.41461102487679197,0.2660220187908968,0.43998921721480666,0.21681187345859196,0.8210959107770787
26.582,26.5,-1.53,0.4277305869351932,0.41951425019289235,0.2729515746389599,0.4456210677693608,0.21117419885556704,0.8150857488274126
26.623,26.55,-1.57,0.4326768106408853,0.4244807256735345,0.28001265719582835,0.451336065291963,0.2055565342972604,0.8089911740241841
26.684,26.61,-1.6,0.4377135633958365,0.42950921449503365,0.2872029447213182,0.45713274387267144,0.1999614226162481,0.8028140430851838
26.745,26.66,-1.49,0.4428382819878541,0.43459842008136235,0.29452000175399,0.4630095575275994,0.1943914347503826,0.7965562820126303
26.787,26.72,-1.56,0.44804832294887786,0.4397469864540456,0.301961279952299,0.4689648804807736,0.18884916774058944,0.7902198850614645
26.827,26.77,-1.64,0.4533409638268515,0.44495349865961814,0.3095241190693878,0.4749970075413103,0.1833372426407178,0.783806913618965
26.888,26.83,-1.51,0.45871340455596366,0.4502164832752057,0.3172057480630713,0.48110415457717176,0.17785830234088415,0.7773194949949338
26.95,26.89,-1.54,0.4641627689259377,0.45553440899270875,0.3250032863423662,0.4872844590866888,0.17241500930596088,0.7707598211218208
26.991,26.94,-1.6,0.46968610615093404,0.4609056872820165,0.3329137451517274,0.4935359808689484,0.16701004323105934,0.7641301471643281
27.053,27.0,-1.58,0.4752803925384181,0.4663286731336876,0.34093402909393106,0.49985670279409283,0.16164609861607077,0.7574327900382034
27.114,27.05,-1.55,0.48094253325812336,0.47180166588156974,0.34906093779231473,0.5062445316745273,0.1563258822615741,0.7506701268380912
27.176,27.1,-1.62,0.486669364211048,0.4773229101058055,0.3572911676928756,0.5126972992379428,0.1510521106886584,0.7438445931744699
27.26,27.16,-1.65,0.4924576539982535,0.48289059661663103,0.36562131400652026,0.5192127632029726,0.14582750748541615,0.7369586814199148
27.281,27.21,-1.53,0.4983041059890278,0.4885028635193195,0.3740478727915386,0.5257886084582207,0.14065480058305138,0.7300149388651492
27.323,27.27,-1.64,0.5042053604877593,0.4941577973605671,0.3825672431761612,0.5324224483453093,0.13553671946473902,0.7230159657855857
27.386,27.32,-1.73,0.5101579969986207,0.49985343435654667,0.39117572972082615,0.5391118260464729,0.1304759923105555,0.7159644134192796
27.449,27.38,-1.62,0.5161585365868735,0.5055877617027862,0.39986954491955184,0.5458542160770875,0.12547534308200842,0.7088629818574335
27.512,27.43,-1.65,0.5222034443352844,0.5113587189659486,0.4086448118395699,0.5526470258833547,0.1205374885498756,0.7017144178488072
27.554,27.49,-1.7,0.5282891318937736,0.5171641995574968,0.41749756689811063,0.5594875975451997,0.11566513526921927,0.6945215125196473
27.659,27.55,-1.68,0.5344119601199693,0.523002052289161,0.426423762774915,0.566373209584312,0.11086097650559117,0.6872870990110134
27.68,27.6,-1.65,0.5405682418079253,0.5288700830100597,0.43541927145870946,0.5733010788771448,0.10612768911664568,0.680014050035628
27.721,27.66,-1.69,0.546754244501963,0.5347660563251968,0.44447988742556566,0.5802683626725491,0.10146793039359922,0.6727052753566378
27.783,27.71,-1.73,0.5529661933924646,0.5406876973948748,0.45360133094677596,0.5872721607135365,0.09688433486720183,0.6653637191909597
27.823,27.76,-1.59,0.5592002742903861,0.5466326938143384,0.4627792515235956,0.594309517462457,0.09237951108312373,0.6579923575401918
27.884,27.82,-1.68,0.5654526366772693,0.5525986975727264,0.4720092314459299,0.6013774244286518,0.08795603835191804,0.6505941954523738
27.945,27.87,-1.76,0.5717193968275405,0.5585833270901415,0.48128678947175824,0.6084728225974061,0.08361646347899061,0.6431722642181761
27.987,27.93,-1.66,0.5779966409998668,0.5645841693314037,0.49060738462379877,0.6155926049587924,0.07936329748030016,0.6357296185053928
28.048,27.98,-1.69,0.5842804286943423,0.5705987819947685,0.49996642009963443,0.6227336191347388,0.07519901228979894,0.6282693334359101
28.109,28.04,-1.73,0.5905667959722719,0.5766246957735769,0.5093592472912574,0.6298926701023534,0.07112603746486061,0.6207945016096437
28.15,28.09,-1.73,0.5968517588352519,0.5826594166885019,0.5187811699096981,0.6370665230112417,0.06714675689616598,0.6133082300803007
28.212,28.15,-1.68,0.6031313166601188,0.5887004284877669,0.5282274482101006,0.6442519060922585,0.06326350552875885,0.6058136372881535
28.272,28.2,-1.76,0.6094014556862122,0.594745195112402,0.5376933033123052,0.6514455136548214,0.05947856610124201,0.5983138499553325
28.374,28.26,-1.83,0.6156581525512389,0.6007911632232785,0.5471739216116902,0.658644009169585,0.05579416591033727,0.590811999949449
28.394,28.32,-1.67,0.6218973778717948,0.6068357647863554,0.556664459274679,0.6658440284329413,0.05221247360827584,0.5833112211216663
28.436,28.37,-1.76,0.628115099864323,0.6128764197122514,0.5661600468129562,0.673042182809473,0.04873559604071223,0.5758146461256202
28.496,28.42,-1.83,0.634307288001969,0.618910538545972,0.5756557937300494,0.6802350625481532,0.045365575133067736,0.5683254032238486
28.557,28.48,-1.75,0.6404699167024995,0.6249355252023496,0.5851467932335489,0.6874192401677743,0.042104384833452975,0.5608466130886098
28.618,28.53,-1.8,0.6465989690422893,0.6309487797424596,0.5946281270058829,0.6945912739067327,0.03895392812057894,0.5533813856041043
28.679,28.59,-1.84,0.6526904404913387,0.6369477011859308,0.6040948700262552,0.7017477112318945,0.03591603408531399,0.5459328166772545
28.74,28.64,-1.87,0.6587403426642723,0.6429296903537259,0.6135420954360354,0.7088850924008449,0.03299245509475072,0.5385039850643432
28.782,28.7,-1.92,0.6647447070822173,0.6488921527356584,0.6229648794395622,0.7159999540714241,0.030184864047852256,0.531097949220968
28.822,28.75,-2.16,0.6706995889404462,0.6548325013765992,0.6323583062320095,0.7230888329520461,0.027494851731922145,0.5237177441829284
28.883,28.81,-2.41,0.6766010708766483,0.6607481597750018,0.6417174729456518,0.730148269485883,0.024923924289215717,0.5163663784857979
28.923,28.86,-2.45,0.6824452667346472,0.6666365647870717,0.6510374946055676,0.7371748115616179,0.022473500802907487,0.5090468311309849
28.984,28.92,-2.67,0.6882283253182976,0.672495169529689,0.6603135090855731,0.7441650182431307,0.0201449110112534,0.5017620486059765
29.045,28.98,-2.87,0.6939464341301185,0.6783214462751267,0.6695406820549931,0.7511154635102428,0.017939393158136523,0.4945149419661516
29.087,29.03,-2.96,0.6995958230889623,0.6841128893307489,0.678714211906774,0.7580227400025409,0.015858091987380307,0.4873083839850423
29.15,29.08,-3.1,0.7051727682207757,0.6898670178970978,0.6878293346574537,0.7648834627582433,0.01390205688736667,0.48014520637928626
29.21,29.14,-3.23,0.7106735953163726,0.695581378897968,0.6968813288096192,0.7716942729400248,0.01207224019162137,0.47302819711384825
29.252,29.19,-3.34,0.7160946835500597,0.7012535497762373,0.7058655201676588,0.7784518415397038,0.010369495640152944,0.4659600977924548
29.314,29.25,-3.34,0.7214324690528975,0.706881141249395,0.7147772865978363,0.7851528730537426,0.008794577005499403,0.45894360113760196
29.374,29.3,-3.46,0.7266834484344228,0.7124618000188799,0.7236120627239763,0.7917941091216126,0.007348136886641562,0.4519813485639465
29.496,29.36,-3.64,0.7318441822467855,0.7179932114275294,0.7323653445503513,0.7983723321191827,0.006030725673217858,0.44507592784838795
29.517,29.41,-3.56,0.7369112983854835,0.7234731020596362,0.7410326940036689,0.8048843686994387,0.004842790681799879,0.4382298708996779
29.557,29.47,-3.67,0.7418814954212042,0.7288992422783133,0.7496097433863882,0.8113270932730007,0.0037846754653408665,0.4314456516299899
29.6,29.52,-3.74,0.7467515458576307,0.7342694486950805,0.7580921997339423,0.817697431421083,0.0028566192962389612,0.4247256839305687
29.663,29.58,-3.71,0.7515182993103535,0.7395815865668843,0.7664758490687842,0.823992363233805,0.0020587568228351855,0.41807231975330583
29.724,29.64,-3.73,0.7561786856023092,0.7448335721160824,0.7747565605445642,0.8302089265670441,0.00139111789859374,0.41148784729977805
29.765,29.69,-3.76,0.760729717771468,0.7500233747692301,0.7829302904741653,0.8363442202113238,0.0008536275827113228,0.4049744893189582
29.849,29.75,-3.81,0.7651684949867842,0.755149019310807,0.7909930862357268,0.8423954069665741,0.0004461063104551056,0.39853440151446134
29.868,29.8,-3.72,0.7694922053686114,0.7602085879483652,0.7989410900511285,0.8483597166170206,0.00016827023113477575,0.39216967106186384
29.909,29.85,-3.8,0.7736981287099535,0.7652002222859111,0.8067705426317144,0.8542344488008985,1.9731711248447e-05,0.38588231523631594
29.971,29.91,-3.87,0.777783639095029,0.77012212520265,0.8144777866863451,0.8600169757701314,0.0,0.3796742801503891
30.033,29.96,-3.74,0.7817462074117176,0.774972562634499,0.8220592702871726,0.8657047450355037,0.00010848205405182243,0.37354743960183445
30.094,30.02,-3.78,0.7855834037545623,0.7797498652560136,0.8295115500888992,0.8712952818932118,0.00034448351805003947,0.3675035940306858
30.136,30.07,-3.8,0.7892928997150935,0.784452430060586,0.8368312943976403,0.8767861918289798,0.0007072098571299308,0.3615444695849244
30.237,30.13,-3.75,0.7928724705562747,0.789078721837019,0.844015286085849,0.8821751627962601,0.0011957676373185466,0.3556717172937044
30.257,30.18,-3.69,0.7963199972679709,0.7936272745408398,0.851060425350107,0.8874599673653695,0.0018091659495189873,0.3498869123469168
30.298,30.24,-3.71,0.7996334685006105,0.7980966925589111,0.8579637323089372,0.8926384647407024,0.0025463179725632046,0.34419155347966673
30.36,30.3,-3.7,0.8028109823745518,0.8024856518661212,0.8647223494381442,0.8977086026435123,0.003406042670642137,0.3385870624600584
30.421,30.35,-3.58,0.8058507481630222,0.806792901073176,0.8713335438414684,0.9026684190581659,0.004387066620294814,0.3330747836785141
30.462,30.41,-3.63,0.8087510878468132,0.8110172623647979,0.8777947093546137,0.9075160438402263,0.005488025962024316,0.32765598383667066
30.565,30.46,-3.67,0.8115104375392239,0.8151576323278895,0.8841033684809828,0.9122497001851582,0.006707468471519027,0.32233185173372686
30.585,30.51,-3.54,0.8141273487800066,0.8192129826694853,0.8902571741577617,0.9168677059568637,0.008043855745385782,0.31710349814795913
30.626,30.57,-3.56,0.8166004896973427,0.8231823608245643,0.8962539113513459,0.921368474875611,0.009495565496205794,0.31197195581099557
30.687,30.62,-3.58,0.8189286460371089,0.8270648904540394,0.9020914984814595,0.9257505175652325,0.011060893951611318,0.30693817947235535
30.77,30.68,-3.56,0.821110722058798,0.8308597718335454,0.9077679886736343,0.9300124424598283,0.012738058351954946,0.3020030460517029
30.81,30.73,-3.51,0.8231457412975044,0.8345662821339772,0.9132815708399936,0.9341529565705894,0.014525199541036666,0.29716735487619983
30.852,30.79,-3.52,0.8250328471914594,0.838183775595027,0.9186305705885842,0.9381708661136973,0.01642038464423965,0.2924318280002925
30.933,30.84,-3.52,0.826771303574661,0.8417116835932305,0.9238134509617977,0.9420650770005793,0.01842160982828429,0.28779711060526064
30.953,30.9,-3.36,0.8283604950341985,0.8451495146062841,0.9288288130046798,0.9458345951921063,0.020526803136680438,0.2832637714758544
31.014,30.95,-3.4,0.8297999271319599,0.8484968540756075,0.9336753961641646,0.9494785269185961,0.022733827394859477,0.27883230355135197
31.076,31.01,-3.42,0.8310892264905275,0.8517533641693186,0.9383520785204991,0.952996078767707,0.025040483178921956,0.27450312454836884
31.138,31.07,-3.28,0.8322281407432635,0.8549187834479774,0.9428578768523819,0.9563865576425028,0.027444511841952592,0.2702765776527441
31.179,31.12,-3.27,0.833216538348836,0.8579929264356341,0.9471919465376609,0.9596493705920874,0.02994359859188957,0.2661529322778173
31.241,31.17,-3.27,0.834054408270744,0.8609756830988642,0.9513535812917517,0.9627840245173137,0.032535375614971246,0.2621323848864229
31.301,31.23,-3.22,0.8347418595226141,0.8638670182366397,0.9553422127462033,0.9657901257542025,0.035217425238805646,0.2582150598739551
31.364,31.28,-3.16,0.8352791205802556,0.8666669707840429,0.9591574098700447,0.9686673795378737,0.03798728312918042,0.2544010105098713
31.405,31.34,-3.17,0.8356665386616845,0.8693756530329386,0.96279887823674,0.9714155893499504,0.04084244151480565,0.25069021993502494
31.466,31.39,-3.17,0.8359045788765711,0.8719932497727871,0.9662664591397518,0.9740346561525843,0.04378035243424088,0.24708260221227232
31.527,31.45,-3.03,0.8359938232467637,0.8745200173548294,0.9695601285598373,0.9765245775125039,0.04679843099930889,0.2435780034278711
31.589,31.5,-3.09,0.8359349695997215,0.8769562826829227,0.9726799959873256,0.9788854466187449,0.049894058669344224,0.24017620284126873
31.672,31.56,-3.12,0.8357288303368201,0.8793024421343458,0.9756263031027607,0.9811174511979405,0.053064586530670026,0.23687691408095113
31.692,31.61,-3.0,0.8353763310785793,0.8815589604139419,0.9783994223194534,0.9832208723312015,0.056307338575759966,0.23367978638407128
31.733,31.67,-2.98,0.8348785091889624,0.8837263693449728,0.9809998551916753,0.9851960831766723,0.05961961497659532,0.23058440587761786
31.793,31.73,-2.96,0.8342365121810352,0.8858052665999838,0.9834282306924126,0.9870435476018348,0.06299869534675345,0.2275902968989329
31.835,31.78,-2.92,0.8334515960063922,0.8877963143748879,0.9856853033647571,0.988763818729597,0.06644184198679763,0.2246969233534489
31.896,31.83,-2.8,0.8325251232309153,0.8897002380094162,0.9877719513511589,0.9903575374021549,0.06994630310763787,0.22190369010755415
31.959,31.89,-2.82,0.8314585610997045,0.891517824556996,0.9896891743049487,0.9918254305665469,0.07350931602666995,0.21920994441452124
32.022,31.94,-2.82,0.8302534794943272,0.8932499213070488,0.9914380911886804,0.9931683095857397,0.07712811033166772,0.21661497737144833
32.063,32.0,-2.7,0.8289115487858394,0.8948974342626479,0.9930199379639145,0.9943870684790161,0.08079991100760107,0.21411802540516783
32.126,32.06,-2.69,0.8274345375872678,0.8964613265764387,0.9944360651770758,0.995482682095393,0.08452194152174314,0.2117182717850826
32.167,32.11,-2.67,0.8258243104094253,0.8979426169477146,0.995687935445996,0.99645620422377,0.08829142686260344,0.20941484816092715
32.231,32.17,-2.58,0.8240828252239993,0.899342377983582,0.9967771208517199,0.9973087656435383,0.09210559652840922,0.207206836123495
32.292,32.22,-2.58,0.82221213093794,0.9006617345271873,0.9977053002401547,0.9980415721194152,0.0959616874610664,0.20509326878639192
32.332,32.28,-2.57,0.820214364783293,0.9019018619559528,0.9984742564381733,0.9986559023442576,0.09985694692176138,0.20307313238686167
32.414,32.33,-2.56,0.8180917496267643,0.9030639844526822,0.9990858733888458,0.9991531058335593,0.10378863530458769,0.20114536790371093
32.476,32.39,-2.48,0.8158465912034375,0.9041493732522697,0.9995421332105509,0.9995346007752468,0.10775402888478322,0.19930887269033837
32.497,32.44,-2.52,0.8134812752791871,0.9051593448665661,0.9998451131848091,0.9998018718382816,0.11175042249833217,0.19756250212087112
32.557,32.5,-2.53,0.8109982647463927,0.9060952592897692,0.9999969826777326,0.9999564679434932,0.1157751321498312,0.19590507124741527
32.62,32.55,-2.41,0.8084000966575201,0.906958518186551,1.0,1.0,0.11982549754565747,0.19433535646643707
32.68,32.6,-2.41,0.8056893792010646,0.9077505630649839,0.9998565092102546,0.9999341386105074,0.12389888454959831,0.1928520971923143
32.782,32.66,-2.42,0.8028687886242845,0.9084728734361923,0.9995689368668028,0.9997606117486808,0.1279926875582183,0.19145399753615744
32.803,32.72,-2.3,0.7999410661071319,0.9091269649625577,0.9991397887324456,0.9994812024116831,0.13210433179338718,0.19013972798807263
32.844,32.77,-2.28,0.7969090145918231,0.9097143875962195,0.998571646437227,0.9990977462508732,0.13623127550958875,0.18890792710109483
32.907,32.83,-2.27,0.7937754955725893,0.9102367237095454,0.9978671641038402,0.9986121291835328,0.14037101211385936,0.18775720317506606
32.969,32.88,-2.26,0.7905434258502774,0.9106955862191906,0.9970290649403847,0.9980262849883943,0.14452107219645635,0.18668613593876887
33.009,32.94,-2.16,0.7872157742566007,0.9110926167053265,0.9960601378051469,0.9973421928876514,0.14867902547063067,0.18569327822865078
33.071,32.99,-2.2,0.7837955583530233,0.9114294835275533,0.9949632337480891,0.9965618751180132,0.15284248262014105,0.18477715766249983
33.134,33.05,-2.24,0.7802858411094045,0.9117078799389327,0.9937412625337574,0.9956873944932498,0.1570090970533863,0.18393627830646678
33.155,33.1,-2.07,0.7766897275676252,0.9119295221995074,0.9923971891503345,0.9947208519605545,0.16117656656325213,0.1831691223338677
33.216,33.16,-2.13,0.7730103614954513,0.9120961476906,0.990934030309565,0.993664384152937,0.16534263489196607,0.18247415167423764
33.278,33.21,-2.16,0.7692509220358609,0.9122095130311261,0.9893548509422432,0.9925201609398194,0.16950509320043178,0.18184980965113992
33.319,33.27,-2.09,0.7654146203569031,0.9122713921971592,0.987662760693833,0.9912903829780523,0.17366178144169894,0.18129452260723916
33.422,33.32,-2.07,0.7615046963069653,0.9122835746459849,0.985860910424686,0.9899772792656585,0.1778105896384252,0.1808067015151142
33.442,33.38,-2.09,0.7575244150801624,0.9122478634458224,0.9839524887192378,0.9885831047006063,0.18194945906435647,0.18038474357226267
33.505,33.43,-2.08,0.7534770638963778,0.9121660734123215,0.9819407184085054,0.9871101376468628,0.1860763833299985,0.1800270337787495
33.545,33.49,-1.96,0.7493659487002333,0.9120400292529087,0.9798288531101086,0.9855606775099346,0.19018940937280754,0.1797319464959568
33.607,33.54,-2.0,0.7451943908830508,0.9118715637200712,0.9776201737899256,0.983937042324053,0.19428663835240767,0.17949784698489926
33.648,33.6,-2.08,0.7409657240317162,0.9116625157746674,0.9753179853493721,0.9822415663531092,0.19836622645153001,0.17932309292258564
33.711,33.65,-1.93,0.7366832907082751,0.9114147287603589,0.9729256132421806,0.9804765977073778,0.20242638558358148,0.1792060358949325
33.772,33.71,-1.96,0.7323504392641015,0.9111300485902287,0.9704464001244529,0.9786444959779734,0.20646538400793749,0.17914502286478654
33.814,33.76,-2.0,0.727970520692501,0.9108103219466256,0.9678837025416636,0.9767476298909284,0.21048154685420917,0.17913839761369535
33.875,33.82,-1.94,0.7235468855235828,0.9104573944952882,0.9652408876561606,0.9747883749827416,0.2144732565568762,0.17918450215614812
33.937,33.87,-1.93,0.7190828807651726,0.9100731091148506,0.9625213300185955,0.9727691112992336,0.21843895320184079,0.17928167812505777
33.997,33.92,-1.96,0.7145818468934922,0.9096593041428424,0.9597284083866271,0.970692221119496,0.22237713478662796,0.1794282681272882
34.037,33.98,-2.0,0.7100471148971897,0.9092178116393342,0.9568655025941254,0.9685600867066796,0.22628635739609365,0.1796226170680792
34.099,34.03,-1.91,0.7054820033780573,0.9087504556694698,0.9539359904739528,0.9663750880873779,0.23016523529562355,0.17986307344327432
34.16,34.09,-1.99,0.7008898157114849,0.9082590506062032,0.9509432448372096,0.9641396008614177,0.23401244094389134,0.1801479905983213
34.242,34.15,-2.05,0.6962738372693709,0.9077453994546304,0.9478906305116407,0.9618559940438853,0.2378267049273026,0.180475727953082
34.263,34.2,-1.91,0.6916373327078739,0.9072112921993511,0.9447815014417135,0.9595266279412584,0.24160681581828686,0.1808446521915631
34.326,34.26,-1.93,0.6869835433220142,0.9066585041763328,0.9416191978527054,0.9571538520635087,0.24535161995962454,0.18125313841575758
34.367,34.31,-1.96,0.6823156844687439,0.9060887944707886,0.938407043480966,0.9547400030740368,0.24906002117701564,0.1816995712628821
34.428,34.37,-1.94,0.6776369430596763,0.9055039043426667,0.9351483428722952,0.9522874027793384,0.25273098042215997,0.182182345985376
34.491,34.42,-1.91,0.6729504751243025,0.9049055556814365,0.9318463787501481,0.9497983561603546,0.2563635153487398,0.1826998694930861
34.532,34.48,-1.96,0.6682594034443384,0.9042954494919111,0.9285044094551663,0.9472751494474824,0.25995669982381414,0.18325056135712703
34.614,34.53,-1.98,0.6635668152597516,0.9036752644128775,0.9251256664573564,0.9447200482412125,0.26350966337722254,0.1838328547750025
34.697,34.59,-1.87,0.6588757600469931,0.903046655270335,0.9217133519420709,0.9421352956803468,0.2670215905916614,0.1844451974966915
34.717,34.64,-1.95,0.6541892473699634,0.902411251667163,0.9182706364708184,0.939523110659702,0.2704917204361378,0.18508605271151915
34.759,34.7,-2.02,0.6495102448042427,0.9017706566110307,0.9148006567178161,0.9368856860991364,0.2739193455455494,0.1857538998957462
34.821,34.75,-1.93,0.6448416759350755,0.9011264451823666,0.9113065132830939,0.934225187265673,0.2773038114491804,0.1864472356209068
34.862,34.81,-1.96,0.6401864184295506,0.9004801632441835,0.9077912685828847,0.9315437501504094,0.2806445157509236,0.187164574323013
34.924,34.86,-2.01,0.6355473021833115,0.8998333261955388,0.9042579448179433,0.9288434799018188,0.2839409072640214,0.18790444903284373
34.985,34.92,-2.03,0.6309271075418995,0.8991874177704463,0.900709522020277,0.9261264493170392,0.28719248510307344,0.18866541206762752
35.046,34.97,-2.01,0.626328563596516,0.8985438888841116,0.8971489361785808,0.9233946973927734,0.2903987977360204,0.1894460356844937
35.109,35.03,-2.06,0.621754346553677,0.8979041565283953,0.8935790774424777,0.9206502279374432,0.29355944199875844,0.19024491269612775
35.15,35.08,-2.09,0.6172070781779495,0.8972696027183533,0.8900027884055011,0.917895008246207,0.29667406207494135,0.19106065704915634
35.213,35.14,-1.97,0.6126893243066803,0.8966415734916208,0.8864228624666284,0.9151309678403731,0.29974234844341185,0.1918919043658942
35.316,35.19,-2.04,0.608203593435408,0.8960213779622755,0.8828420422700494,0.9123599972726358,0.3027640367955977,0.19273731245018635
35.357,35.25,-2.1,0.6037523353724991,0.8954102874306799,0.8792630182227552,0.909583946999434,0.30573890692514133,0.1935955617581731
35.378,35.3,-2.0,0.599337939961501,0.8948095345506928,0.8756884270894366,0.9068046263216086,0.3086667815920003,0.19446535583487667
35.42,35.35,-2.03,0.594962735869778,0.894220312555533,0.8721208506641456,0.9040238023943669,0.311547525363252,0.19534542171757033
35.481,35.41,-2.06,0.590628989442159,0.8936437745434348,0.868562814518164,0.9012431993073546,0.3143810434327953,0.1962345103069653
35.522,35.47,-2.05,0.5863389036184518,0.8930810328241208,0.8650167868234997,0.8984644972354549,0.3171672804221017,0.19713139670732963
35.582,35.52,-2.0,0.5820946169137652,0.8925331583270152,0.861485177251358,0.8956893316608041,0.3199062191641351,0.19803488053671583
35.643,35.58,-2.06,0.577898202460702,0.8920011800720087,0.8579703359448803,0.8929192926663951,0.32259787947253343,0.1989437862085228
35.705,35.63,-2.1,0.5737516671126335,0.8914860847034408,0.8544745525653761,0.890155924301506,0.32524231689810323,0.1998569631856652
35.767,35.69,-1.99,0.5696569506074117,0.8909888160878245,0.8510000554112213,0.8874007240190572,0.3278396214746375,0.20077328620864918
35.829,35.74,-2.08,0.5656159247909944,0.890510274975676,0.8475490106085416,0.8846551421848604,0.3303899164560024,0.2016916554988656
35.869,35.8,-2.13,0.5616303929004625,0.8900513187276791,0.8441235213727386,0.8819205816585752,0.3328933570463573,0.20261099693841633
35.951,35.85,-2.05,0.5577020889057954,0.8896127611053126,0.8407256273398557,0.8791983974460805,0.3353501291252835,0.2035302622277797
35.971,35.91,-2.06,0.5538326769096176,0.8891953721259541,0.837357303966747,0.8764898964228093,0.337760447969498,0.20444842902260127
36.013,35.96,-2.05,0.5500237506040078,0.8887998779822964,0.8340204619990119,0.8737963371274096,0.3401245569727158,0.20536450105089907
36.075,36.02,-2.03,0.5462768327833771,0.88842696102574,0.8307169470056271,0.8711189296249274,0.3424427263651207,0.20627750821198582
36.137,36.07,-1.96,0.5425933749123896,0.8880772598132693,0.8274485389791586,0.8684588354385796,0.3447152519338589,0.20718650665839594
36.198,36.13,-2.01,0.5389747567480191,0.8877513692171609,0.8242169520004031,0.8658171675490725,0.3469424537459757,0.20809057886204876
36.258,36.18,-2.05,0.5354222860150399,0.8874498405967159,0.821023833966299,0.8631949904603171,0.34912467487524923,0.20898883366579427
36.299,36.24,-1.9,0.5319371981344636,0.8871731820310529,0.8178707663799257,0.8605933203302973,0.35126228013441735,0.2098804063213909
36.36,36.29,-1.97,0.5285206560046323,0.8869218586118758,0.8147592642013927,0.8580131251657772,0.35335565481431386,0.2107644585148846
36.443,36.35,-2.02,0.5251737498347904,0.8866962927950491,0.8116907757583859,0.8554553250794835,0.35540520343142395,0.21164017838029886
36.462,36.4,-1.94,0.5218974970309844,0.8864968648098004,0.8086666827150973,0.852920792608364,0.357411348485373,0.21250678050249042
36.523,36.46,-1.97,0.518692842134173,0.8863239131243501,0.8056883000982645,0.8504103530914522,0.3593745292278706,0.21336350590994727
36.584,36.51,-2.0,0.515560656810494,0.8861777349666878,0.8027568763790368,0.8479247851057751,0.3612952004446086,0.21420962205824898
36.647,36.57,-2.01,0.5125017398936644,0.8860585868991103,0.79987359360936,0.845464820958663,0.36317383125154623,0.2150444228048704
36.708,36.62,-1.94,0.509516817479445,0.885966685445045,0.7970395676115238,0.8430311472347866,0.3650109039069469,0.2158672283759728
36.75,36.67,-2.0,0.5066065430720377,0.8859022077665845,0.7942558482195015,0.8406244053961961,0.3668069126404466,0.21667738532577768
36.812,36.73,-2.06,0.5037714977821816,0.8858652923910428,0.7915234195707187,0.8382451924335721,0.3685623625003396,0.217474266489065
36.872,36.78,-1.9,0.5010121905765763,0.8858560399847389,0.7888432004468876,0.835894061566817,0.37027776822017566,0.2182572709272787
36.892,36.84,-1.97,0.4983290585781683,0.885874514172098,0.7862160446625346,0.8335715229930335,0.3719536531056729,0.2190258238686791
36.953,36.9,-2.01,0.49572246741677645,0.8859207423980608,0.7836427414998529,0.8312780446798376,0.3735905479428546,0.21977937664296618
37.014,36.95,-1.93,0.4931927116295434,0.8859947168317327,0.7811240161884822,0.82901405320191,0.37518898992827004,0.22051740661077407
37.075,37.01,-1.94,0.4907400151107828,0.8860963953091251,0.7786605304288302,0.8267799346186299,0.3767495216221283,0.22123941708838846
37.134,37.06,-1.95,0.488364531610991,0.8862257023127268,0.7762528829575864,0.8245760353905366,0.37827268992514884,0.2219449372679897
37.175,37.12,-1.96,0.4860663452849824,0.8863825299854907,0.77390161015412,0.8224026633322864,0.3797590450798856,0.22263352213369003
37.237,37.17,-1.89,0.4838454712892537,0.8865667391767217,0.7716071866864931,0.8202600885996928,0.38120913969725506,0.22330475237359987
37.3,37.23,-1.95,0.4817018564288123,0.8867781605172589,0.7693700261958709,0.8181485447083809,0.3826235278089677,0.22395823428811562
37.36,37.28,-2.02,0.4796353798537881,0.8870165955212594,0.7671904820181688,0.8160682295815187,0.3840027639465309,0.22459359969457965
37.421,37.34,-1.88,0.47764585380617813,0.8872818177118302,0.7650688479418262,0.8140193066240295,0.38534740224743425,0.22521050582842647
37.462,37.39,-1.95,0.4757330244170527,0.887573573767691,0.7630053590006511,0.8120019058206266,0.38665799558905106,0.22580863524089495
37.543,37.45,-2.0,0.47389657255445405,0.8878915846880134,0.7610001923007245,0.8100161248549418,0.38793509475067456,0.2263876956933717
37.563,37.5,-1.91,0.4721361147219923,0.8882355469726072,0.7590534678803696,0.8080620302470004,0.38917924760400724,0.2269474200484016
37.624,37.56,-1.9,0.4704512040078931,0.8886051338146524,0.7571652496022142,0.8061396585062626,0.39039099833234286,0.22748756615734583
37.684,37.61,-1.9,0.46884133108408654,0.8889999963031623,0.755335546076407,0.8042490172973985,0.3915708866786069,0.22800791674460846
37.746,37.67,-1.91,0.4673059252548563,0.8894197646323164,0.7535643116140844,0.8023900866159365,0.39271944722237373,0.2285082792883074
37.787,37.72,-1.81,0.4658443555545787,0.8898640493148053,0.7518514472101792,0.8005628199709554,0.3938372086859671,0.22898848589721205
37.91,37.78,-1.86,0.4644559318941618,0.8903324423963522,0.7501968015546676,0.7987671455720479,0.39492469326977586,0.22944839318371768
37.931,37.83,-1.92,0.4631399062559073,0.8908245186686256,0.7486001720713688,0.7970029675178344,0.39598241601694323,0.22988788213257558
37.951,37.89,-1.78,0.4618954739366077,0.8913398368778256,0.747061305983422,0.7952701669833655,0.3970108842076169,0.23030685796505515
37.993,37.94,-1.83,0.4607217748387956,0.8918779409262902,0.745579901404621,0.7935686034037905,0.3980105967829481,0.23070524999818473
38.054,38.0,-1.87,0.45961789481012333,0.8924383610645293,0.7441556084558033,0.7918981156517462,0.3989820437990118,0.2310830114987089
38.115,38.05,-1.81,0.4585828670308193,0.8930206150712144,0.7427880304055072,0.7902585232060217,0.3999257059107995,0.23144011953138283
38.177,38.1,-1.82,0.457615673449089,0.8936242094187781,0.7414767248341158,0.7886496273091705,0.4008420538864391,0.23177657480117358
38.217,38.16,-1.85,0.45671524626425075,0.8942486404223524,0.7402212048207483,0.7870712121117901,0.40173154815177575,0.2320924014888881
38.278,38.22,-1.87,0.455880469457261,0.894893395369847,0.7390209401521886,0.7855230458012508,0.40259463836539805,0.23238764707971635
38.34,38.27,-1.78,0.45511018036804335,0.8955579536310603,0.7378753585531163,0.7840048817127699,0.40343176302413003,0.23266238218416185
38.381,38.33,-1.83,0.45440317131874713,0.8962417877438167,0.7367838469368638,0.7825164594208638,0.404243349098935,0.23291670035081907
38.443,38.38,-1.88,0.45375819128177414,0.8969443644751903,0.7357457526758513,0.7810575058093496,0.4050298117011116,0.2331507178704478
38.504,38.44,-1.73,0.45317394759116925,0.8976651458559447,0.7347603848907955,0.7796277361181788,0.40579155377861875,0.23336457357078547
38.564,38.49,-1.75,0.4526491076958491,0.8984035901863672,0.7338270157577609,0.7782268549654523,0.4065289658423414,0.2335584286015445
38.666,38.55,-1.78,0.45218230095308465,0.8991591530117501,0.7329448818320915,0.7768545573430257,0.4072424257220851,0.23373246620907642
38.686,38.6,-1.73,0.4517721204606025,0.8999312880658837,0.7321131853882159,0.7755105295842075,0.4079322983521098,0.23388689150021053
38.726,38.66,-1.72,0.4514171249256392,0.9007194481810561,0.7313310957742761,0.7741944503021612,0.40859893558607485,0.2340219311947677
38.788,38.71,-1.76,0.45111584056930576,0.901523086163152,0.7305977507805191,0.7729059912976788,0.40924267604132347,0.23413783336623645
38.85,38.77,-1.77,0.4508667630646233,0.9023416556305566,0.7299122580203857,0.7716448184350813,0.4098638449724649,0.23423486717010863
38.891,38.82,-1.68,0.45066835950650525,0.903174611815732,0.7292736963232174,0.7704105924850883,0.41046275417421607,0.23431332255939474
38.953,38.88,-1.74,0.4505190704118345,0.9040214123285426,0.7286811171374743,0.7692029699336259,0.4110397019134501,0.23437350998686354
39.015,38.93,-1.82,0.4504173117476284,0.9048815178805669,0.7281335459433361,0.7680216037556523,0.411594972890374,0.23441576009356613
39.036,38.99,-1.7,0.4503614769851189,0.90575439296979,0.7276299836735349,0.7668661441531858,0.41212883822872975,0.23444042338320908
39.098,39.04,-1.73,0.45034993917741156,0.9066395065251678,0.7271694081412713,0.7657362392567932,0.412641555494872,0.2344478698819479
39.179,39.1,-1.75,0.45038105305818443,0.9075363325106444,0.7267507754740731,0.7646315357898529,0.4131333687455021,0.2344384887832024
39.22,39.15,-1.72,0.45045315715860385,0.9084443504883204,0.7263730215524113,0.7635516796950115,0.4136045086037747,0.23441268807713078
39.26,39.21,-1.7,0.4505645759393843,0.9093630461405992,0.7260350634518351,0.7624963167223826,0.41405519236347155,0.23437089416441165
39.322,39.26,-1.73,0.4507136219348364,0.9102919117511906,0.7257358008873478,0.7614650929791467,0.41448562412093487,0.23431355145399152
39.383,39.32,-1.75,0.450898597905786,0.911230446644906,0.725474117658723,0.760457655440332,0.414895994934449,0.23424112194449223
39.445,39.37,-1.63,0.4511177989983402,0.9121781575862465,0.7252488830954172,0.7594736524207131,0.4152864830107434,0.23415408478902644
39.506,39.42,-1.72,0.4513695149056046,0.9131345591368912,0.7250589534997334,0.7585127340079156,0.41565725391827557,0.2340529358432304
39.547,39.48,-1.77,0.45165203202960547,0.9140991739722745,0.724903173586888,0.7575745524569458,0.41600846082693904,0.2339381871963781
39.608,39.53,-1.67,0.4519636356407933,0.9150715331575587,0.7247803779206806,0.7566587625464478,0.41634024477383547,0.2338103666854811
39.669,39.59,-1.7,0.45230261203262245,0.9160511763834136,0.7246893923435418,0.7557650218970112,0.41665273495473576,0.2336700173923171
39.752,39.65,-1.75,0.452667250668772,0.9170376521621315,0.7246290353998152,0.7548929912518906,0.4169460490407995,0.23351769712339038
39.793,39.7,-1.74,0.453055846320523,0.9180305179847771,0.7245981197511265,0.7540423347206046,0.4172202935200657,0.23335397787288498
39.813,39.76,-1.71,0.45346670119168564,0.919029340440259,0.7245954535826737,0.7532127199860554,0.41747556406318553,0.23317944526871107
39.874,39.81,-1.76,0.4538981270283602,0.9200336952973773,0.724619841999249,0.7524038184759645,0.4177119459128119,0.2329946980017812
39.935,39.87,-1.77,0.45434844721067486,0.9210431675510155,0.7246700884098002,0.7516153054995603,0.41792951429597486,0.23280034723871493
39.975,39.92,-1.65,0.45481599882348417,0.9220573514337573,0.7247449958993192,0.7508468603505967,0.4181283348586832,0.23259701601823565
40.036,39.98,-1.72,0.4552991347028477,0.9230758503942863,0.7248433685868244,0.7500981663779017,0.4183084641219184,0.23238533863158164
40.119,40.03,-1.77,0.4557962254550085,0.9240982770439695,0.7249640129681847,0.7493689110247631,0.418469949958135,0.23216595998731296
40.139,40.09,-1.65,0.4563056614445694,0.9251242530730761,0.7251057392425276,0.7486587858385291,0.4186128320873772,0.23193953496094738
40.201,40.14,-1.66,0.45682585474867315,0.9261534091381175,0.725267362620995,0.747967486451852,0.4187371425921212,0.23170672772991405
40.262,40.2,-1.69,0.4573552410741653,0.9271853847218295,0.7254477046166388,0.7472947125370207,0.4188429064499467,0.2314682110943769
40.303,40.25,-1.67,0.4578922816348757,0.9282198279673819,0.7256455943142615,0.7466401677348862,0.4189301420831488,0.23122466578452408
40.366,40.31,-1.62,0.45843546498629273,0.9292563954884859,0.725859869618981,0.7460035595599905,0.4189988619244454,0.2309767797549331
40.428,40.36,-1.66,0.4589833088151065,0.9302947521571043,0.7260893784823184,0.7453845992836011,0.4190490729979871,0.23072524746663545
40.49,40.42,-1.68,0.45953436168134565,0.9313345708704442,0.7263329801046305,0.7447830017964071,0.41908077751490475,0.2304707691575493
40.531,40.47,-1.57,0.4600872047110799,0.9323755322988624,0.7265895461127592,0.7441984854526713,0.41909397348264926,0.23021405010200763
40.592,40.53,-1.66,0.46064045323791375,0.9334173246162293,0.7268579617118391,0.7436307718976143,0.41908865532739425,0.2299557998601592
40.655,40.58,-1.74,0.4611927583916591,0.9344596432142512,0.7271371268102818,0.7430795858797842,0.41906481452878214,0.22969673151806158
40.714,40.64,-1.66,0.46174280863261713,0.9355021904022587,0.7274259571169882,0.7425446550501499,0.41902244026629654,0.22943756091930728
40.775,40.69,-1.69,0.4622893312298671,0.9365446750939924,0.7277233852098774,0.7420257097496418,0.4189615200765046,0.22917900588903947
40.856,40.75,-1.73,0.46283109368186653,0.9375868124829112,0.7280283615748043,0.7415224827868209,0.41888204052030314,0.22892178545124678
40.877,40.8,-1.71,0.46336690507750156,0.9386283237075206,0.728339855613912,0.7410347092073267,0.41878398785916615,0.22866661904026805
40.918,40.85,-1.66,0.4638956173955537,0.939668935508201,0.7286568566224135,0.7405621260567171,0.4186673487392816,0.22841422570746447
40.98,40.91,-1.69,0.46441612674050703,0.9407083798769521,0.7289783747328114,0.7401044721382569,0.41853211088238296,0.2281653233240457
41.042,40.97,-1.71,0.46492737451271726,0.9417463937013982,0.7293034418255899,0.73966148776716,0.4183782637820326,0.2279206277810722
41.082,41.02,-1.59,0.46542834851112497,0.9427827184043492,0.7296311124054522,0.739232914522745,0.41820579940409364,0.2276808521876784
41.144,41.08,-1.67,0.4659180839668628,0.9438170995801979,0.7299604644421794,0.73881849499996,0.4180147128901485,0.227446706068557
41.248,41.13,-1.73,0.46639566450617964,0.9448492866295383,0.7302906001751912,0.7384179725617227,0.4178050032626441,0.2272188945617291
41.269,41.19,-1.65,0.46686022304112273,0.9458790323935509,0.7306206468808856,0.7380310910935367,0.41757667413056826,0.22699811761760844
41.31,41.24,-1.68,0.46731094258650735,0.9469060927898714,0.7309497576018938,0.7376575947617894,0.41732973439446347,0.22678506920035957
41.372,41.3,-1.71,0.4677470570019256,0.9479302264516803,0.7312771118374861,0.737297227777045,0.41706419894952323,0.2265804364925774
41.432,41.35,-1.71,0.46816785165779473,0.9489511943717106,0.7316019161944394,0.7369497341635523,0.4167800893854427,0.22638489910435705
41.473,41.41,-1.65,0.46857266402463305,0.9499687595527793,0.7319234049977316,0.7366148575361265,0.41647743468162485,0.22619912828784913
41.535,41.46,-1.71,0.4689608841849028,0.9509826866663763,0.7322408408604826,0.7362923408855101,0.416156271896287,0.22602378615840246
41.597,41.52,-1.75,0.46933195526681615,0.9519927417207751,0.7325535152126164,0.7359819263732599,0.41581664684796077,0.22585952492339972
41.638,41.57,-1.61,0.46968537379947917,0.952998691740065,0.7328607487877367,0.7356833551371793,0.415458614787837,0.22570698611988024
41.701,41.63,-1.68,0.4700206899886745,0.9540003044554678,0.7331618920677154,0.7353963671082939,0.4150822410613786,0.22556679986203082
41.783,41.68,-1.73,0.4703375079124825,0.9549973480102412,0.7334563256844652,0.7351207008403737,0.4146876017575923,0.22543958409961828
41.803,41.74,-1.64,0.4706354856358558,0.9559895906794823,0.7337434607783535,0.7348560933530128,0.41427478434434883,0.22532594388843102
41.844,41.79,-1.67,0.4709143352433052,0.9569768006061097,0.73402273931275,0.7346022799892337,0.4138438882881427,0.22522647067378973
41.946,41.85,-1.67,0.4711738227890406,0.9579587455542325,0.7342936343442733,0.7343589942884772,0.41339502565667685,0.2251417415881978
41.966,41.9,-1.67,0.47141376816412606,0.9589351926810405,0.7345556502483712,0.7341259678757367,0.4129283217026346,0.22507231876423134
42.027,41.96,-1.59,0.4716340448804104,0.9599059083282777,0.7348083228999297,0.7339029303675003,0.4124439154269965,0.22501874866378344
42.068,42.01,-1.64,0.4718345797712178,0.960870657834309,0.7350512198086969,0.733689609295066,0.41194196012027234,0.22498156142477185
42.129,42.07,-1.68,0.47201535260903277,0.9618292053676833,0.7352839402094079,0.7334857300456721,0.4114226238800431,0.2249612702264022
42.19,42.12,-1.53,0.47217639564064456,0.962781313783008,0.7355061151065851,0.733291015821784,0.4108860901032492,0.2249583706740495
42.231,42.17,-1.61,0.47231779304041144,0.9637267444998388,0.7357174072740663,0.7331051876187936,0.4103325579517025,0.22497334020478846
42.352,42.23,-1.66,0.4724396802824197,0.9646652574052247,0.735917511209356,0.7329279642213256,0.4097622427893374,0.22500663751457647
42.373,42.28,-1.58,0.47254224343234097,0.9655966107805064,0.7361061530429438,0.7327590622183152,0.40917537658976594,0.22505870200804376
42.412,42.34,-1.59,0.4726257183598279,0.9665205612529087,0.7362830904027827,0.7325981960369687,0.4085722083127527,0.2251299532717652
42.473,42.4,-1.59,0.4726903898723705,0.9674368637723407,0.7364481122342098,0.7324450779956151,0.4079530042482518,0.22522079057181585
42.534,42.45,-1.6,0.47273659077160307,0.9683452716136697,0.7366010385756474,0.7322994183753582,0.4073180483266466,0.22533159237635586
42.575,42.51,-1.51,0.4727647008331236,0.9692455364046406,0.7367417202904608,0.7321609255103764,0.40666764239385345,0.22546271590393924
42.617,42.56,-1.56,0.4727751457110428,0.9701374081795,0.7368700387553799,0.7320293058966576,0.4060021064500015,0.22561449669819067
42.698,42.62,-1.61,0.472768395768703,0.9710206354583107,0.7369859055059351,0.7319042643189156,0.4053217788504616,0.22578724822944965
42.739,42.67,-1.45,0.47274496483726164,0.9718949653518503,0.7370892618393926,0.7317855039953917,0.404627016468077,0.22598126152393716
42.8,42.73,-1.5,0.4727054089041096,0.9727601436919054,0.7371800783757492,0.7316727267401774,0.4039181948155201,0.22619680482096072
42.861,42.78,-1.53,0.4726503247333268,0.9736159151866821,0.7372583545774171,0.731565633142629,0.4031957081267757,0.2264341232586435
42.901,42.84,-1.45,0.4725803484205354,0.974462023601019,0.7373241182282962,0.7314639227634081,0.4024599693968552,0.2266934385886104
42.963,42.89,-1.44,0.47249615388465493,0.9752982119610387,0.7373774248730111,0.7313672943466221,0.4017114103789795,0.22697494891997244
43.005,42.95,-1.47,0.4723984512992315,0.9761242227827713,0.7374183572171723,0.7312754460474717,0.4009504815385987,0.2272788284928549
43.066,43.0,-1.49,0.4722879854661388,0.9769397983241763,0.7374470244895798,0.731188075674739,0.400177651963742,0.2276052274816282
43.128,43.06,-1.43,0.4721655341345147,0.9777446808598944,0.7374635617673106,0.7311048809474392,0.3993934092313137,0.22795427182792
43.189,43.11,-1.49,0.472031906267822,0.9785386129779728,0.7374681292646768,0.7310255597649405,0.3985982592290477,0.22832606310341122
43.23,43.17,-1.55,0.4718879402619217,0.9793213378977172,0.7374609115870813,0.7309498104898389,0.3977927259328965,0.22872067840235993
43.293,43.22,-1.38,0.47173450211698126,0.9800925998077096,0.7374421169508504,0.730877332242849,0.39697735113966215,0.22913817026374667
43.355,43.28,-1.44,0.4715724835659935,0.9808521442229364,0.7374119763701598,0.7308078252089448,0.3961526941546978,0.22957856662289988
43.438,43.33,-1.47,0.4714028001626425,0.9815997183598697,0.7373707428122095,0.7307409909539561,0.3953193314345386,0.23004187079244068
43.459,43.39,-1.4,0.4712263893312698,0.9823350715282833,0.7373186903218181,0.7306765327508392,0.3944778561844053,0.2305280614723616
43.501,43.44,-1.39,0.4710442083818511,0.9830579555385316,0.737256113116672,0.7306141559148263,0.39362887791065404,0.2310370927890094
43.563,43.5,-1.4,0.4708572324931748,0.9837681251228902,0.7371833246545638,0.7305535681466057,0.39277302192837965,0.2315688943626999
43.626,43.55,-1.41,0.47066645266770296,0.9844653383694475,0.7371006566740519,0.7304944798826323,0.3919109288245012,0.2321233714036652
43.688,43.6,-1.31,0.47047287366183005,0.985149357166956,0.7370084582100671,0.7304366046516311,0.3910432538768013,0.2327004048360011
43.749,43.66,-1.37,0.47027751189545686,0.9858199476589986,0.7369070945860771,0.7303796594363043,0.3901706664295453,0.2332998514492363
43.83,43.72,-1.43,0.4700813933449742,0.9864768807057692,0.7367969463845248,0.7303233650391837,0.38929384922646465,0.2339215440771048
43.85,43.77,-1.31,0.4698855514238794,0.9871199323517054,0.7366784083973491,0.7302674464514634,0.38841349770204636,0.23456529180306226
43.892,43.83,-1.38,0.4696910248553464,0.9877488842971741,0.736551888558491,0.7302116332235454,0.3875303192322086,0.2352308801920601
43.954,43.88,-1.44,0.46949885554108145,0.988363524372383,0.7364178068603604,0.7301556598359569,0.3866450323455362,0.2359180715480901
44.016,43.94,-1.37,0.4693100864306757,0.9889636470117521,0.7362765942562606,0.7300992660693097,0.3857583658963329,0.2366266051970057
44.057,43.99,-1.36,0.46912575939549644,0.9895490537270515,0.7361286915507826,0.7300421973720272,0.3848710582008152,0.23735619779410014
44.18,44.05,-1.39,0.4689469131110306,0.9901195535776378,0.7359745482802201,0.7299842052245931,0.3839838561378327,0.23810654365589573
44.2,44.1,-1.4,0.46877458095147106,0.9906749636361263,0.7358146215850642,0.7299250474991188,0.38309751421555777,0.23887731511558372
44.22,44.16,-1.32,0.46860978890020577,0.9912151094479003,0.7356493750766271,0.7298644888130934,0.38221279360567495,0.23966816290154233
44.261,44.21,-1.39,0.4684535534797732,0.9917398254829435,0.7354792776998249,0.7298023008762401,0.381330461146713,0.24047871653834893
44.322,44.27,-1.46,0.468306879704804,0.9922489555785877,0.7353048025941272,0.7297382628294621,0.3804512883182605,0.24130858476969808
44.383,44.32,-1.33,0.46817075906146016,0.9927423533718437,0.7351264259546705,0.7296721615749093,0.37957605018791285,0.24215735600263116
44.444,44.38,-1.4,0.46804616751691897,0.9932198827200462,0.7349446258955317,0.729603792096218,0.3787055243328805,0.24302459877248572
44.527,44.43,-1.46,0.46793406356246214,0.99368141810858,0.7347598813171583,0.7295329577680106,0.3778404897382483,0.24390986222799316
44.547,44.49,-1.41,0.467835386293656,0.9941268450445572,0.7345726707799287,0.7294594706537944,0.3769817256739268,0.24481267663596618
44.608,44.54,-1.41,0.4677510535310081,0.9945560604354274,0.7343834713858005,0.7293831517914595,0.37613001055239836,0.2457325539050004
44.649,44.6,-1.46,0.46768195998441553,0.9949689729515659,0.7341927576700135,0.729303831465619,0.37528612076940177,0.24666898812758675
44.712,44.65,-1.5,0.4676289754646016,0.9953655033719501,0.7340010005048114,0.729221349466075,0.3744508295297206,0.24762145614001432
44.774,44.71,-1.41,0.4675929431445146,0.9957455849121253,0.7338086660171137,0.7291355553317943,0.3736249056602712,0.24858941809942142
44.835,44.76,-1.48,0.4675746778733812,0.9961091635337521,0.7336162145220098,0.729046308579872,0.37280911241270037,0.24957231807732846
44.92,44.82,-1.55,0.467574964545809,0.9964561982350636,0.7334240994738859,0.7289534789190556,0.3720042062577164,0.25056958466896734
44.941,44.87,-1.41,0.4675945565280923,0.9967866613215736,0.7332327664369386,0.7288569464474672,0.3712109356733949,0.2515806316176999
44.982,44.92,-1.45,0.46763417414372177,0.9971005386563371,0.7330426520767858,0.7287566018341974,0.37043003992973306,0.25260485845380276
45.043,44.98,-1.5,0.46769450322003087,0.9973978298890456,0.7328541831748321,0.7286523464844779,0.36966224787176216,0.2536416511468927
45.124,45.03,-1.46,0.4677761936978453,0.9976785486633022,0.7326677756669624,0.7285440926882086,0.3689082767035981,0.25469038277126027
45.144,45.09,-1.46,0.46787985830597345,0.9979427228014779,0.7324838337080473,0.728431763751681,0.368168830775906,0.25575041418333566
45.206,45.15,-1.51,0.468006071302408,0.9981903944666121,0.7323027487636858,0.7283152941123734,0.3674446003793505,0.25682109471046455
45.268,45.2,-1.55,0.4681553672841081,0.9984216203008681,0.7321248987305524,0.7281946294367281,0.3667362605466585,0.25790176285013794
45.33,45.26,-1.47,0.4683282400671532,0.998636471540165,0.731950647086625,0.7280697267008818,0.3660444698659537,0.2589917469787842
45.37,45.31,-1.57,0.46852514163893183,0.998835034104692,0.7317803420724824,0.7279405542543829,0.3653698693080377,0.26009036606919594
45.452,45.37,-1.66,0.4687464811838881,0.9990174086651058,0.7316143159047752,0.7278070918669601,0.36471308107027883,0.26119693041561526
45.493,45.42,-1.62,0.4689926241841761,0.9991837106842404,0.7314528840229021,0.7276693307584163,0.36407470743974507,0.2623107423654512
45.554,45.48,-1.67,0.46926389159640874,0.9993340704341901,0.7312963443698856,0.727527273611677,0.36345532967814975,0.2634310970565644
45.637,45.53,-1.71,0.4695605591055003,0.9994686329885822,0.7311449767083913,0.7273809345689677,0.36285550693104857,0.2645572831590599
45.656,45.59,-1.71,0.46988285645634936,0.9995875581898325,0.7309990419727602,0.7272303392110409,0.3622757751635598,0.2656885836205691
45.72,45.64,-1.69,0.4702309668638615,0.9996910205911118,0.7308587816578324,0.7270755245193451,0.36171664612472765,0.26682427641403583
45.781,45.7,-1.74,0.47060502650161146,0.999779209372691,0.7307244172452642,0.726916538820996,0.3611786063425288,0.2679636352870524
45.823,45.75,-1.76,0.4710051240692787,0.9998523282323278,0.7305961496679608,0.7267534417164196,0.3606621161514175,0.2691059305118244
45.865,45.81,-1.66,0.4714313004388773,0.9999105952493945,0.7304741588131359,0.7265863039896,0.36016760875423637,0.2702504296348798
45.927,45.86,-1.75,0.4718835483797521,0.9999542427225444,0.7303586030644056,0.726415207500938,0.35969548932026235,0.2713963982256586
46.01,45.92,-1.83,0.4723618123623271,0.9999835169807713,0.7302496188832419,0.726240245062782,0.35924613412112577,0.27254310062313386
46.03,45.97,-1.72,0.4728659884406231,0.9999986781678222,0.730147320430038,0.7260615202977323,0.35881988970631856,0.2736898006796125
46.091,46.03,-1.76,0.473395924213618,1.0,0.7300517992250175,0.7258791474798462,0.35841707211997986,0.2748357625008761
46.154,46.08,-1.82,0.47395141886554887,0.9999877694974662,0.7299631238492089,0.7256932513588712,0.35803796616057476,0.2759802511818584
46.194,46.14,-1.81,0.4745322232851654,0.9999622866893028,0.7298813396857022,0.725503966967664,0.3576828246850108,0.2771225335370995
46.255,46.19,-1.8,0.4751380402637876,0.9999238642927509,0.7298064687013719,0.7253114394129823,0.3573518679586786,0.2782618788252349
46.317,46.25,-1.87,0.47576852477188886,0.9998728273671541,0.729738509269261,0.7251158236498537,0.3570452830528432,0.2793975594667921
46.381,46.3,-1.91,0.4764232843137945,0.9998095129432196,0.7296774360317864,0.7249172842397538,0.35676322329071547,0.28052885175459774
46.422,46.35,-1.81,0.4771018793599035,0.9997342696282715,0.7296231998048792,0.7247159950928738,0.3565058077434197,0.281655036556136
46.485,46.41,-1.9,0.47780382385562487,0.9996474571882182,0.7295757275231249,0.724512139194809,0.35627312077693896,0.2827754000072227
46.524,46.47,-1.96,0.4785285858059606,0.9995494461069993,0.7295349222258923,0.7243059083180399,0.3560652116509881,0.2838892341963673
46.586,46.52,-1.86,0.4792755879344177,0.999440617124317,0.7295006630843834,0.7240975027186299,0.35588209417065575,0.28499583783918064
46.647,46.58,-1.9,0.4800442084147613,0.9993213607524806,0.7294728054694821,0.72388713081859,0.35572374639155446,0.2860945169421622
46.75,46.63,-1.96,0.4808337816740329,0.9991920767732236,0.7294511810602464,0.7236750088743795,0.3555901103791085,0.28718458545519754
46.771,46.69,-1.94,0.4816435992651659,0.9990531737154257,0.7294355979928187,0.7234613606320731,0.3554810920225096,0.28826536591210034
46.833,46.74,-1.92,0.4824729108074528,0.9989050683147955,0.7294258410494621,0.72324641696979,0.35539656090378763,0.28933619005852884
46.854,46.8,-1.97,0.4833209249931075,0.9987481849566383,0.7294216718873987,0.723030415528022,0.3553363502223571,0.2903963994666138
46.914,46.85,-2.0,0.4841868106581811,0.998582955102875,0.7294228293070972,0.722813600328491,0.3553002567752943,0.2914453461356614
46.976,46.91,-1.89,0.4850696979160906,0.9984098167045047,0.729429029559636,0.7225962213821595,0.35528804099349315,0.2924823930783331
47.018,46.96,-1.97,0.4859686793520187,0.9982292136006896,0.7294399666927254,0.7223785342870124,0.35529942703375217,0.29350691489173325
47.099,47.02,-2.05,0.48688281127642263,0.9980415949056151,0.7294553129349267,0.722160799816211,0.355334102926758,0.2945182983128599
47.141,47.07,-1.96,0.48781111503583846,0.9978474143842524,0.7294747191175386,0.72194328349724,0.3553917207808573,0.29551594275788434
47.183,47.13,-1.99,0.4887525783790738,0.9976471298181113,0.7294978151335776,0.7217262551826645,0.35547189704142096,0.2964992608447249
47.244,47.18,-2.02,0.4897061568767362,0.9974412023620652,0.7295242104332035,0.7215099886131112,0.35557421280547824,0.2974676788984031
47.306,47.24,-2.0,0.49067077539178083,0.9972300958933632,0.7295534945548311,0.7212947609731569,0.3556982141911596,0.2984206374387042
47.347,47.29,-1.96,0.4916453295984841,0.9970142763540232,0.7295852376910208,0.7210808524409086,0.35584341276138354,0.2993575916496804
47.409,47.35,-2.01,0.49262868754708317,0.9967942110878177,0.7296189912881396,0.720868545732158,0.35600928600114473,0.3002780118305555
47.51,47.4,-2.03,0.4936196912712793,0.9965703681730638,0.7296542886787114,0.7206581256400307,0.35619527784769056,0.3011813838276218
47.53,47.46,-1.9,0.4946171584358586,0.9963432157523968,0.7296906457453461,0.7204498785710437,0.356400799272814,0.30206720944676224
47.571,47.51,-1.98,0.49561988402181095,0.996113221360645,0.7297275616151223,0.7202440920784332,0.3566252289164375,0.30293500684626745
47.632,47.57,-2.04,0.49662664204647483,0.995880851251846,0.7297645193833021,0.7200410543935502,0.356867913770614,0.30378431090964525
47.693,47.62,-1.95,0.49763618731633424,0.995646569726411,0.729800986865248,0.7198410539560902,0.35712816991303936,0.30461467359814165
47.734,47.67,-1.99,0.4986472572101858,0.9954108384594076,0.7298364173754197,0.7196443789438786,0.35740528328913584,0.3054256642826978
47.836,47.73,-2.04,0.4996585734904365,0.9951741158309066,0.7298702505323332,0.7194513168029054,0.3576985105416976,0.3062168700551061
47.856,47.78,-2.03,0.5006688441402262,0.9949368562593757,0.7299019130883162,0.7192621537783043,0.35800707988698527,0.3069878960181784
47.897,47.84,-1.99,0.5016767652238967,0.9946995095391732,0.7299308197828257,0.7190771744470241,0.3583301920360484,0.3077383655547832
47.959,47.9,-2.03,0.5026810227681026,0.9944625201833033,0.7299563742180276,0.7188966612529822,0.3586670211599356,0.30846792057564654
48.042,47.95,-2.05,0.5036802946605573,0.9942263267727004,0.7299779697552805,0.7187208940454995,0.35901671589732526,0.30917622174584936
48.063,48.01,-1.92,0.5046732525630844,0.9939913613134241,0.7299949904311186,0.7185501496218167,0.35937840040299907,0.3098629486899786
48.126,48.06,-1.99,0.505658563835397,0.993758048603189,0.7300068118912835,0.7183847012744474,0.35975117543550145,0.3105278001759012
48.206,48.12,-2.04,0.5066348934659439,0.9935268056086319,0.7300128023413144,0.7182248183440855,0.3601341194822781,0.31117049427713517
48.248,48.17,-1.95,0.507600906006176,0.9932980408546767,0.7300123235121622,0.718070765778751,0.3605262899205698,0.3117907685137953
48.288,48.23,-1.97,0.5085552675047499,0.9930721538273031,0.7300047316392961,0.7179228036998034,0.3609267242123263,0.3123883799721004
48.348,48.28,-1.97,0.5094966474384015,0.9928495343909302,0.7299893784537774,0.7177811869753775,0.36133444113135754,0.312963105402466
48.39,48.34,-1.95,0.5104237206364213,0.9926305622215537,0.7299656121837905,0.7176461648017471,0.36174844202089274,0.3135147412962564
48.452,48.39,-1.9,0.5113351691958081,0.992415606256723,0.7299327785650852,0.7175179802931325,0.3621677120796892,0.3140431039412991
48.514,48.45,-1.94,0.5122296843843476,0.9922050241633833,0.7298902218587776,0.7173968700804778,0.3625912216748313,0.31454802945628074
48.576,48.5,-1.98,0.513105968528999,0.9919991618245413,0.7298372858749288,0.7172830639197376,0.36301792767936236,0.31502937380415547
48.637,48.56,-1.86,0.5139627368870744,0.9917983528456569,0.7297733150003118,0.7171767843102137,0.3634467748328883,0.31548701278470903
48.699,48.61,-1.95,0.5147987194977525,0.9916029180815937,0.729697655228783,0.7170782461234384,0.36387669712328075,0.3159208420064338
48.74,48.67,-2.01,0.5156126630114799,0.991413165184895,0.7296096551926889,0.7169876562430538,0.36430661918756996,0.31633077683788974
48.783,48.72,-1.92,0.5164033324947547,0.9912293881761041,0.7295086671937571,0.7169052132160906,0.36473545773007643,0.3167167523387457
48.844,48.78,-1.93,0.5171695132077173,0.9910518670367877,0.7293940482319302,0.7168311069160057,0.36516212295576395,0.3170787231707039
48.948,48.83,-1.94,0.5179100123519257,0.9908808673258276,0.7292651610306247,0.7167655182177858,0.3655855200166991,0.317416663488544
48.969,48.89,-1.92,0.5186236607856302,0.9907166398194435,0.7291213750568573,0.7167086186853828,0.3660045504694147,0.3177305668115626
49.009,48.94,-1.85,0.5193093147038803,0.9905594201753439,0.7289620675346636,0.7166605702717546,0.36641811374093125,0.31802044587571016
49.051,49.0,-1.88,0.5199658572809368,0.9904094286213073,0.728786624450227,0.7166215250317657,0.36682510860119755,0.31828633246674876
49.113,49.05,-1.89,0.5205922002727126,0.9902668696684026,0.7285944415471418,0.7165916248481984,0.36722443463974086,0.318528277234782
49.174,49.1,-1.74,0.5211872855772396,0.9901319318489938,0.7283849253102563,0.7165710011711266,0.367614993744365,0.31874634949052916
49.235,49.16,-1.81,0.5217500867514197,0.9900047874795973,0.7281574939365497,0.7165597747709166,0.3679956915798048,0.3189406369837275
49.298,49.22,-1.86,0.5222796104825118,0.9898855924486423,0.7279115782915223,0.7165580555051313,0.36836543906431224,0.3191112456640524
49.338,49.27,-1.78,0.5227748980129326,0.9897744860292129,0.7276466228496086,0.7165659420996336,0.3687231538422454,0.31925829942493716
49.38,49.33,-1.8,0.5232350265170739,0.9896715907168425,0.7273620866171944,0.7165835219441484,0.36906776175079753,0.31938193983066215
49.442,49.38,-1.82,0.5236591104290041,0.9895770120923946,0.7270574440369154,0.7166108709024661,0.3693981982790308,0.31948232582711095
