Time_Host,Time_Arduino,easingdata,CH1_Oxy,CH1_Deoxy,CH2_Oxy,CH2_Deoxy,CH3_Oxy,CH3_Deoxy
1.236,0.04,0.0,0.25046765903525137,0.0,0.16399965904860672,0.0,0.196697230147743,0.0
1.257,0.1,0.0,0.24682325513729056,0.0011242753260348667,0.16114581131416042,0.003227171389509737,0.19590987310327368,0.000857678029224072
1.299,0.15,0.0,0.2431854063137597,0.0022363304032692413,0.1583046090334739,0.0064403145564561025,0.1951165430375275,0.0017030867178247627
1.319,0.21,0.0,0.2395554669241049,0.003335688081650843,0.15547716101479744,0.009638213688174354,0.1943174621245687,0.002535837541952937
1.34,0.26,0.0,0.2359347859826198,0.004421882167209961,0.1526645649741853,0.012819668783184471,0.19351285827715475,0.0033555537569994027
1.362,1.05,0.0,0.23232470621791146,0.00549445786573353,0.14986790667551,0.0159834967632672,0.19270296514982335,0.004161870847164156
1.382,1.11,0.0,0.22872656315283055,0.006552972210580207,0.14708825909416537,0.01912853255857179,0.19188802214284117,0.004954436960721646
1.444,1.16,0.0,0.22514168420575198,0.007596994474158182,0.14432668160541173,0.022253630164222517,0.19106827440688373,0.005732913330394682
1.505,1.22,0.0,0.2215713878140251,0.00862610656262368,0.1415842191982602,0.025357663666939704,0.19024397284829528,0.006496974678276936
1.526,1.27,0.0,0.21801698258035215,0.00963990339339388,0.138861901715734,0.028439528240236895,0.18941537413475382,0.0072463096047707485
1.589,1.33,0.02,0.21447976644279382,0.010637993255101905,0.13616074312229243,0.031498141106798175,0.18858274070114736,0.007980620961032461
1.63,1.38,-0.04,0.21096102586905113,0.011619998149652765,0.1334817407991551,0.03453244246667744,0.1877463407554466,0.008699626204440553
1.711,1.44,-0.04,0.2074620350756354,0.012585554116064084,0.13082587486822952,0.037541396389994215,0.18690644828434083,0.009403057736623057
1.751,1.49,0.03,0.20398405527251232,0.013534311535798867,0.12819410754531885,0.04052399167283884,0.18606334305838226,0.010090663223608168
1.813,1.55,-0.06,0.20052833393377217,0.014465935419335874,0.1255873825232497,0.0434792426551788,0.18521731063635188,0.010762205897706026
1.874,1.6,-0.08,0.1970961040948141,0.015380105673788674,0.12300662438548987,0.04640618999970125,0.18436864236852848,0.011417464840783514
1.935,1.66,-0.01,0.1936885836764334,0.016276517351458113,0.12045273805072135,0.04930390143070522,0.18351763539851093,0.012056235248639025
1.978,1.71,0.0,0.19030697483608844,0.01715488087925201,0.11792660824872217,0.05217147243230881,0.1826645926632131,0.012678328676216336
2.017,1.77,-0.03,0.18695246334649557,0.018014922268925954,0.11542909902779751,0.0550080269053551,0.1818098228906153,0.013283573263423094
2.079,1.82,0.03,0.18362621800157042,0.018856383308111076,0.11296105329388681,0.05781271778252661,0.18095364059483476,0.013871813941336734
2.141,1.88,0.08,0.1803293900496233,0.0196790217321159,0.11052329238137158,0.06058472760132993,0.18009636606807727,0.014442912618590978
2.182,1.93,0.05,0.1770631126536361,0.020482611376536425,0.10811661565552926,0.06332326903477423,0.17923832536905046,0.014996748347760422
2.246,1.99,0.05,0.17382850037839126,0.02126694231079378,0.10574180014651136,0.06602758537973871,0.17837985030744327,0.015533217471607724
2.307,2.04,0.15,0.170626648704187,0.022031820952823918,0.10339960021466787,0.06869695100318993,0.17752127842410959,0.01605223374910522
2.37,2.1,0.12,0.1674586335668444,0.02277707016523006,0.10109074724699263,0.0713306717465406,0.17666295296663034,0.016553728461171067
2.432,2.15,0.07,0.16432551092368802,0.023502529333252774,0.09881594938441518,0.07392808528853295,0.17580522285996336,0.01703765049606607
2.473,2.21,0.11,0.16122831634515458,0.024208054424905322,0.09657589127960788,0.0764885614670826,0.17494844267192916,0.01750396641438391
2.535,2.26,0.12,0.15816806463166194,0.024893518033562278,0.09437123388492782,0.07901150256052332,0.17409297257331632,0.01795266049354847
2.619,2.32,0.04,0.1551457494553461,0.025558809403200586,0.09220261427007347,0.08149634352866053,0.1732391782924073,0.018383734751732172
2.64,2.37,0.1,0.15216234302622927,0.026203834436417026,0.09007064546899458,0.08394255221403785,0.17238743106372728,0.018797208951134257
2.682,2.43,0.15,0.1492187957823205,0.026828515685305157,0.08797591635554552,0.08634962950387154,0.17153810757081558,0.019193120580596645
2.744,2.48,0.1,0.14631603610308222,0.027432792325271273,0.08591899154732366,0.08871710945319174,0.17069158988281768,0.019571524817578217
2.806,2.54,0.1,0.14345497004563204,0.028016620111903916,0.08390041133708089,0.09104455936982522,0.16984826538470424,0.01993249446955266
2.848,2.59,0.18,0.14063648110300064,0.028579971321078017,0.0819206916510426,0.09333157986194597,0.16900852670094982,0.02027611989492961
2.909,2.65,0.16,0.13786142998373108,0.029122834672551525,0.07998032403341986,0.095577804848984,0.16817277161253416,0.020602508903625437
2.991,2.7,0.11,0.13513065441207484,0.02964521523738098,0.07807977565635738,0.09778290153672185,0.16734140296716316,0.020911786637434645
3.032,2.76,0.15,0.13244496894801558,0.030147134329525573,0.07621948935452133,0.09994657035743805,0.16651482858263872,0.021204095430372327
3.074,2.81,0.15,0.12980516482634386,0.0306286293820093,0.07439988368351222,0.10206854487596512,0.16569346114334352,0.021479594649172706
3.116,2.87,0.06,0.12721200981401484,0.031089753807979622,0.07262135300129238,0.10414859166252445,0.1648777180898307,0.021738460514152905
3.179,2.92,0.04,0.12466624808502624,0.03153057684697346,0.0708842675718294,0.10618651013320414,0.16406802150151958,0.021980885900684432
3.24,2.98,0.08,0.12216860011203888,0.031951183396688995,0.06918897369016595,0.10818213235896804,0.1632647979724972,0.02220708012154926
3.28,3.03,0.02,0.11971976257393474,0.03235167383055588,0.06753579382812644,0.11013532284409326,0.1624684784804049,0.022417268690491574
3.343,3.09,-0.09,0.11732040827845344,0.032732163801394515,0.06592502679985328,0.11204597827493229,0.16167949824835512,0.022611693067307752
3.424,3.14,-0.01,0.11497118609899383,0.03309278403145634,0.06435694794633134,0.11391402723989136,0.1608982965997807,0.022790610384832672
3.446,3.2,-0.01,0.11267272092463597,0.03343368008912992,0.06283180933802877,0.11573942992148954,0.16012531680607456,0.02295429315817943
3.505,3.25,-0.09,0.11042561362245006,0.03375501215258298,0.0613498399947643,0.1175221777613062,0.159361005926823,0.02310302897658909
3.567,3.31,-0.04,0.10823044101120095,0.03405695476059917,0.059911246121903905,0.11926229309856431,0.15860581464238754,0.02323712017824759
3.629,3.36,0.01,0.10608775584561701,0.034339696550870116,0.058516211361994044,0.12095982878305071,0.15786019707856566,0.023356883508427462
3.712,3.42,-0.09,0.10399808681044861,0.0346034399860284,0.057164897060950806,0.12261486776305787,0.157124610623051,0.02346264976132472
3.734,3.47,-0.1,0.10196193852357756,0.03484840106776677,0.05585744254792896,0.1242275226490695,0.15639951573341296,0.023554763405989117
3.797,3.53,-0.04,0.0999797915474534,0.035074809039466776,0.05459396542798844,0.12579793525398628,0.15568537573631816,0.02363358219676876
3.859,3.58,-0.14,0.09805210240813206,0.035282906077823854,0.05337456188666611,0.12732627611075276,0.15498265661771202,0.023699476768698952
3.899,3.64,-0.17,0.09617930362117551,0.03547294697398899,0.05219930700554466,0.1288127439682689,0.1542918268036571,0.023752830218267844
3.961,3.69,-0.1,0.09436180372364239,0.035645198804742116,0.05106825508788877,0.1302575652664596,0.15361335693149658,0.023794037669999296
4.024,3.75,-0.06,0.09259998731138125,0.035799940594166635,0.049981439993400816,0.13166099359132707,0.15294771961097342,0.023823505829321433
4.086,3.8,-0.11,0.09089421508085045,0.0359374629662232,0.04893887548114009,0.13302330911074564,0.15229538917490573,0.023841652522241897
4.107,3.86,-0.05,0.08924482387474432,0.03605806778855339,0.047940555559649246,0.1343448179917117,0.15165684141900973,0.023848906222407578
4.17,3.91,0.01,0.08765212673079995,0.03616206780779259,0.04698645484334657,0.13562585179974265,0.151032553330487,0.023845705566162667
4.231,3.97,-0.04,0.08611641293327486,0.036249786276645476,0.04607652891427705,0.1368667668811091,0.1504230028050379,0.023832498856238827
4.272,4.02,-0.04,0.08463794806668422,0.03632155657299196,0.04521071468834868,0.13806794372859804,0.14982866835201403,0.023809743554722942
4.353,4.08,0.05,0.08321697407145363,0.03637772181134196,0.04438893078519932,0.13922978633155028,0.14925002878747426,0.023777905765950912
4.394,4.13,0.01,0.08185370930118029,0.036418634447015714,0.04361107790084287,0.1403527215109586,0.14868756291495824,0.02373745970996974
4.457,4.19,-0.08,0.08054834858120351,0.03644465587347103,0.04287703918223708,0.1414371982404427,0.14814174919383183,0.023688887187197406
4.498,4.24,-0.02,0.07930106326817248,0.03645615601321547,0.04218668060290311,0.14248368695393848,0.14761306539509758,0.023632677034886904
4.561,4.3,0.03,0.07811200131028831,0.036453512902709775,0.041539851338729596,0.1434926788409397,0.1471019882445921,0.02356932457597593
4.601,4.35,-0.03,0.07698128730789497,0.036437112271599875,0.04093638414311609,0.14446468513010755,0.14660899305350444,0.02349933106089946
4.663,4.41,-0.01,0.07590902257409148,0.036407347116552684,0.04037609572064167,0.14540023636204158,0.14613455333615244,0.02342320310296071
4.727,4.46,0.07,0.0748952851950391,0.03636461726995507,0.03985878709847574,0.14629988165201324,0.14567914041497404,0.023341452107877886
4.81,4.52,0.04,0.07394013008965364,0.03630932896376954,0.03938424399478347,0.14716418794348995,0.14524322301272313,0.02325459369814398
4.83,4.57,0.0,0.07304358906840905,0.036241894388908305,0.03895223718341058,0.1479937392533137,0.14482726683190356,0.02316314713285169
4.894,4.63,0.09,0.07220567089103215,0.03616273125055713,0.03856252285416051,0.14878913590943177,0.14443173412152638,0.023067634723633965
4.934,4.68,0.11,0.07142636132292969,0.03607226231992428,0.03821484296800923,0.14955099378208214,0.14405708323133187,0.022968581247355003
4.995,4.74,0.05,0.07070562319024612,0.03597091498290571,0.03790892560663602,0.1502799435093224,0.14370376815366878,0.02286651335617613
5.077,4.79,0.08,0.0700433964334965,0.035859120786161845,0.03764448531567195,0.15097662971780657,0.1433722380532736,0.02276195898561928
5.138,4.85,0.1,0.06943959815975569,0.03573731498110597,0.03742122344108513,0.15164171023975834,0.14306293678525117,0.022655446761253247
5.178,4.9,0.04,0.06889412269341243,0.03560593606631573,0.03723882845814683,0.15227585532712865,0.14277630240161004,0.022547505404639796
5.219,4.96,0.06,0.06840684162550258,0.03546542532891142,0.037096976292457264,0.15287974686392858,0.142512766646747,0.02243866313920237
5.26,5.01,0.15,0.06797760386162886,0.03531622638548617,0.03699533063255479,0.15345407757769408,0.14227275444230708,0.02232944709670293
5.321,5.07,0.12,0.06760623566847228,0.03515878472319809,0.03693354323368246,0.15399955025097128,0.1420566833618749,0.022220382725018525
5.383,5.12,0.08,0.06729254071891874,0.034993547241638,0.03691125421233267,0.15451687693364077,0.14186496309599306,0.02211199319789478
5.424,5.18,0.14,0.06703630013587324,0.03482096179607261,0.03692809233123267,0.15500677815684558,0.1416979949080608,0.02200479882731959
5.485,5.23,0.15,0.06683727253490838,0.034641476742644096,0.03698367527447897,0.1554699821492541,0.1415561710817334,0.021899316479126144
5.568,5.29,0.09,0.06669519406597231,0.034455540486100875,0.037077609912574395,0.15590722405638002,0.14143987436049893,0.021796058992427942
5.61,5.34,0.12,0.0666097784544387,0.034263601030660853,0.03720949255715688,0.15631924516372175,0.14134947738015954,0.02169553460351453
5.711,5.4,0.15,0.06658071704182351,0.03406610553466052,0.037378909205242096,0.15670679212455857,0.1412853420949944,0.021598246374878647
5.731,5.45,0.07,0.06660767882652155,0.033863499869704106,0.03758543577284387,0.15707061619331503,0.1412478191984246,0.021504691630091895
5.773,5.51,0.03,0.06669031050492658,0.03365622818508936,0.03782863831789162,0.15741147246545173,0.14123724753903855,0.021415361395284455
5.837,5.56,0.1,0.06682823651329,0.03344473247832407,0.0381080732524394,0.15773011912484602,0.14125395353286302,0.021330739848002347
5.918,5.62,0.09,0.0670210590706616,0.03322945217252446,0.0384232875442525,0.1580273166995639,0.14129825057278153,0.021251303774210695
5.939,5.67,0.03,0.06726835822324993,0.03301082370138543,0.038773818907937366,0.15830382732680606,0.14137043843600403,0.021177522034192323
5.979,5.73,0.1,0.06756969189054987,0.03278928010225963,0.03915919598583796,0.15856041402766752,0.141470802690506,0.02110985503805824
6.043,5.78,0.12,0.06792459591362605,0.03256525061772096,0.03957893851897437,0.15879783999219615,0.1415996141013805,0.021048754231549487
6.083,5.84,0.06,0.06833258410601359,0.032339160305874186,0.040032557508363986,0.15901686787509534,0.14175712803808357,0.02099466159278898
6.145,5.89,0.04,0.06879314830777816,0.03211142965963762,0.0405195553671262,0.15921825910235313,0.14194358388359402,0.02094800914063995
6.206,5.95,0.09,0.06930575844335411,0.03188247423525031,0.04103942606382338,0.15940277318909293,0.14215920444655278,0.020909218455328726
6.29,6.0,0.03,0.06986986258384541,0.03165270429029587,0.04159165525753634,0.15957116706897362,0.14240419537747956,0.02087870021198886
6.309,6.06,-0.03,0.07048488701451569,0.03142252443157235,0.0421757204252113,0.15972419443549185,0.14267874459018448,0.020856853727781892
6.37,6.11,0.03,0.07115023630820547,0.031192333273165486,0.04279109098184801,0.15986260509553912,0.1429830216895009,0.02084406652323903
6.431,6.17,-0.0,0.07186529340540179,0.030962523105089432,0.043437228394135205,0.15998714433553327,0.14331717740646932,0.02084071389845048
6.473,6.22,-0.07,0.07262941970165326,0.03073347957284443,0.0441135862881708,0.1600985523003963,0.14368134304209873,0.020847158524717562
6.534,6.28,-0.03,0.07344195514297287,0.03050558136821041,0.04481961055192109,0.16019756338561997,0.14407562992081918,0.0208637500522747
6.594,6.33,0.02,0.07430221832981784,0.030279199931547214,0.04555473943308578,0.16028490564264317,0.14450012885473767,0.020890824734674133
6.656,6.39,-0.04,0.07520950663019327,0.030054699165814207,0.04631840363305619,0.16036130019773978,0.14495490961980287,0.020928705070406867
6.718,6.44,-0.06,0.07616309630239942,0.029832435162487368,0.04711002639767697,0.16042746068459196,0.14544002044499152,0.020977699462309273
6.76,6.5,0.01,0.07716224262794162,0.029612755939554113,0.047929023605545754,0.16048409269071184,0.14595548751564613,0.021038101895267374
6.823,6.55,-0.04,0.07820618005515068,0.02939600119177896,0.04877480385461542,0.16053189321783176,0.14650131449211642,0.021110191632683968
6.887,6.61,-0.1,0.07929412235411162,0.029182502053423015,0.049646768547890574,0.16057155015630215,0.14707748204487459,0.021194232932127823
6.928,6.66,-0.05,0.08042526278354892,0.028972580873556773,0.050544311979025695,0.1606037417734501,0.14768394740728413,0.021290474780540025
7.052,6.72,-0.07,0.0815987742703602,0.028766551004039898,0.05146682141863504,0.16062913621578834,0.1483206439472097,0.021399150649332305
7.073,6.77,-0.16,0.08281380960251299,0.028564716600178165,0.0524136772021125,0.16064839102494174,0.14898748075864748,0.02152047826968986
7.094,6.83,-0.17,0.08406950163601118,0.028367372434029717,0.05338425281973151,0.1606621526672048,0.149684342274538,0.021654659428390895
7.156,6.88,-0.15,0.08536496351660183,0.028174803720324527,0.05437791500976816,0.16067105607671534,0.15041108790189872,0.021801879784468115
7.217,6.94,-0.21,0.08669928891682614,0.02798728595497655,0.05539402385537672,0.16067572421229523,0.1511675516803744,0.021962308707059626
7.258,6.99,-0.25,0.0880715522889181,0.027805084766202453,0.05643193288593067,0.1606767676280558,0.1519535419652521,0.02213609913481445
7.32,7.05,-0.18,0.08948080913394114,0.02762845577829396,0.0574909891835091,0.16067478405790195,0.1527688411359356,0.022323387457211245
7.382,7.1,-0.18,0.09092609628746341,0.02745764448809807,0.058570533495166804,0.16067035801408155,0.15361320533082926,0.02252429341811618
7.403,7.16,-0.2,0.0924064322220237,0.027292886154241087,0.059669900351584114,0.16066406039992126,0.1544863642095446,0.022738920041862495
7.466,7.21,-0.14,0.09392081736663482,0.02713440569910109,0.06078841819265632,0.16065644813688948,0.1553880207433255,0.02296735358207989
7.527,7.27,-0.14,0.09546823444359681,0.02698241762349328,0.06192540950056319,0.1606480638061257,0.15631785103458853,0.023209663493430167
7.587,7.32,-0.22,0.09704764882292863,0.026837125933995582,0.06308019094085515,0.1606394353045776,0.15727550416649283,0.023465902426320826
7.629,7.38,-0.24,0.09865800889474767,0.02669872408282893,0.06425207351208333,0.16063107551591424,0.15826060208347006,0.02373610624458622
7.691,7.43,-0.19,0.10029824645992706,0.026567394920218323,0.06544036270448367,0.1606234819964433,0.15927273950364906,0.0240202940660583
7.754,7.49,-0.3,0.10196727713934903,0.02644331065917254,0.06664435866820649,0.16061713667630495,0.16031148386408556,0.024318468325901097
7.815,7.54,-0.36,0.10366400080205641,0.02632663285261376,0.06786335639156259,0.1606125055762181,0.16137637529965954,0.024630614862541672
7.878,7.6,-0.32,0.10538730201257407,0.026217512382754944,0.069096645889726,0.16061003854001485,0.1624669266564385,0.02495670302597579
7.919,7.65,-0.32,0.10713605049761722,0.0261160894625683,0.07034351240430134,0.16061016898312816,0.1635826235402294,0.025296685808165086
7.981,7.71,-0.4,0.10890910163231872,0.026022493649142938,0.07160323661412421,0.16061331365712098,0.16472292440095374,0.02565049999519745
8.042,7.76,-0.37,0.11070529694601096,0.025936843868728125,0.07287509485762021,0.16061987243031792,0.16588726065339282,0.02601806634085764
8.124,7.82,-0.36,0.11252346464752339,0.02585924845330218,0.07415835936701023,0.16063022808461885,0.16707503683477995,0.0263992897612442
8.144,7.87,-0.4,0.11436242016991985,0.02578980518857458,0.07545229851462566,0.16064474612862253,0.16828563079964953,0.026794059550072843
8.186,7.93,-0.41,0.11622096673458594,0.025728601373402094,0.07675617707156791,0.1606637746272669,0.16951839395229187,0.02720224961431848
8.249,7.98,-0.36,0.11809789593457425,0.025675713890658737,0.0780692564789043,0.16068764404828914,0.17077265151710228,0.027623718729843778
8.331,8.04,-0.43,0.11999198833711276,0.0256312092896182,0.07939079513154577,0.1607166671258775,0.17204770284705737,0.02805831081662998
8.352,8.09,-0.46,0.12190201410517362,0.0255951438798704,0.08072004867490412,0.16075113874187996,0.17334282177049595,0.02850585523317351
8.414,8.15,-0.44,0.12382673363798292,0.0255675638367047,0.08205627031438019,0.16079133582485963,0.1746572569763211,0.0289661670895501
8.499,8.2,-0.44,0.1257648982303231,0.02554850531777114,0.08339871113769606,0.16083751726715692,0.17599023243767256,0.029439047578591858
8.521,8.26,-0.53,0.1277152507504277,0.025537994590716557,0.08474662045004396,0.16088992385999026,0.17734094787404156,0.029924284324586978
8.561,8.31,-0.5,0.12967652633618948,0.02553604817141008,0.08609924612197384,0.16094877824655235,0.178708579251713,0.030421651748896536
8.623,8.37,-0.46,0.13164745310932835,0.025542672972316823,0.08745583494988829,0.16101428489303085,0.18009227932233585,0.030930911451879317
8.665,8.42,-0.51,0.13362675290711296,0.0255578664605452,0.08881563302896342,0.16108663007747379,0.18149117819932908,0.03145181261052292
8.726,8.48,-0.52,0.1356131420311981,0.025581616825098238,0.09017788613826172,0.1611659818964424,0.18290438397174205,0.031984092391186034
8.788,8.53,-0.43,0.1376053320131173,0.025613903152897546,0.09154184013774064,0.16125249028943361,0.1843309833551074,0.032527476376842
8.869,8.59,-0.44,0.1396020303959527,0.025654695613183835,0.09290674137679927,0.1613462870810746,0.18577004237876013,0.03308167900817261
8.911,8.64,-0.5,0.14160194153169092,0.025703955649906778,0.09427183711394561,0.16144748604108514,0.18722060710903654,0.03364640403780334
8.973,8.7,-0.45,0.14360376739375746,0.02576163618170097,0.09563637594710851,0.16155618296199237,0.18868170440771906,0.034221344996903894
9.035,8.75,-0.43,0.14560620840420366,0.025827681809013167,0.09699960825407684,0.16167245575457392,0.19015234272505183,0.03480618567331056
9.077,8.81,-0.52,0.1476079642749923,0.0259020290279182,0.09836078664252489,0.16179636456099925,0.1916315129266007,0.03540060060028284
9.119,8.86,-0.53,0.14960773486277104,0.025984606450159722,0.09971916640906428,0.1619279518856631,0.1931181891531646,0.03600425555499011
9.179,8.92,-0.54,0.15160422103644064,0.02607533502897565,0.10107400600674057,0.1620672427437503,0.19461132971286937,0.03661680806582037
9.241,8.97,-0.57,0.15359612555673396,0.02617412829030246,0.10242456752036412,0.16221424482760993,0.19610987800447702,0.03723790792760652
9.284,9.03,-0.58,0.15558215396692934,0.026280892568996746,0.10377011714902154,0.16236894869103702,0.19761276347082707,0.03786719772387714
9.346,9.08,-0.48,0.15756101549372256,0.02639552724977097,0.10510992569505317,0.16253132795157602,0.1991189025811991,0.03850431335524677
9.408,9.14,-0.45,0.1595314239571721,0.02651792501260736,0.10644326905872044,0.16270133951095012,0.20062719984126548,0.03914888457306124
9.448,9.19,-0.5,0.1614920986885215,0.026647972082480712,0.10776942873774005,0.16287892379367497,0.20213654882920937,0.039800535517411674
9.51,9.25,-0.43,0.16344176545462058,0.02678554848327672,0.10908769233083133,0.16306400500384854,0.20364583325652189,0.04045888525862816
9.632,9.3,-0.39,0.16537915738763698,0.026930528295820818,0.11039735404441467,0.1632564914000345,0.20515392805195865,0.041123548341361026
9.653,9.36,-0.43,0.1673030159187638,0.02708277991992296,0.11169771520161127,0.16345627558807221,0.2066597004671048,0.04179413533036881
9.674,9.41,-0.52,0.1692120917146606,0.02724216634030258,0.11298808475272304,0.1636632348315578,0.20816201120196126,0.04247025335715723
9.736,9.47,-0.43,0.17110514561539403,0.02740854539619802,0.11426777978641091,0.16387723137963667,0.2096597155489186,0.04315150666664611
9.798,9.52,-0.46,0.172980949572648,0.027581770054405635,0.11553612604084204,0.1640981128116242,0.21115166455341897,0.04383749716308984
9.838,9.58,-0.37,0.17483828758693762,0.027761688685454925,0.1167924584141092,0.16432571239786833,0.21263670618950986,0.04452782495455568
9.9,9.63,-0.29,0.17667595664249852,0.027948145342606028,0.11803612147322219,0.16455984947621338,0.21411368654839263,0.04522208889534823
9.962,9.69,-0.24,0.17849276763846683,0.02814098004334043,0.11926646996094091,0.16480032984341886,0.2155814510379969,0.04591988712580529
10.002,9.74,-0.27,0.18028754631494043,0.02834002905300442,0.1204828692996818,0.16504694616090862,0.21703884559159078,0.046620817608864086
10.044,9.8,-0.19,0.18205913417251524,0.028545125170277904,0.12168469609169427,0.165299478374296,0.21848471788345383,0.04732447866273839
10.104,9.85,-0.09,0.18380638938390942,0.028756098014187634,0.12287133861468544,0.1655576941462351,0.2199179185496703,0.04803046948900597
10.167,9.91,-0.12,0.1855281876963122,0.028972774312462653,0.12404219731207868,0.16582134930224424,0.22133730241212343,0.048738390695405726
10.251,9.96,-0.1,0.18722342332311426,0.02919497819112721,0.12519668527710542,0.16609018828924324,0.22274172970378803,0.04944784481266695
10.272,10.02,-0.01,0.18889100982369678,0.02942253146531269,0.126334228729935,0.16636394464663748,0.2241300672934424,0.05015843680470265
10.334,10.07,-0.01,0.19052988096997842,0.02965525393132324,0.1274542674870488,0.16664234148984833,0.22550118990794374,0.05086977457148838
10.395,10.13,-0.04,0.1921389915984203,0.02989296366001257,0.12855625542206275,0.16692509200621405,0.22685398135022497,0.05158146944393093
10.438,10.18,0.04,0.19371731844617773,0.030135477291528802,0.12963966091718745,0.16721189996317978,0.22818733571117936,0.052293136670014444
10.499,10.24,0.09,0.19526386097007023,0.03038261033144837,0.1307039673045039,0.16750246022864682,0.22950015857360503,0.053004395891497774
10.56,10.29,0.05,0.1967776421470433,0.030634177448241227,0.1317486732962325,0.1677964593032443,0.23079136820637938,0.053714871610442215
10.622,10.35,0.11,0.1982577092548249,0.030889992771901492,0.1327732934031896,0.16809357586414342,0.23205989674703048,0.0544241936448768
10.704,10.4,0.23,0.19970313463155004,0.031149870193458763,0.13377735834064783,0.1683934813198947,0.23330469137087745,0.05513199757295449
10.725,10.46,0.22,0.2011130164132453,0.03141362366496963,0.1347604154208535,0.1686958403756303,0.23452471544491962,0.05583792516501441
10.767,10.51,0.22,0.20248647924820515,0.03168106749949254,0.13572202893149984,0.16900031160784101,0.23571894966467888,0.056541624803029406
10.829,10.57,0.35,0.2038226749874328,0.03195201667048051,0.13666178049950678,0.1693065480478071,0.23688639317223584,0.05724275188696442
10.89,10.62,0.37,0.20512078335043812,0.032226287109982446,0.1375792694395213,0.1696141977726396,0.23802606465375617,0.0579409692276008
10.952,10.68,0.34,0.20638001256577254,0.03250369600503246,0.13847411308661653,0.16992290450279499,0.23913700341485794,0.058635947425417216
11.014,10.73,0.43,0.20759959998574232,0.03278406209163365,0.13934594711272694,0.17023230820489457,0.2402182704322257,0.05932736523516494
11.076,10.79,0.49,0.20877881267478154,0.03306720594578769,0.14019442582641203,0.17054204569870587,0.24126894937993476,0.06001490991582643
11.097,10.84,0.45,0.20991694797100413,0.03335295027107074,0.1410192224555851,0.1708517512672146,0.24228814762900497,0.06069827756569974
11.158,10.9,0.45,0.21101333402046954,0.03364112018231024,0.14182002941286645,0.1711610572688445,0.2432749972187532,0.06137717344240201
11.2,10.95,0.56,0.21206733028369548,0.03393154348497402,0.14259655854323025,0.17146959475103746,0.24422865579856465,0.062051312267618376
11.263,11.01,0.54,0.21307832801393023,0.034224050949927955,0.1433485413536203,0.17177699406453278,0.24514830753874078,0.06272041851644558
11.325,11.06,0.55,0.21404575070666582,0.034518476583240386,0.14407572922420267,0.17208288547775946,0.24603316400911154,0.06338422669119848
11.366,11.12,0.67,0.21496905451984932,0.03481465789071096,0.14477789360090532,0.1723868997907938,0.24688246502412867,0.06404248157956026
11.448,11.17,0.72,0.21584772866425564,0.0351124361367874,0.14545482616887243,0.1726886689483449,0.24769547945320225,0.06469493849696363
11.489,11.23,0.7,0.2166812957635234,0.03541165659753826,0.14610633900645859,0.1729878266512427,0.24847150599510204,0.06534136351310191
11.531,11.28,0.8,0.21746931218340967,0.035712168807396256,0.1467322647193941,0.1732840089659469,0.24920987391532673,0.06598153366249256
11.593,11.34,0.88,0.2182113683298975,0.036013826799455265,0.14733245655478547,0.17357685493165947,0.24990994374543993,0.06661523713904288
11.654,11.39,0.87,0.21890708891588379,0.03631648933915501,0.14790678849466327,0.17386600716466385,0.2505711079434796,0.06724227347460404
11.738,11.45,0.87,0.21955613319628922,0.03662002015120882,0.14845515532883855,0.17415111245953205,0.251192791514653,0.06786245370153836
11.798,11.5,0.98,0.22015819517153848,0.03692428813963678,0.14897747270686695,0.1744318223868601,0.251774452591643,0.06847560049935021
11.818,11.56,0.95,0.22071300375945832,0.03722916760076076,0.1494736771689585,0.17470779388719782,0.2523155829739596,0.0690815483254355
11.859,11.61,0.91,0.221220322935709,0.037534538428998725,0.1499437261557076,0.17497868986082282,0.2528157086258647,0.06968014353000124
11.92,11.67,0.97,0.22167995184290484,0.037840286315266244,0.15038759799653642,0.17524417975298517,0.25327439013248376,0.07027124445520065
11.98,11.72,0.98,0.22209172486858358,0.0381463029377631,0.1508052918767524,0.1755039401342333,0.2536912231137874,0.07085472151853363
12.043,11.78,0.94,0.22245551169216893,0.038452486144906484,0.1511968277831198,0.17575765527544668,0.2540658385961766,0.07143045728058746
12.084,11.83,0.98,0.22277121730102326,0.03875874013018036,0.15156224642782748,0.1760050177172735,0.2543979033414437,0.07199834649723552
12.188,11.89,1.07,0.22303878197564514,0.03906497559869742,0.15190160915072082,0.1762457288337657,0.25468712013291767,0.0725582961564507
12.209,11.94,1.03,0.22325818124403804,0.03937110992530839,0.15221499779966258,0.17647949939006097,0.25493322801864793,0.07311022549991855
12.251,12.0,1.03,0.22342942580526978,0.03967706730415169,0.1525025145889085,0.1767060500939361,0.25513600251153495,0.07365406602965287
12.312,12.05,1.14,0.22355256142225863,0.0399827788896154,0.15276428193541286,0.17692511214098033,0.255295255746388,0.07418976149981589
12.394,12.11,1.15,0.22362766878385648,0.04028818292875924,0.15300044227302287,0.17713642775304558,0.2554108365939726,0.07471726789393363
12.414,12.16,1.1,0.2236548633363534,0.040593224885297964,0.15321115784455794,0.17733975070956734,0.25548263073219324,0.07523655338768402
12.476,12.22,1.17,0.2236342950845984,0.04089785755526339,0.15339661047180456,0.17753484687131943,0.2555105606746462,0.07574759829742225
12.558,12.27,1.2,0.2235661483630194,0.04120204117443968,0.15355700130351072,0.17772149469613707,0.2554945857568753,0.07625039501459817
12.578,12.33,1.14,0.2234506415769107,0.041505743517629506,0.15369255054153202,0.17789948574610806,0.25543470208075175,0.07674494792623018
12.641,12.38,1.13,0.22328802691442387,0.04180893998979191,0.15380349714534625,0.1780686251857454,0.2553309424174815,0.07723127332162685
12.703,12.44,1.19,0.2230785900297523,0.042111613709087295,0.15389009851519475,0.17822873227073124,0.25518337606981223,0.07770939928557856
12.745,12.49,1.13,0.22282264969804447,0.042413755581848324,0.153952630154148,0.17837964082690275,0.25499210869407346,0.07817936557826835
12.807,12.55,1.09,0.222520557442595,0.04271536436947502,0.15399138530942585,0.17852119971918803,0.2547572820827248,0.07864122350217452
12.91,12.6,1.16,0.22217269713483728,0.04301644674724168,0.15400667459333003,0.17865327331018807,0.254479073908123,0.07909503575623851
12.931,12.66,1.12,0.22177948456760072,0.04331701735498662,0.153998825584168,0.17877574190803627,0.25415769742825234,0.07954087627755192
12.973,12.71,1.04,0.22134136700203913,0.04361709883962294,0.15396818240755997,0.17888850220308142,0.25379340115518667,0.07997883007079269
13.055,12.77,1.1,0.22085882268860801,0.043916721889365753,0.1539151052985348,0.17899146769285368,0.25338646848707735,0.08040899302564104
13.076,12.82,1.12,0.220332360362493,0.044215925259534335,0.153839970144851,0.17908456909470222,0.2529372173044763,0.08083147172243775
13.138,12.88,1.06,0.21976251871396263,0.04451475578976811,0.15374316801203253,0.17916775474542548,0.252445999531824,0.0812463832264119
13.198,12.93,1.05,0.21914986583421017,0.044813268412504666,0.15362510465067733,0.17924099098716292,0.25191320066494755,0.08165385487088171
13.28,12.99,1.11,0.21849499863734909,0.045111526152591855,0.1534861999866599,0.1793042625387897,0.2513392392654448,0.08205402402988812
13.301,13.04,1.06,0.2177985422593208,0.045409600117927204,0.15332688759490135,0.17935757285204296,0.25072456642286106,0.08244703788075095
13.341,13.1,1.01,0.21706114943455113,0.04570756948103267,0.15314761415741454,0.1794009444515972,0.25006966518559226,0.08283305315705429
13.402,13.15,1.05,0.2162834998512407,0.04600552145148253,0.15294883890637057,0.17943441925828332,0.24937504996147722,0.08321223589257047
13.465,13.21,1.04,0.2154662994861981,0.046303551239110605,0.15273103305300595,0.17945805889456995,0.24864126588906502,0.08358476115663493
13.506,13.26,0.95,0.21461027992011364,0.04660176200794243,0.1524946792033142,0.17947194497130473,0.2478688881805579,0.08395081278149778
13.568,13.32,0.96,0.21371619763412394,0.04690026482084675,0.1522402707615927,0.17947617935461904,0.24705852143743742,0.08431058308220024
13.631,13.37,1.0,0.2127848332884398,0.04719917857496828,0.15196831132298938,0.179470884411901,0.24621079893978895,0.084664272569545
13.715,13.43,0.94,0.21181699098372025,0.04749862992807414,0.15167931405620086,0.1794562032358476,0.2453263819103349,0.08501208965674396
13.737,13.48,0.93,0.21081349750578166,0.047798753216008294,0.15137380107742424,0.17943229984578848,0.2444059587541866,0.08535425036032848
13.798,13.54,1.0,0.20977520155415852,0.04809969036148464,0.15105230281660645,0.17939935936563542,0.2434502442753269,0.08569097799588508
13.84,13.59,0.96,0.20870297295502618,0.048401590774426864,0.1507153573770085,0.17935758817783645,0.24245997887085036,0.0860225028691364
13.902,13.65,0.91,0.20759770185905155,0.04870461124398583,0.15036350988910507,0.17930721405259845,0.24143592770401023,0.08634906196284166
14.005,13.7,0.95,0.20646029792483522,0.049008915822269614,0.14999731185986287,0.1792484862514701,0.24037887985715115,0.08667089861995049
14.025,13.76,0.96,0.20529168948871135,0.04931467569974708,0.14961732051846616,0.1791816756042372,0.23928964746563736,0.0869882622234143
14.086,13.81,0.88,0.2040928227217593,0.04962206907225583,0.14922409815958537,0.1791070745580025,0.2381690648339129,0.08730140787305078
14.127,13.87,0.87,0.20286466077494272,0.049931280999564384,0.1488182114852982,0.17902499719732343,0.23701798753484543,0.08761059605986625
14.168,13.92,0.91,0.20160818291332788,0.050242503255494106,0.1484002309467729,0.178935779234351,0.23583729149352392,0.0879160923382575
14.231,13.98,0.83,0.2003243836403459,0.05055593416967507,0.14797073008681444,0.17883977796802822,0.23462787205668692,0.08821816699653678
14.294,14.03,0.77,0.19901427181305525,0.05087177846107393,0.14753028488434067,0.1787373722115365,0.23339064304895576,0.08851709472624464
14.377,14.09,0.81,0.1976788697493321,0.05119024706346713,0.14707947310180616,0.17862896218731936,0.23212653581703496,0.08881315429072192
14.398,14.14,0.76,0.1963192123278845,0.05151155694301442,0.14661887363653167,0.1785149693890962,0.23083649826303085,0.08910662819339706
14.44,14.2,0.69,0.19493634608194674,0.051835930908016574,0.14614906587684787,0.17839583641030318,0.22952149386801046,0.0893978023462197
14.501,14.25,0.72,0.19353132828746286,0.05216359741084444,0.14567062906391495,0.17827202673838888,0.22818250070689577,0.08968696573864546
14.562,14.31,0.73,0.1921052260465243,0.052494790341930345,0.1451841416600521,0.17814402451437578,0.22682051045575571,0.0899744101075487
14.624,14.36,0.66,0.1906591153667995,0.05282974881564844,0.1446901807243966,0.17801233425709725,0.22543652739253048,0.09026042960842656
14.665,14.42,0.64,0.18919408023768866,0.05316871694790544,0.14418932129669726,0.17787748055156713,0.22403156739219698,0.09054532048825518
14.767,14.47,0.69,0.1877112117039552,0.0535119436253145,0.14368213579002873,0.17774000770103252,0.22260665691737105,0.09082938076036279
14.788,14.53,0.63,0.18621160693762648,0.05385968226590203,0.1431691933932004,0.17760047934235046,0.22116283200532708,0.09111290988168987
14.828,14.58,0.59,0.184696368309001,0.05421219057137318,0.14265105948363027,0.17745947802438777,0.21970113725240048,0.09139620843281794
14.89,14.64,0.67,0.1831666024576423,0.05456973027102226,0.1421282950514486,0.17731760474918962,0.21822262479672588,0.09167957780114858
14.952,14.69,0.65,0.1816234193642777,0.05493256685740973,0.14160145613558653,0.17717547847570528,0.21672835330025783,0.09196331986759562
15.014,14.75,0.59,0.18006793142454433,0.055300969313950205,0.14107109327258965,0.17703373558591615,0.2152193869310229,0.09224773669712574
15.138,14.8,0.59,0.17850125252552304,0.0556752098345868,0.14053775095887122,0.17689302931330236,0.21369679434656047,0.09253313023344813
15.159,14.86,0.6,0.17692449712598074,0.056055563535775975,0.14000196712708957,0.17675402913370944,0.21216164767952894,0.09281980199812147
15.179,14.91,0.51,0.17533877934119763,0.05644230816107144,0.13946427263729677,0.17661742011885673,0.21061502152646142,0.0931080527943261
15.221,14.97,0.45,0.1737452120331958,0.05683572377866817,0.13892519078343785,0.1764839022530012,0.2090579919406456,0.09339818241554673
15.284,15.02,0.49,0.1721449059071098,0.057236092472327006,0.13838523681568163,0.17635418971359393,0.20749163543007537,0.09369048935940766
15.325,15.08,0.45,0.1705389686143517,0.0576436980261272,0.13784491747897032,0.17622901011701972,0.2059170279613836,0.0939852705468886
15.386,15.13,0.4,0.16892850386312835,0.05805882560349879,0.137304730568086,0.17610910373064553,0.20433524397061079,0.09428282104712951
15.491,15.19,0.43,0.16731461053678273,0.05848176142098255,0.13676516449946408,0.175995222652455,0.2027473553816155,0.09458343380800564
15.511,15.24,0.44,0.1656983818203851,0.058912792417158584,0.13622669789993716,0.1758881299595475,0.20115443063289296,0.09488739939262314
15.553,15.3,0.38,0.16408090433600067,0.0593522059171805,0.13568979921257396,0.17578859882675804,0.19955753371354526,0.09519500572186637
15.615,15.35,0.41,0.16246325728708993,0.05980028929336412,0.13515492631976786,0.17569741161665414,0.19795772320913002,0.0955065378231275
15.677,15.41,0.44,0.1608465116125482,0.06025732962231286,0.13462252618372592,0.17561535894221011,0.19635605135811135,0.09582227758535847
15.739,15.46,0.37,0.15923172915093292,0.0607236133391181,0.1340930345045059,0.17554323870354718,0.19475356311963818,0.09614250352059661
15.802,15.52,0.34,0.15761996181545931,0.06119942588925189,0.13356687539573764,0.17548185510025208,0.19315129525338032,0.09646749053211957
15.843,15.57,0.4,0.15601225078035372,0.0616850513788543,0.13304446107813472,0.17543201762093955,0.1915502754121585,0.09679750968937574
15.904,15.63,0.35,0.1544096256791587,0.062180772224171635,0.13252619159086726,0.17539454001185334,0.189951521248107,0.09713282800981034
15.944,15.68,0.26,0.1528131038155804,0.06268686880091077,0.13201245452082525,0.1753702392263811,0.18835603953309968,0.09747370824767246
16.006,15.74,0.28,0.15122368938746245,0.06320361909423731,0.13150362474975777,0.1753599343573909,0.18676482529416116,0.09782040868984206
16.048,15.79,0.27,0.14964237272446246,0.06373129835007173,0.13100006421923263,0.17536444555429667,0.18517886096456956,0.09817318295866298
16.11,15.85,0.18,0.14807012953998527,0.0642701787282503,0.13050212171333334,0.1753845929267358,0.18359911555132483,0.09853227982173327
16.151,15.9,0.19,0.14650792019788114,0.06482052895804676,0.1300101326589792,0.1754211954367391,0.18202654381961106,0.0988979430085882
16.213,15.96,0.24,0.1449566889943642,0.06538261399650505,0.1295244189437266,0.17547506978129923,0.18046208549483247,0.09927041103421036
16.275,16.01,0.18,0.14341736345555495,0.06595669469002734,0.12904528875087978,0.1755470292672991,0.17890666448275983,0.09964991702930015
16.337,16.07,0.15,0.14189085365100082,0.0665430274397061,0.1285730364117049,0.17563788268084324,0.17736118810829032,0.10003668857724242
16.399,16.12,0.23,0.14037805152348862,0.06714186387097217,0.12810794227449426,0.17574843315314093,0.17582654637330597,0.10043094755769556
16.44,16.18,0.2,0.1388798302354522,0.06775345050820192,0.12765027259018552,0.17587947702517323,0.1743036112341083,0.10083290999670937
16.481,16.23,0.12,0.13739704353230509,0.06837802845495965,0.12720027941419879,0.17603180271343674,0.1727932358989064,0.10124278592325454
16.584,16.29,0.16,0.1359305251230702,0.06901583308055191,0.12675820052411377,0.1762061895791269,0.17129625414583804,0.10166077923202271
16.605,16.34,0.16,0.13448108807872988,0.06966709371355337,0.12632425935278294,0.17640340680320007,0.16981347966201144,0.10208708755233584
16.647,16.4,0.07,0.1330495242487628,0.07033203334294895,0.1258986649364697,0.17662421226982844,0.16834570540405175,0.10252190212300384
16.709,16.45,0.05,0.13163660369634922,0.07101086832754996,0.1254816118775951,0.1768693514608508,0.16689370298062126,0.10296540767298938
16.77,16.51,0.07,0.1302430741527121,0.07170380811437789,0.1250732803216636,0.17713955636392945,0.1654582220573624,0.10341778230776616
16.832,16.56,-0.02,0.1288696604910135,0.07241105496674634,0.12467383594791416,0.17743554439721382,0.16403998978467704,0.1038791974012807
16.873,16.62,-0.05,0.12751706422016032,0.07313280370277947,0.12428342997320983,0.17775801735335756,0.1626397102487091,0.10434981749344138
16.976,16.67,0.01,0.12618596299879414,0.07386924144505293,0.12390219916864546,0.17810766036569467,0.16125806394584372,0.10482980019305077
16.996,16.73,0.02,0.12487701016967923,0.07462054738191615,0.12353026588834261,0.17848514089920867,0.15989570728098376,0.10531929608607077
17.037,16.78,-0.05,0.12359083431466093,0.0753868925408844,0.1231677381099159,0.1788911077686415,0.1585532720898199,0.1058184486490796
17.1,16.84,0.0,0.12232803883035587,0.07616843957433284,0.12281470948612244,0.17932619018578114,0.15723136518528488,0.10632739416775018
17.161,16.89,0.04,0.12108920152475834,0.07696534255761216,0.12247125940724432,0.1797909968376972,0.15593056792838378,0.1068462616601572
17.202,16.95,-0.04,0.11987487423500891,0.07777774679963236,0.12213745307380333,0.18028611499747144,0.15465143582360003,0.10737517280471624
17.329,17.0,-0.07,0.11868558246664547,0.07860578866591293,0.12181334157926522,0.1808121096687802,0.15339449813909084,0.10791424187256984
17.349,17.06,-0.01,0.1175218250547364,0.07944959541405848,0.1214989620024496,0.1813695227655066,0.1521602575518967,0.10846357566424569
17.37,17.11,-0.07,0.11638407384736658,0.08030928504156754,0.12119433750942729,0.1819588723273713,0.15094918981839486,0.10902327345042263
17.412,17.17,-0.12,0.11527277341199407,0.08118496614582633,0.12089947746474355,0.18258065177238364,0.1497617434702148,0.10959342691665798
17.474,17.22,-0.18,0.11418834076520773,0.0820767377960801,0.12061437755184481,0.18323532918674817,0.14859833953581392,0.11017412011194727
17.535,17.28,-0.18,0.11313116512639222,0.08298468941712062,0.12033901990262205,0.1839233466526743,0.14745937128788614,0.11076542940100585
17.577,17.33,-0.28,0.11210160769574452,0.08390890068438474,0.12007337323601651,0.18464511961431357,0.14634520401672663,0.11136742342020975
17.741,17.39,-0.24,0.11110000145699057,0.08484944143014081,0.11981739300565078,0.18540103628185317,0.14525617482960398,0.11198016303722974
17.762,17.44,-0.21,0.11012665100504183,0.08580637156043698,0.11957102155643781,0.18619145707371035,0.1441925924761051,0.1126037013145135
17.782,17.5,-0.27,0.10918183239872634,0.08677974098248974,0.11933418829008552,0.18701671409681941,0.14315473719933983,0.11323808347687171
17.803,17.55,-0.26,0.10826579303864646,0.08776958954220267,0.11910680983936549,0.18787711066511883,0.14214286061283649,0.11388334688348362
17.864,17.61,-0.19,0.10737875157017136,0.08877594697152624,0.11888879025096807,0.18877292085647512,0.14115718560293067,0.11453952100465742
17.925,17.66,-0.23,0.1065208978115805,0.0897988328453868,0.11868002117673676,0.18970438910836465,0.14019790625643902,0.1152066274036762
17.987,17.72,-0.26,0.10569239270741547,0.09083825654792724,0.11848038207305742,0.19067172985267639,0.13926518781340838,0.11588467972404297
18.049,17.77,-0.22,0.10489336830714507,0.09189421724781383,0.11828974040816331,0.19167512719001514,0.1383591666447407,0.11657368368240754
18.09,17.83,-0.19,0.10412392776928645,0.09296670388236049,0.11810795187711695,0.19271473460385866,0.13747995025450668,0.11727363706742445
18.137,17.88,-0.28,0.1033841453911439,0.0940556951502105,0.11793486062424588,0.1937906747148447,0.1366276173067662,0.11798452974477529
18.198,17.94,-0.25,0.1026740666643215,0.09516115951231555,0.11777029947283352,0.1949030390753624,0.135802217676717,0.11870634366859018
18.26,17.99,-0.23,0.1019937083561473,0.09628305520097266,0.11761409016188958,0.19605188800455683,0.13500377252599705,0.11943905289951168
18.321,18.05,-0.2,0.10134305861711757,0.09742133023671345,0.11746604358983662,0.1972372504638502,0.13423227440196617,0.12018262362965498
18.422,18.1,-0.25,0.10072207711441626,0.0985759224528848,0.11732596006493871,0.1984591239731479,0.1334876873607878,0.12093701421471703
18.443,18.16,-0.19,0.10013069519148508,0.09974675952780498,0.11719362956226737,0.19971747456798206,0.13276994711413895,0.1217021752134361
18.485,18.21,-0.24,0.09956881605352261,0.10093375902440334,0.1170688319869678,0.20101223679787023,0.13207896119939683,0.12247804943448519
18.527,18.27,-0.28,0.09903631497868676,0.10213682843724615,0.11695133744356306,0.20234331376608455,0.13141460917317796,0.12326457199072997
18.568,18.32,-0.22,0.09853303955468891,0.10335586524682445,0.11684090651101724,0.20371057721085892,0.1307767428281166,0.12406167036065102
18.63,18.38,-0.21,0.09805880994042362,0.10459075698094014,0.11673729052328306,0.2051138676278358,0.13016518643277303,0.12486926445665392
18.693,18.43,-0.29,0.09761341915227749,0.10584138128300256,0.11664023185508758,0.20655299443332362,0.12957973699455105,0.12568726669997313
18.797,18.49,-0.28,0.0971966333747843,0.1071076059870595,0.11654946421274341,0.20802773616775747,0.12902016454550422,0.126515582101891
18.818,18.54,-0.25,0.09680819229532989,0.1083892891994261,0.11646471292981254,0.20953784073865508,0.12848621245091243,0.12735410835102592
18.859,18.6,-0.33,0.09644780946264839,0.10968627938682553,0.1163856952674836,0.21108302570232185,0.12797759774050893,0.1282027359064871
18.922,18.65,-0.36,0.09611517266887509,0.11099841547100693,0.11631212071954182,0.21266297858356942,0.12749401146222472,0.1290613480967448
18.983,18.71,-0.28,0.09580994435492893,0.11232552692984354,0.11624369132180652,0.21427735723275743,0.12703511905829487,0.1299298212241017
19.045,18.76,-0.32,0.09553176203899717,0.11366743390490937,0.11618010196589648,0.21592579021949324,0.12660056076354909,0.1308080246746622
19.086,18.82,-0.39,0.09528023876788183,0.11502394731549266,0.11612104071715802,0.2176078772623211,0.12618995202568267,0.13169582103369257
19.15,18.87,-0.36,0.09505496359092801,0.11639486897894719,0.11606618913656098,0.21932318969370102,0.1258028839472855,0.13259306620624392
19.213,18.93,-0.36,0.09485550205619389,0.11777999173722468,0.1160152226063479,0.22107127095951376,0.12543892374939367,0.1334996095428843
19.233,18.98,-0.44,0.09468139672844349,0.1191790995893789,0.11596781065922432,0.22285163715221845,0.12509761525630422,0.13441529397036883
19.295,19.04,-0.42,0.09453216772846217,0.12059196782979904,0.11592361731089264,0.22466377757667313,0.12477847940136248,0.13533995612707736
19.336,19.09,-0.36,0.09440731329312473,0.12201836319192416,0.11588230139575097,0.22650715534752536,0.12448101475339855,0.13627342650305616
19.397,19.15,-0.43,0.09430631035559481,0.12345804399721673,0.11584351690559423,0.22838120801701667,0.12420469806345752,0.13721552958451372
19.459,19.2,-0.47,0.09422861514498651,0.12491076030923086,0.11580691333115699,0.23028534823202945,0.12394898483144384,0.1381660840026391
19.521,19.26,-0.39,0.0941736638047829,0.12637625409266967,0.11577213600631879,0.2322189644192388,0.12371330989228133,0.13912490268662187
19.583,19.31,-0.45,0.094140873029295,0.1278542593773519,0.11573882645476224,0.23418142149728108,0.12349708802117745,0.14009179302075428
19.625,19.37,-0.49,0.09412964071746213,0.12934450242699802,0.1157066227388376,0.2361720616148909,0.12329971455756247,0.14106655700549878
19.667,19.42,-0.44,0.0941393466433183,0.13084670191272035,0.11567515981035427,0.2381902049139818,0.12312056604725372,0.14204899142240568
19.729,19.48,-0.44,0.09416935314247639,0.13236056909106664,0.11564406986300545,0.24023515031662704,0.1229590009023785,0.1430388880027724
19.79,19.53,-0.51,0.09421900581400271,0.13388580798644145,0.11561298268613869,0.2423061763348563,0.12281436007856603,0.1440360335999545
19.894,19.59,-0.52,0.09428763423704885,0.13542211557773265,0.11558152601959149,0.24440254190216765,0.1226859677688951,0.14504021036526404
19.914,19.64,-0.48,0.09437455270156529,0.13696918198900193,0.1155493259093115,0.2465234872256769,0.12257313211406463,0.1460511959274123
19.955,19.7,-0.53,0.09447906095234943,0.13852669068413895,0.11551600706349008,0.24866823465780166,0.12247514592822435,0.14706876357547002
20.016,19.75,-0.55,0.09460044494558678,0.1400943186654061,0.11548119320896093,0.2508359895862552,0.1223912874398648,0.14809268244533094
20.077,19.81,-0.47,0.09473797761694923,0.14167173667581137,0.11544450744763528,0.2530259413409422,0.12232082104712722,0.14912271770966287
20.119,19.86,-0.48,0.09489091966025125,0.14325860940523452,0.11540557261274911,0.2552372641161961,0.12226299808686186,0.15015863077131575
20.181,19.92,-0.53,0.0950585203156457,0.14485459570021103,0.11536401162467648,0.25746911790672616,0.12221705761674193,0.15120017946013378
20.285,19.97,-0.46,0.0952400181663605,0.14645934877726752,0.1153194478460336,0.25972064945564777,0.12218222720973237,0.1522471182330937
20.305,20.03,-0.43,0.09543464194302825,0.14807251643969868,0.1152715054357837,0.26199099321299896,0.12215772376021883,0.15329919837766362
20.346,20.08,-0.52,0.09564161133471998,0.1496937412976843,0.11521980970205845,0.2642792723031835,0.12214275430111166,0.15435616821826442
20.407,20.14,-0.52,0.09586013780584146,0.15132266099168082,0.11516398745342357,0.2665845994998438,0.1221365168312488,0.1554177733257193
20.491,20.19,-0.45,0.09608942541808163,0.15295890841908197,0.11510366734832693,0.26890607820674545,0.12213820115243033,0.15648375672959805
20.512,20.25,-0.51,0.09632867165662841,0.15460211196420043,0.11503848024247912,0.2712428034433252,0.12214698971541302,0.15755385913339065
20.553,20.3,-0.56,0.09657706825988661,0.15625189573165715,0.11496805953391726,0.2735938628336018,0.1221620584741712,0.1586278191324793
20.615,20.36,-0.51,0.09683380205193402,0.15790787978327414,0.11489204150548954,0.27595833759718336,0.12218257774770676,0.15970537343488642
20.678,20.41,-0.51,0.09709805577692558,0.1595696803785379,0.11481006566448065,0.27833530354109326,0.12220771308866138,0.16078625708476854
20.739,20.47,-0.58,0.09736900893460373,0.16123691021864295,0.1147217750790787,0.28072383205110296,0.12223662615795423,0.16187020368860783
20.801,20.52,-0.55,0.09764583861600147,0.16290917869405352,0.11462681671135663,0.2831229910812421,0.12226847560463308,0.16295694564403268
20.843,20.58,-0.51,0.0979277203383678,0.1645860921354432,0.11452484174641346,0.2855318461401824,0.1223024179500999,0.16404621437117697
20.927,20.63,-0.57,0.09821382887832432,0.16626725406780257,0.11441550591730813,0.2879494612732247,0.12233760847584486,0.16513774054647853
20.989,20.69,-0.52,0.09850333910227804,0.167952265467474,0.11429846982541549,0.2903749000386697,0.12237320211379533,0.16623125433883396
21.01,20.74,-0.45,0.09879542679315902,0.16964072502188376,0.11417339925584112,0.29280722647741475,0.1224083543383675,0.16732648564804972
21.051,20.8,-0.5,0.09908926947261254,0.17133222939176995,0.11403996548755009,0.2952455060746703,0.12244222205930433,0.16842316434552465
21.134,20.85,-0.52,0.09938404721784129,0.17302637347572417,0.11389784559787795,0.29768880671274234,0.12247396451439306,0.16952102051705828
21.155,20.91,-0.43,0.09967894347235454,0.17472275067686652,0.11374672276109406,0.30013619961387555,0.1225027441611764,0.17061978470760517
21.217,20.96,-0.43,0.09997314584993612,0.17642095317144904,0.11358628654067553,0.30258676027219505,0.12252772756679108,0.17171918816771534
21.278,21.02,-0.49,0.10026584693117696,0.17812057217915014,0.1134162331749356,0.30503956937380977,0.12254808629508196,0.17281896310133438
21.361,21.07,-0.47,0.10055624505192547,0.1798211982347973,0.11323626585562599,0.30749371370417705,0.1225629977901521,0.17391884291458315
21.382,21.13,-0.47,0.10084354508299782,0.18152242146123737,0.1130460949991182,0.3099482870418666,0.12257164625552833,0.17501856246509018
21.444,21.18,-0.53,0.10112695920046097,0.18322383184306454,0.11284543850977506,0.31240239103788664,0.12257322352812457,0.1761178583114309
21.486,21.24,-0.53,0.10140570764575407,0.18492501950092435,0.11263402203517035,0.3148551360797326,0.12256692994616948,0.17721646896224202
21.568,21.29,-0.45,0.10167901947485612,0.18662557496613802,0.11241157921291513,0.317305642139277,0.12255197521023314,0.17831413512460786
21.609,21.35,-0.51,0.10194613329566692,0.18832508945541784,0.11217785190898331,0.3197530396035272,0.12252757923645595,0.1794105999513441
21.651,21.4,-0.55,0.1022062979927535,0.19002315514547036,0.11193259044753905,0.3221964700871783,0.12249297300105359,0.1805056092868259
21.732,21.46,-0.46,0.10245877343863144,0.1917193654473027,0.11167555383232347,0.32463508722582285,0.12244739937515466,0.18159891191101615
21.774,21.51,-0.43,0.10270283119079557,0.193413315280045,0.1114065099596782,0.32706805744864015,0.12239011394901703,0.18269025978135325
21.836,21.57,-0.48,0.10293775517377413,0.19510460134407778,0.11112523582329678,0.3294945607293605,0.12232038584466007,0.18377940827216876
21.877,21.62,-0.43,0.10316284234554014,0.1967928223932263,0.11083151771080713,0.33191379131429993,0.12223749851595295,0.18486611641130957
21.94,21.68,-0.4,0.10337740334766744,0.1984775795057669,0.110525151392309,0.3343249584262926,0.12214075053522469,0.18595014711363508
22.002,21.73,-0.49,0.10358076313865916,0.20015847635399336,0.11020594230101205,0.3367272869434109,0.12202945636549047,0.18703126741105433
22.103,21.79,-0.49,0.10377226160989049,0.2018351194721195,0.10987370570612628,0.3391200180514818,0.121902947117411,0.1881092486787834
22.123,21.84,-0.42,0.10395125418359392,0.20350711852234157,0.10952826687813995,0.34150240986954844,0.12176057129011016,0.1891838668575276
22.164,21.9,-0.48,0.10411711239227973,0.20517408655892785,0.1091694612465956,0.34387373804754523,0.12160169549496867,0.19025490267131573
22.205,21.95,-0.46,0.10426922443893188,0.20683564029022822,0.10879713455044328,0.34623329633552025,0.12142570516149204,0.19132214184072657
22.266,22.01,-0.37,0.10440699573725708,0.20849140033849572,0.10841114298100862,0.34858039712378885,0.12123200522433611,0.1923853752912395
22.329,22.06,-0.36,0.10452984943123078,0.2101409914973692,0.10801135331756526,0.3509143719534306,0.12102002079057257,0.19344439935640972
22.431,22.12,-0.42,0.10463722689318668,0.21178404298680167,0.10759764305544443,0.35323457199659014,0.12078919778629477,0.19449901597553693
22.451,22.17,-0.36,0.10472858819973825,0.2134201887051753,0.10716990052654828,0.35554036850612614,0.12053900358170291,0.19554903288547107
22.471,22.23,-0.32,0.10480341258489122,0.21504906747833588,0.10672802501207126,0.3578311532342907,0.1202689275938549,0.19659426380619005
22.533,22.28,-0.38,0.10486119886979019,0.21667032330530606,0.106271926847201,0.360106338820283,0.11997848186630965,0.19763452861980976
22.595,22.34,-0.37,0.10490146586862957,0.21828360560048726,0.10580152751755816,0.3623653591466971,0.11966720162491884,0.1986696535427412
22.657,22.39,-0.3,0.10492375277034154,0.2198885694322132,0.10531675974714225,0.3646076696650425,0.11933464580904765,0.19969947129076585
22.699,22.45,-0.35,0.1049276194957468,0.22148487575755926,0.10481756757756645,0.3668327476906074,0.11898039757752964,0.2007238212368469
22.76,22.5,-0.37,0.10491264702990119,0.22307219165333728,0.10430390643837287,0.36904009266697935,0.11860406478867673,0.20174254956151952
22.821,22.56,-0.28,0.10487843772938714,0.22465019054321425,0.10377574320821106,0.3712292264005515,0.11820528045368789,0.20275550939570705
22.883,22.61,-0.3,0.104824615604289,0.22621855242087896,0.10323305626664399,0.3733996932653545,0.11778370316282176,0.20376256095579248
22.925,22.67,-0.35,0.10475082657456664,0.2277769640691323,0.10267583553632552,0.37555106037855024,0.11733901748372244,0.20476357167075263
22.968,22.72,-0.26,0.10465673870051835,0.22932511927469634,0.10210408251527192,0.37768291774694723,0.11687093433131406,0.20575841630113773
23.071,22.78,-0.21,0.1045420423870346,0.2308627190384121,0.10151781029893453,0.3797948783849369,0.11637919130871437,0.20674697704966427
23.092,22.83,-0.26,0.1044064505613947,0.23238947178036995,0.10091704359178284,0.38188657840430756,0.11586355301865729,0.20772914366318904
23.154,22.89,-0.25,0.10424969882444313,0.2339050935394392,0.1003018187081315,0.38395767707644896,0.11532381134496553,0.20870481352585565
23.195,22.94,-0.16,0.10407154557508498,0.23540930816666805,0.09967218356199237,0.38600785686751293,0.11475978570367756,0.20967389174323325
23.258,23.0,-0.22,0.10387177210814887,0.23690184751207533,0.09902819764580874,0.3880368234471077,0.11417132326349948,0.21063629121729877
23.298,23.05,-0.25,0.10365018268576412,0.2383824516044253,0.09836993199800292,0.3900443056710879,0.11355829913530809,0.21159193271214755
23.359,23.11,-0.18,0.1034066045824784,0.23985086882363588,0.09769746915932963,0.3920300555389685,0.1129206165304834,0.2125407449103386
23.42,23.16,-0.19,0.10314088810441135,0.24130685606549943,0.09701090311807252,0.3939938481264474,0.11225820688789456,0.2134826644597898
23.482,23.22,-0.24,0.10285290658278867,0.2427501788984058,0.09631033924415526,0.39593548149346297,0.11157102996939956,0.2144176360111555
23.583,23.27,-0.19,0.1025425563422362,0.24418061171175837,0.09559589421225606,0.3978547765682019,0.11085907392375292,0.21534561224563684
23.604,23.33,-0.18,0.10220975664423884,0.24559793785576634,0.09486769591403718,0.3997515770074816,0.1101223553188529,0.21626655389319385
23.645,23.38,-0.25,0.1018544496061871,0.24700194977227757,0.0941258833596338,0.40162574903394344,0.10936091914229794,0.2171804297411493
23.686,23.44,-0.25,0.10147660009642873,0.24839244911631148,0.09337060656858054,0.40347718125051124,0.10857483877025502,0.21808721663320177
23.746,23.49,-0.17,0.10107619560570774,0.24976924686797483,0.09260202645037789,0.40530578443260296,0.10776421590467182,0.21898689945889083
23.809,23.55,-0.22,0.10065324609532757,0.251132163434476,0.09182031467491664,0.4071114912986107,0.10692918047888757,0.21987947113357348
23.85,23.6,-0.25,0.1002077838223395,0.2524810287419966,0.09102565353298624,0.40889425625918063,0.10606989053171689,0.22076493256897745
23.932,23.66,-0.17,0.09973986314205091,0.25381568231721946,0.09021823578709945,0.41065405514581815,0.10518653205011258,0.22164329263438318
23.974,23.71,-0.18,0.09924956028817983,0.25513597335834715,0.08939826451287765,0.4123908849193182,0.1042793187805537,0.2225145681084656
24.035,23.77,-0.23,0.09873697313103891,0.25644176079547487,0.08856595293126228,0.41410476335847635,0.10334849200935055,0.22337878362181673
24.097,23.82,-0.17,0.09820222091419661,0.2577329133402115,0.08772152423184622,0.4157957287295218,0.10239432031210566,0.22423597159017572
24.178,23.88,-0.17,0.09764544397013167,0.2590093095244729,0.0868652113876621,0.4174638394367109,0.10141709927262428,0.2250861721384095
24.199,23.93,-0.22,0.09706680341546317,0.2602708377284162,0.08599725696182547,0.41910917365452904,0.10041715117162024,0.22592943301531862
24.239,23.99,-0.23,0.09646648082639714,0.26151739619754094,0.0851179129064844,0.4207318289419905,0.09939482464561285,0.22676580949938932
24.3,24.04,-0.18,0.09584467789508345,0.26274889304904747,0.08422744035456237,0.42233192183959156,0.09835049431645644,0.22759536429566177
24.361,24.1,-0.27,0.09520161606762263,0.26396524626759915,0.083326109404777,0.4239095874495553,0.09728456039198217,0.22841816742393523
24.424,24.15,-0.28,0.09453753616448393,0.26516638369066925,0.08241419890034986,0.425464979000113,0.09619744823825747,0.22923429609857146
24.486,24.21,-0.21,0.09385269798408427,0.2663522429836769,0.08149199620171292,0.42699826739467095,0.09508960792398871,0.23004383460017358
24.527,24.26,-0.23,0.0931473798902424,0.2675227716051055,0.08055979695342089,0.4285096407467762,0.0939615137376086,0.23084687413940141
24.588,24.32,-0.29,0.09242187838417024,0.2686779267617657,0.07961790484542469,0.4299993039017894,0.09281366367760763,0.2316435127131556
24.67,24.37,-0.23,0.09167650766161851,0.26981767535431805,0.07866663136884047,0.4314674779461576,0.09164657891669876,0.23243385495332558
24.691,24.43,-0.23,0.09091159915578442,0.27094199391312107,0.07770629556635172,0.43291439970516365,0.09046080324044685,0.23321801196827155
24.733,24.48,-0.29,0.09012750106662731,0.27205086852444293,0.0767372237774109,0.4343403212300203,0.08925690246103869,0.2339961011772147
24.794,24.54,-0.27,0.0893245778773081,0.2731442947470792,0.07575974937844661,0.4357455092751938,0.08803546380691052,0.23476824613774055
24.857,24.59,-0.21,0.08850320985854884,0.2742222775194636,0.074774212518325,0.4371302447668937,0.08679709528899349,0.23553457636666494
24.919,24.65,-0.27,0.08766379256178601,0.27528483105742396,0.07378095984935679,0.43849482226370246,0.08554242504438068,0.23629522715454582
24.961,24.7,-0.3,0.08680673630204372,0.2763319787428123,0.07278034425417644,0.43983954941035025,0.0842721006582624,0.23705033937414777
25.024,24.76,-0.23,0.0859324656314822,0.2773637530033119,0.07177272456884312,0.4411647463856537,0.08298678846502551,0.2378000592831665
25.065,24.81,-0.29,0.08504141880459283,0.27838019518376045,0.0707584653025349,0.44247074534562003,0.0816871728294619,0.23854453832150224
25.127,24.87,-0.36,0.08413404723602297,0.2793813554093151,0.06973793635422598,0.44375788986266435,0.08037395540907252,0.23928393290335015
25.168,24.92,-0.3,0.08321081495202068,0.2803672924407415,0.06871151272674779,0.4450265343618312,0.07904785439848819,0.24001840420435128
25.229,24.98,-0.31,0.08227219803649213,0.2813380735220501,0.06767957423864691,0.44627704355485087,0.07770960375705917,0.24074811794402512
25.29,25.03,-0.39,0.08131868407264613,0.2822937742206574,0.06664250523426217,0.4475097918728035,0.07635995242068527,0.24147324416369428
25.332,25.09,-0.38,0.08035077158114842,0.2832344782602367,0.06560069429244643,0.44872516289813985,0.07499966349897581,0.2421939570001073
25.394,25.14,-0.35,0.079368969455634,0.2841602773464332,0.06455453393435422,0.4499235487968029,0.07362951345884858,0.24291043445496094
25.455,25.2,-0.41,0.07837379639636118,0.2850712709856413,0.06350442033071677,0.4511053497511861,0.07225029129569534,0.24362285816051835
25.517,25.25,-0.44,0.07736578034275608,0.28596756629707604,0.06245075300902788,0.452270973394648,0.07086279769325717,0.24433141314151813
25.578,25.31,-0.39,0.07634545790559295,0.2868492778184092,0.061393934561064845,0.4534208342482688,0.06946784417337225,0.24503628757356483
25.62,25.36,-0.44,0.07531337379957612,0.28771652730526737,0.060334370351166094,0.45455535316049966,0.06806625223678259,0.24573767253818063
25.703,25.42,-0.5,0.07427008027709528,0.28856944352489794,0.059272468225675966,0.45567495675031405,0.06665885249620722,0.2464357617746856
25.766,25.47,-0.48,0.07321613656389464,0.2894081620443143,0.05820863822394834,0.45678007685444344,0.06524648380291061,0.24713075142905752
25.787,25.53,-0.49,0.07215210829734357,0.2902328250132255,0.05714329229129141,0.4578711499792375,0.06382999236801191,0.24782283979990338
25.828,25.58,-0.6,0.07107856696795475,0.29104358094204946,0.05607684399423615,0.45894861675763315,0.062410230879789176,0.24851222708166995
25.89,25.64,-0.59,0.06999608936476971,0.29184058447530187,0.0550097082385076,0.4600129214116862,0.0609880576182301,0.24919911510523984
25.952,25.69,-0.58,0.06890525702521026,0.2926239961606681,0.05394230099007099,0.46106451122113096,0.05956433556807337,0.24988370707609114
26.012,25.75,-0.68,0.06780665568996223,0.29339398221408086,0.05287503899961997,0.4621038359984559,0.05813993153156736,0.2505662073102407
26.053,25.8,-0.71,0.06670087476340111,0.2941507142811531,0.05180833953086216,0.4631313475710151,0.056715715242147156,0.2512468209682338
26.136,25.86,-0.66,0.06558850677999593,0.29489436919532613,0.05074262009293581,0.4641474992707311,0.055292558480202994,0.25192575378746473
26.156,25.91,-0.73,0.06447014687705067,0.2956251287330807,0.04967829817726222,0.46515274543194357,0.053871334192084036,0.2526032118131169
26.239,25.97,-0.8,0.06334639227407436,0.29634317936651716,0.048615790999100544,0.46614754089793287,0.05245291561345193,0.2532794011279998
26.279,26.02,-0.77,0.06221784175902415,0.29704871201357164,0.04755551524402281,0.46713234053662306,0.051038175398074107,0.2539545275815432
26.322,26.08,-0.78,0.061085095181648515,0.29774192178609243,0.04649788681948371,0.4681075987659442,0.04962798475312636,0.2546287965181986
26.383,26.13,-0.87,0.059948752954163055,0.29842300773597213,0.04544332061163453,0.4690737690893033,0.04822321258204976,0.2553024125055013
26.444,26.19,-0.86,0.05880941555950436,0.29909217259952614,0.04439223024752189,0.47003130364160056,0.04682472463597846,0.25597557906207896
26.507,26.24,-0.87,0.05766768306742518,0.2997496225403125,0.043345027862815765,0.47098065274622614,0.04543338267472915,0.2566484983859322
26.568,26.3,-0.94,0.056524154658711016,0.30039556689061,0.042302123875218214,0.4719222644834791,0.04405004363831402,0.25732137108336
26.611,26.35,-0.97,0.0553794281578003,0.30103021789178885,0.041263926763700824,0.47285658427086547,0.04267555882990427,0.2579943958989513
26.672,26.41,-0.94,0.054234099574075906,0.3016537904338357,0.040230842853701924,0.4737840544557407,0.04131077311113443,0.2586677694470912
26.755,26.46,-1.02,0.05308876265207111,0.3022665017942862,0.03920327610839256,0.47470511392074277,0.03995652411059848,0.25934168594543466
26.776,26.52,-1.07,0.05194400843079601,0.3028685713767901,0.038181627926090096,0.4756201977023996,0.038613641446348206,0.2600163369507812
26.901,26.57,-1.02,0.05080042481234084,0.3034602204494744,0.03716629694385574,0.47652973662320425,0.037282945963162346,0.2606919110977427
26.921,26.63,-1.02,0.049658596139857875,0.3040416718831886,0.0361576788472645,0.4774341569373417,0.03596524898531563,0.26136859384054073
26.942,26.68,-1.1,0.048519102784969875,0.30461314988963795,0.03515616618628615,0.4783338799901408,0.034661351585537015,0.26204656719822345
27.023,26.74,-1.07,0.047382520744612695,0.3051748797593666,0.034162148197170006,0.47922932189126166,0.03337204387081835,0.26272600950356123
27.044,26.79,-1.09,0.04624942124730951,0.30572708759955386,0.03317601063020004,0.4801208932016078,0.032098104285718854,0.2634070951558639
27.105,26.85,-1.15,0.045120370368898474,0.30627000007161864,0.032198135583188646,0.481008998633954,0.030840298933794294,0.264089994377973
27.146,26.9,-1.18,0.0439959286577806,0.3068038441286803,0.03122890134059234,0.48189403676729675,0.029599380917754492,0.26477487297771707
27.227,26.96,-1.14,0.042876650769792954,0.30732884675299277,0.030268682218144598,0.48277639977495107,0.028376089698918392,0.2654618921141639
27.269,27.01,-1.21,0.041763085112832755,0.3078452346935197,0.029317848412914276,0.48365647316639443,0.027171150476495334,0.26615120806904236
27.31,27.07,-1.27,0.04065577350135573,0.30835323420384275,0.02837676585870555,0.4845346355427793,0.025985273587179065,0.2668429720237221
27.372,27.12,-1.22,0.03955525082085961,0.3088530707805803,0.02744579608670844,0.4854112583659301,0.024819153925500173,0.2675373298421268
27.434,27.18,-1.25,0.03846204470244198,0.3093449689024504,0.026525296091282194,0.48628670574053806,0.02367347038534265,0.2682344218599229
27.537,27.23,-1.32,0.03737667520747206,0.3098291517700713,0.025615618200709806,0.48716133420918384,0.022548885322984463,0.2689343826802948
27.558,27.29,-1.27,0.03629965452233049,0.31030584104659065,0.024717109952709933,0.48803549255978623,0.02144604404197973,0.26963734097658376
27.6,27.34,-1.25,0.03523148666306568,0.31077525659927097,0.023830113974452873,0.48890952164506163,0.02036557430016401,0.2703434193020417
27.664,27.4,-1.33,0.03417266718973076,0.31123761624221064,0.022954967866808854,0.4897837542135762,0.019308085839036055,0.2710527339069289
27.706,27.45,-1.34,0.03312368293013106,0.3116931354804324,0.02209200409255142,0.4906585147519835,0.018274169935744867,0.27176539456318927
27.767,27.51,-1.27,0.03208501171273357,0.3121420272556103,0.021241549868242487,0.4915341193380701,0.017264398977893444,0.27248150439694513
27.829,27.56,-1.35,0.03105712210855028,0.312584501693738,0.020403927059542557,0.49241087550424245,0.01627932606134946,0.27320115972907244
27.892,27.62,-1.4,0.03004047318187124,0.31302076585506533,0.019579452079709434,0.49328908211108524,0.015319484611226685,0.2739244499241256
27.974,27.67,-1.32,0.029035514249775754,0.3134510234866472,0.018768435791066,0.4941690292305906,0.01438538802617576,0.2746514572478792
27.994,27.73,-1.35,0.028042684650386573,0.3138754747778568,0.017971183409238506,0.49505099803860186,0.013477529346099882,0.2753822567337244
28.035,27.78,-1.42,0.027062413519847114,0.3142943161192014,0.017187994409990505,0.4959352607159364,0.012596380943386555,0.2761169160581296
28.098,27.84,-1.38,0.026095119577993587,0.3147077398647771,0.016419162438496195,0.4968220803575729,0.011742394237723075,0.27685549542534305
28.181,27.89,-1.35,0.0251412109226756,0.31511593409868716,0.01566497522091749,0.4977117108892197,0.010915999434545558,0.27759804746148525
28.202,27.95,-1.44,0.02420108483265632,0.3155190824057424,0.014925714478173946,0.4986043969905252,0.010117605287149917,0.27834461711815456
28.264,28.0,-1.44,0.0232751275789928,0.31591736364676504,0.0142016558418145,0.4995003740241787,0.009347598882469377,0.27909524158566473
28.367,28.06,-1.39,0.022363714244764098,0.3163109517388239,0.013493068771908341,0.5003998679701737,0.00860634545050121,0.27984995021602715
28.388,28.11,-1.44,0.021467208552996265,0.31670001544073156,0.012800216476879154,0.5013030953645586,0.007894188197343645,0.2806087644557816
28.428,28.17,-1.46,0.020585962702632177,0.3170847181441398,0.012123355835211342,0.5022102632420389,0.007211448161777457,0.2813716977887751
28.49,28.22,-1.37,0.019720317212412627,0.3174652176705853,0.011462737318963778,0.5031215690818154,0.0065584240953057114,0.28213875568897284
28.552,28.28,-1.42,0.018870600772571286,0.31784166607485004,0.01081860491904142,0.5040372007560261,0.005935392365550896,0.28290993558334865
28.613,28.33,-1.47,0.018037130104297153,0.318214209454993,0.010191196072198164,0.5049573364800947,0.005342606882902147,0.2836852268248521
28.716,28.39,-1.41,0.01722020982698282,0.31858298776938704,0.009580741589773824,0.505882144764234,0.004780299050304944,0.28446461067538575
28.737,28.44,-1.41,0.01642013233335077,0.318948134661054,0.008987465588216587,0.506811784365295,0.004248677736089304,0.28524806029866673
28.777,28.5,-1.49,0.015637177672621894,0.3193097772895548,0.008411585421514944,0.5077464042381088,0.003747929269726964,0.28603554076280663
28.819,28.55,-1.48,0.014871613441934661,0.3196680361706769,0.007853311615742996,0.5086861434854849,0.00327821746039761,0.2868270090524283
28.88,28.61,-1.45,0.014123694686240295,0.3200230250241767,0.007312847805981574,0.5096311313061578,0.0028396836382317075,0.2876224140901283
28.922,28.66,-1.53,0.013393663806896092,0.3203748506298589,0.006790390675889444,0.5105814869402442,0.002432446718075953,0.2884216967671023
28.985,28.72,-1.57,0.012681750479156019,0.3207236126922984,0.006286129900164849,0.5115373196121047,0.0020566032855959936,0.2892247899827644
29.087,28.77,-1.49,0.011988171578717151,0.3210694037145258,0.0058002480900915055,0.5124987284707642,0.001712227705495313,0.2900316186932031
29.108,28.83,-1.51,0.011313131117432948,0.32141230888099537,0.005332920742335562,0.5134658025281506,0.0013993722515878006,0.2908420999683157
29.149,28.88,-1.55,0.010656820188263817,0.3217524059501325,0.004884316191145119,0.5144386205954001,0.0011180672584209898,0.2916561430574586
29.19,28.94,-1.49,0.010019416919518052,0.3220897651567341,0.004454595564090592,0.5154172512174526,0.0008683212941181693,0.2924736494634358
29.252,28.99,-1.46,0.009401086438455346,0.32242444912446483,0.004043912741475803,0.516401752606145,0.0006501213540976746,0.2932945130246266
29.314,29.05,-1.55,0.008801980844367644,0.32275651278867823,0.0036524143195467615,0.5173921725720486,0.00046343307532582573,0.29411862000503775
29.378,29.1,-1.5,0.008222239191297933,0.32308600332979986,0.0032802395776156826,0.5183885484553922,0.000308200970766167,0.2949458491920673
29.461,29.16,-1.46,0.007661987480601621,0.3234129601175357,0.002927520449210913,0.5193909070565383,0.0001843486836951006,0.2957760720017784
29.482,29.21,-1.54,0.007121338663601246,0.32373741466619255,0.002594381497367308,0.5203992645665968,9.177926155786985e-05,0.2966091525914983
29.523,29.27,-1.56,0.0066003926546363,0.32405939060139277,0.002280939894179524,0.5214136264988534,3.0375449037055856e-05,0.29744494797958093
29.585,29.32,-1.52,0.006099236354876495,0.3243789036383942,0.001987305404744581,0.5224339876217883,0.0,0.29828330817218957
29.667,29.38,-1.57,0.0056179436873417315,0.3246959615721037,0.001713580375626566,0.5234603318945145,4.960079767872682e-07,0.2991240762969676
29.687,29.43,-1.63,0.005156575643618951,0.32501056427873676,0.001459859727976921,0.5244926324054755,3.1687254790333976e-05,0.2999670887434796
29.748,29.49,-1.58,0.004715180342764287,0.3253227037289776,0.0012262309554299845,0.5255308513152368,9.337857692197856e-05,0.3008121753103016
29.81,29.54,-1.57,0.0042937931028389845,0.3256323640124095,0.0010127741268750807,0.5265749398041596,0.0001853562491549917,0.301659159358629
29.872,29.6,-1.66,0.0038924365254637337,0.3259395213729189,0.0008195618941910358,0.527624838025675,0.00030738838499217255,0.30250785797225477
29.913,29.65,-1.6,0.0035111205936994992,0.3262441442547378,0.0006466595050143563,0.5286804750658278,0.0004592253532992895,0.3033580821237716
29.975,29.71,-1.56,0.0031498427834942026,0.32654619335880053,0.0004941248205980126,0.5297417689097565,0.0006406002105916353,0.30420963684686353
30.037,29.76,-1.62,0.0028085881888927243,0.3268456217091336,0.0003620083388069939,0.5308086264158208,0.000851229148351028,0.3050623214145817
30.097,29.82,-1.47,0.002487329661194222,0.32714237472906904,0.0002503532222887,0.531880943298176,0.0010908119547422828,0.30591592952353897
30.202,29.87,-1.39,0.0021860279622477434,0.3274363903271398,0.00015919533185822964,0.5329586041186507,0.001359032490097289,0.3067702494839826
30.222,29.93,-1.44,0.0019046319320967764,0.32772759899256004,8.85632651614464e-05,0.5340414822887792,0.0016555591755664713,0.3076250644157013
30.243,29.98,-1.48,0.0016430786711984944,0.3280159239002187,3.847840071488598e-05,0.5351294400827252,0.00198004549440338,0.3084801524496871
30.285,30.04,-1.42,0.0014012937374501327,0.32830128102511474,8.954947459964625e-06,0.5362223286616666,0.002332130505439475,0.30933528693541246
30.346,30.09,-1.45,0.0011791913582476156,0.3285835792661445,0.0,0.5373199881100401,0.002711439368382513,0.31019023665351597
30.409,30.15,-1.54,0.0009766746577678771,0.32886272057911914,1.1613599699109823e-05,0.5384222474839327,0.00311758388060369,0.3110447660336407
30.451,30.2,-1.53,0.000793635899602088,0.32913860011886065,4.378880180254911e-05,0.5395289248718719,0.00355016302507674,0.3118986353771516
30.554,30.26,-1.51,0.0006299567447826147,0.32941110639019494,9.651174870675194e-05,0.5406398274682841,0.004008763529107935,0.3127516010844464
30.575,30.31,-1.6,0.0004855085251535881,0.329680121407636,0.00016976174948235632,0.5417547516598978,0.0044929604334543235,0.3136034158865899
30.616,30.37,-1.61,0.0003601525319278614,0.32994552086354556,0.000263511365733391,0.5428734831253594,0.005002317671371013,0.31445382908102987
30.677,30.42,-1.54,0.0002537403191645249,0.3302071743045603,0.00037772650385920105,0.543995796948325,0.0055363886570719755,0.31530258677116973
30.739,30.48,-1.6,0.00016611402181403753,0.3304649453160861,0.0005123665137750578,0.545121457744264,0.006094716883031036,0.3161494321095916
30.78,30.53,-1.62,9.710668791847917e-05,0.33071869171467067,0.0006673842941360377,0.5462502198011816,0.006676836525497815,0.31699410554471896
30.841,30.59,-1.54,4.65426245190787e-05,0.33096826574807786,0.0008427264040903322,0.5473818272344376,0.007282273057563903,0.317836345070704
30.921,30.64,-1.55,1.4237756802303794e-05,0.331213514302895,0.0010383331815709993,0.5485160141557648,0.007910543869088996,0.3186758864802921
30.941,30.7,-1.62,0.0,0.33145427911949105,0.0012541388681228142,0.5496525048565023,0.008561158892777221,0.31951246362039326
31.023,30.75,-1.55,3.629643541566621e-06,0.33169039701412445,0.0014900717402485462,0.5507910140049544,0.009233621235679229,0.3203458086500647
31.085,30.81,-1.55,2.4919746944643225e-05,0.3319217001079602,0.001746054247245461,0.5519312468577082,0.009927427815387043,0.3211756523005838
31.128,30.86,-1.65,6.365654691901968e-05,0.33214801606271976,0.0020220031554768177,0.5530728994846986,0.010642070000174902,0.3220017241372833
31.19,30.92,-1.65,0.00011961987513882142,0.332369168322664,0.002317829698974535,0.5542156590078174,0.011377034252319031,0.322823752822822
31.273,30.97,-1.6,0.0001925835861064223,0.3325849763625891,0.0026334397362036406,0.5553592038529223,0.012131802773799093,0.3236414663815871
31.293,31.03,-1.65,0.00028231599448470503,0.3327952559414996,0.002968733912749834,0.5565032040151733,0.01290585415353721,0.32445459246493824
31.376,31.08,-1.64,0.0003885803212020215,0.3329998193616003,0.003323607829616833,0.557647321337704,0.01369866401526906,0.32526285861702897
31.396,31.14,-1.54,0.0005111351475430201,0.333198475732231,0.0036979522167421056,0.5587912098036871,0.014509705665084601,0.32606599254094043
31.437,31.19,-1.54,0.0006497348763487405,0.33339103123834696,0.004091653111274611,0.5599345158418543,0.01533845073763809,0.3268637223648412
31.499,31.25,-1.68,0.0008041301993780979,0.33357728941311726,0.004504592040121251,0.5610768786454295,0.016184369840011998,0.3276557769078413
31.58,31.3,-1.6,0.0009740685698399119,0.33375705141419587,0.0049366462062686405,0.5622179305042526,0.01704693319222316,0.328441885945166
31.661,31.36,-1.55,0.001159294679094251,0.33393011630320896,0.005387688678424324,0.5633572971496373,0.017925611263360335,0.3292217804722491
31.682,31.41,-1.6,0.00135955093653841,0.3340962813279979,0.005857588583575184,0.564494598111304,0.0188198754023187,0.32999519296736896
31.723,31.47,-1.55,0.0015745779517183452,0.3342553422071783,0.006346211302100558,0.5656294470856206,0.01972919846205573,0.3307618576525172
31.785,31.52,-1.49,0.001804115017735649,0.3344070934166081,0.0068534186651005415,0.5667614523143832,0.02065305541626626,0.33152151075226993
31.825,31.58,-1.41,0.002047900595043459,0.3345513284774032,0.007379069153611521,0.5678902169733923,0.021590923967373683,0.332273890750502
31.886,31.63,-1.41,0.002305672794733167,0.3346878402451822,0.007923018099381096,0.5690153395701307,0.022542285144752153,0.3330187386448342
31.948,31.69,-1.34,0.0025771698604013064,0.3348164212002661,0.00848511788686396,0.5701364143498815,0.023506623892137857,0.33375579819868606
32.052,31.74,-1.39,0.0028621306476558834,0.3349368637385709,0.009065218156088765,0.5712530317096093,0.024483429643256022,0.3344848161907101
32.071,31.8,-1.41,0.003160295100277409,0.3350489604629075,0.009663166006032557,0.5723647786188731,0.02547219688476573,0.3352055426612399
32.111,31.85,-1.32,0.0034714047220007612,0.33515250447434514,0.010278806198113742,0.573471239046953,0.026472425705682236,0.3359177311552624
32.173,31.91,-1.26,0.0037952030428454048,0.33524728966320777,0.010911981359379713,0.5745719943953109,0.027483622332466966,0.3366211389613638
32.214,31.96,-1.29,0.004131436078902117,0.3353331109991969,0.011562532184925926,0.5756666239344826,0.02850529964898882,0.33731552734610554
32.297,32.02,-1.23,0.004479852784490158,0.33540976482009077,0.012230297639047216,0.5767547052445215,0.02953697770058627,0.3380006617833201
32.38,32.07,-1.18,0.004840205495634416,0.3354770491184792,0.012915115154606874,0.5778358146581783,0.030578184181509805,0.33867631217786226
32.401,32.13,-1.2,0.005212250363874152,0.33553476382603176,0.013616820830120781,0.5789095277060642,0.03162845490508665,0.339342253083389
32.442,32.18,-1.18,0.005595747779498381,0.33558271109485,0.01433524962407906,0.5799754195630973,0.032687334256009164,0.33999826391378907
32.503,32.24,-1.08,0.005990462783403754,0.3356206955754949,0.015070235546056339,0.5810330654955921,0.03375437562420695,0.3406441291479138
32.566,32.29,-1.11,0.006396165466877328,0.3356485246913001,0.015821611844193163,0.5820820413083692,0.03482914181981886,0.3412796385272846
32.607,32.35,-1.14,0.006812631358690635,0.33566600890859244,0.016589211188655827,0.5831219237912492,0.03591120546883835,0.3419045872464627
32.648,32.4,-1.12,0.0072396417989400354,0.33567296200244445,0.017372865850692337,0.5841522911642809,0.037000149389062605,0.3425187761357727
32.752,32.46,-1.09,0.0076769842990927,0.3356692013175701,0.018172407876904727,0.5851727235210481,0.03809556694602624,0.343122011836082
32.773,32.51,-1.15,0.008124452887701493,0.3356545480239547,0.018987669258356897,0.586182803269395,0.03919706238863129,0.34371410696537635
32.814,32.57,-1.09,0.008581848441232233,0.33562882736680655,0.019818482094129817,0.5871821155689408,0.04030425116419609,0.34429488027693406
32.874,32.62,-1.03,0.009048978999411473,0.33559186891043385,0.02066467874892988,0.5881702487648097,0.04141676021265229,0.34486415680896493
32.937,32.68,-1.05,0.00952566006446896,0.3355435067756891,0.02152609200435786,0.5891467948170734,0.04253422823962986,0.34542176802564084
32.999,32.73,-1.04,0.010011714883633822,0.3354835798706693,0.022402555203450962,0.5901113497254801,0.04365630596819417,0.34596755194947915
33.041,32.79,-0.95,0.010506974714261626,0.3354119321144204,0.023293902388124794,0.5910635139491117,0.0447826563690419,0.34650135328506426
33.123,32.84,-0.98,0.011011279071025032,0.3353284126534509,0.02419996842917654,0.5920028928206429,0.04591295486901614,0.34702302353408837
33.143,32.9,-1.0,0.01152447595467605,0.3352328760709003,0.025120589148559167,0.5929290969548561,0.04704688953785681,0.3475324211016885
33.205,32.95,-0.94,0.012046422061968426,0.3351251825882376,0.026055601433688853,0.5938417426510163,0.04818416125315689,0.3480294113940482
33.288,33.01,-0.94,0.012576982976406921,0.33500519825937386,0.02700484334359934,0.5947404522886547,0.04932448384354589,0.34851386690721786
33.308,33.06,-1.0,0.013116033339554217,0.33487279515707835,0.027968154206799014,0.5956248547162712,0.05046758421016001,0.3489856673071117
33.371,33.12,-0.95,0.013663457002663845,0.3347278515516113,0.028945374710708745,0.5964945856324859,0.051613202426489924,0.3494446995006537
33.433,33.17,-0.91,0.01421914715842259,0.33457025208152874,0.02993634698256862,0.5973492879592412,0.052761091816722346,0.3498908576980764
33.473,33.23,-0.96,0.014783006452586228,0.3343998879166653,0.03094091466170578,0.5981886122067457,0.053911019012707714,0.3503240434664274
33.534,33.28,-0.96,0.015354947075283816,0.33421665691334473,0.03195892296305097,0.5990122168299246,0.05506276398969996,0.35074416577439677
33.595,33.34,-0.87,0.015934890831755654,0.3340204637618953,0.032990218731780985,0.5998197685762124,0.056216120081033195,0.3511511410286178
33.656,33.39,-0.91,0.016522769192291002,0.33381122012654263,0.03403465048896299,0.6006109428245259,0.057370893971925095,0.351544893101618
33.697,33.45,-0.92,0.017118523321150325,0.33358884477772327,0.0350920684680864,0.6013854239152038,0.05852690567262291,0.3519253533515995
33.76,33.5,-0.83,0.0177221040843024,0.3333532637168253,0.03616232464239018,0.6021429054706129,0.059683988471138816,0.3522924606342317
33.861,33.56,-0.83,0.018333472035883886,0.33310441029331667,0.037245272742929825,0.6028830907060129,0.06084198886585757,0.3526461613066452
33.882,33.61,-0.9,0.018952597383383354,0.33284222531418994,0.03834076826737167,0.6036056927301837,0.062000766478335266,0.3529864092238327
33.922,33.67,-0.84,0.01957945993164528,0.33256665714563677,0.03944866847953852,0.604310434835291,0.06316019394664621,0.35331316572769045
33.984,33.72,-0.81,0.020214049005876752,0.33227766180687396,0.04056883239976539,0.6049970507754693,0.06432015679967316,0.3536263996289707
34.047,33.78,-0.87,0.020856363353922262,0.3319752030560624,0.04170112078617027,0.6056652850336401,0.0654805533127651,0.35392608718245294
34.108,33.83,-0.88,0.021506411028139043,0.3316592524682889,0.04284539610700436,0.6063148930761361,0.06664129434520615,0.3542122120556931
34.149,33.89,-0.82,0.022164209247256227,0.3313297895056258,0.04400152250431702,0.6069456415947564,0.06780230315995728,0.35448476529173384
34.231,33.94,-0.88,0.022829784238627807,0.33098680157930754,0.0451693657492405,0.6075573087359122,0.06896351522614388,0.3547437452661754
34.25,34.0,-0.9,0.023503171061290577,0.3306302841040826,0.04634879318924894,0.608149684316511,0.07012487800476276,0.3549891576389958
34.311,34.05,-0.81,0.024184413410219107,0.3302602405447805,0.047539673687769964,0.6087225700262028,0.07128635071807729,0.35522101530148126
34.353,34.11,-0.79,0.024873563402145027,0.32987668245509105,0.048741877556531504,0.6092757796155739,0.07244790410316605,0.3554393383185786
34.416,34.16,-0.83,0.02557068134328852,0.32947962950847837,0.04995527648102213,0.6098091390698325,0.07360952015009094,0.35564415386692966
34.477,34.22,-0.78,0.026275835479351545,0.32906910952110247,0.051179743439436653,0.6103224867675058,0.0747711918251687,0.35583549616881804
34.539,34.27,-0.75,0.026989101728159454,0.328645158466584,0.05241515261548882,0.6108156736236559,0.07593292277986573,0.35601340642223916
34.62,34.33,-0.8,0.027710563395408377,0.3282078204824517,0.05366137930549702,0.6112885632171376,0.07709472704587719,0.35617793272731557
34.641,34.38,-0.8,0.02844031087406111,0.3277571478681478,0.05491829982017575,0.61174103190149,0.07825662871698812,0.3563291300093049
34.704,34.44,-0.72,0.029178441328016787,0.3272932010745312,0.056185791381596586,0.6121729688991396,0.07941866161834435,0.3564670599384823
34.745,34.49,-0.78,0.02992505836075055,0.3268160486848925,0.057463732015819835,0.6125842763786833,0.08058086896378124,0.35659179084720494
34.807,34.55,-0.81,0.030680271669665478,0.3263257673875695,0.05875200044171939,0.6129748695151198,0.08174330300186812,0.35670339764448056
34.868,34.6,-0.74,0.031444196686920806,0.32582244194030274,0.06005047595650404,0.6133446765331028,0.08290602465133731,0.35680196172835005
34.971,34.66,-0.76,0.032216954207507316,0.3253061651264793,0.06135903831839435,0.6136936387334936,0.08406910312657415,0.35688757089635487
35.015,34.71,-0.84,0.032998670005337724,0.3247770377033774,0.0626775676268733,0.6140217105036317,0.08523261555384626,0.35696031925430366
35.035,34.77,-0.79,0.033789474438103984,0.32423516834246463,0.06400594420089255,0.6143288593117785,0.0863966465789452,0.35702030712349453
35.075,34.82,-0.77,0.03458950204163316,0.32368067356172975,0.06534404845537771,0.6146150656861816,0.0875612879669039,0.3570676409464918
35.138,34.88,-0.83,0.03539889111445325,0.32311367764997134,0.06669176077633654,0.6148803231792022,0.08872663819443266,0.35710243319152396
35.218,34.93,-0.81,0.03621778329326314,0.3225343125829466,0.0680489613948387,0.6151246383169607,0.08989280203569122,0.3571248022555573
35.239,34.99,-0.77,0.03704632312000073,0.3219427179313243,0.06941553026012187,0.615348030534994,0.09105989014199363,0.3571348723661031
35.321,35.04,-0.81,0.037884657601228396,0.32133904076044734,0.07079134691208794,0.6155505321004346,0.09222801861602757,0.35713277348182354
35.342,35.1,-0.82,0.038732935760593654,0.3207234355219966,0.07217629035347063,0.6157321880212389,0.09339730858115484,0.357118641192013
35.426,35.15,-0.74,0.03959130818516076,0.3200960639377265,0.07357023892197609,0.615893055942979,0.09456788574634888,0.3570926166150321
35.468,35.21,-0.76,0.04045992656643735,0.31945709487550633,0.07497307016271909,0.6160332060336611,0.0957398799673175,0.3570548462957558
35.529,35.26,-0.81,0.041338943236934995,0.3188067042179391,0.07638466070129749,0.6161527208569543,0.09691342480435491,0.35700548210207383
35.591,35.32,-0.76,0.04222851070310355,0.3181450747238465,0.07780488611785967,0.6162516952341427,0.0980886570774675,0.3569446811204519
35.694,35.37,-0.75,0.04312878117547837,0.31747239588290177,0.07923362082253024,0.616330236095059,0.09926571641932429,0.35687260555053124
35.715,35.43,-0.83,0.04403990609687667,0.3167888637636673,0.08067073793257293,0.616388462318227,0.10044474482657714,0.35678942259872176
35.756,35.48,-0.8,0.04496203566945721,0.3160946808552795,0.0821161091516668,0.6164265045604528,0.10162588621008065,0.3566953043707376
35.798,35.54,-0.74,0.04589531838140854,0.31539005590302516,0.08356960465165032,0.6164445050761547,0.10280928594451803,0.3565904277630162
35.881,35.59,-0.78,0.046839900533961226,0.3146752037380844,0.08503109295705169,0.6164426175267587,0.10399509041791076,0.35647497435295783
35.902,35.65,-0.8,0.04779592576934775,0.31395034510174696,0.08650044083268454,0.6164210067805149,0.1051834465814604,0.3563491302879086
35.962,35.7,-0.71,0.0487635346002847,0.3132157064644529,0.08797751317453717,0.6163798487031261,0.1063745015001535,0.3562130861727889
36.045,35.76,-0.73,0.04974286394153631,0.31247151984002935,0.08946217290412072,0.6163193299396117,0.10756840190455201,0.3560670369562322
36.064,35.81,-0.77,0.05073404664413197,0.31171802259549347,0.09095428086636062,0.6162396476878631,0.10876529374418625,0.3559111818150749
36.125,35.87,-0.72,0.05173721103283751,0.3109554572567759,0.09245369573103751,0.61614100946436,0.10996532174296461,0.35574572403702
36.167,35.92,-0.68,0.052752480447518,0.31018407131068326,0.09396027389774782,0.6160236328624865,0.11116862895701407,0.35557087090129563
36.229,35.98,-0.73,0.05377997278905976,0.3094041170033942,0.09547386940435823,0.6158877453038413,0.11237535633536279,0.35538683355714556
36.311,36.03,-0.71,0.05481980007052676,0.30861585113578666,0.09699433383893981,0.6157335837829433,0.11358564228387114,0.35519382690001944
36.351,36.09,-0.68,0.05587206797420438,0.3078195348559315,0.09852151625516212,0.6155613946057935,0.11479962223281646,0.3549920694453573
36.433,36.14,-0.72,0.05693687541514314,0.30701543344913285,0.10005526309110979,0.6153714331228594,0.11601742820853363,0.3547817831998795
36.454,36.2,-0.73,0.058014314111757656,0.30620381612591957,0.10159541809145435,0.6151639634571351,0.11723918840950023,0.35456319353030175
36.496,36.25,-0.64,0.05910446816397375,0.30538495580838293,0.10314182223287456,0.6149392582280077,0.11846502678723769,0.3543365290293889
36.557,36.31,-0.64,0.060207413639365645,0.304559128915206,0.10469431365258758,0.6146975982716516,0.11969506263237625,0.3541020213792492
36.619,36.36,-0.67,0.061323218167698076,0.30372661514566685,0.10625272757983449,0.6144392723586325,0.12092941016621704,0.35385990521175137
36.683,36.42,-0.58,0.06245194054428679,0.3028876972628523,0.10781689627016089,0.6141645769093237,0.12216817813812045,0.35361041796592946
36.786,36.47,-0.55,0.06359363034261883,0.30204266087628834,0.10938664894235678,0.6138738157076596,0.12341146942906786,0.35335379974222864
36.806,36.53,-0.6,0.06474832753671957,0.30119179422418485,0.110961811717972,0.6135672996136418,0.1246593806617657,0.35309029315344276
36.827,36.58,-0.55,0.06591606213379458,0.30033538795550946,0.11254220756338745,0.613245346274923,0.12591200181768683,0.35282014317222177
36.888,36.64,-0.5,0.06709685381770636,0.2994737349121419,0.11412765623448339,0.6129082798377562,0.12716941586147384,0.35254359697505966
36.949,36.69,-0.54,0.06829071160386861,0.29860712991140104,0.11571797422399582,0.6125564306575919,0.12843169837315055,0.35226090378271346
37.011,36.75,-0.57,0.06949763350614623,0.2977358695292595,0.11731297471168448,0.6121901350096338,0.1296989171886049,0.35197231469703416
37.052,36.8,-0.5,0.07071760621633011,0.29686025188457627,0.1189124675174435,0.6118097347996807,0.130971132048815,0.3516780825342094
37.196,36.86,-0.52,0.07195060479671549,0.2959805764246608,0.12051625905748045,0.6114155772755627,0.13224839425829404,0.3513784616544119
37.216,36.91,-0.57,0.07319659238625438,0.29509714371244095,0.12212415230368073,0.6110080147394042,0.13353074635321727,0.3510737077878546
37.236,36.97,-0.49,0.07445551992069194,0.2942102552154452,0.12373594674626821,0.6105874042608237,0.1348182217796757,0.35076407785725294
37.277,37.02,-0.45,0.07572732586705501,0.293320213096737,0.12535143835988297,0.6101541073910538,0.13611084458248626,0.3504498297967048
37.338,37.08,-0.5,0.07701193597284638,0.29242732000788807,0.12697041957321137,0.6097084898778506,0.13740862910497526,0.35013122236701877
37.38,37.13,-0.45,0.07830926303030288,0.29153187888406307,0.12859267924231255,0.6092509213810351,0.1387115797001506,0.3498085149675607
37.442,37.19,-0.37,0.07961920665609519,0.2906341927413177,0.13021800262778477,0.608781775188548,0.14001969045369292,0.3494819674447415
37.524,37.24,-0.41,0.08094165308687794,0.28973456447624807,0.13184617137592178,0.6083014279329725,0.14133294491921378,0.3491518398973313
37.546,37.3,-0.43,0.08227647499113205,0.2888332966681629,0.13347696350401295,0.6078102593085595,0.14265131586625074,0.34881839247883983
37.629,37.35,-0.34,0.08362353129776387,0.2879306913839735,0.13511015338993754,0.6073086517888753,0.14397476504149564,0.34848188519724416
37.671,37.41,-0.37,0.0849826670419308,0.28702704998599793,0.13674551176620175,0.6067969903452347,0.1453032429437768,0.34814257771235546
37.734,37.46,-0.44,0.08635371322854049,0.28612267294286564,0.13838280571856035,0.6062756621660916,0.14663668861332982,0.3478007291311249
37.775,37.52,-0.36,0.08773648671382354,0.2852178596436822,0.14002179868935075,0.6057450563775469,0.14797502943589488,0.3474565978011936
37.838,37.57,-0.35,0.08913079010531974,0.2843129082155764,0.1416622504856549,0.6052055637651474,0.1493181809621726,0.3471104411029918
37.901,37.63,-0.42,0.09053641168055185,0.28340811534470944,0.14330391729239558,0.6046575764971504,0.15066604674315395,0.34676251524071006
37.942,37.68,-0.38,0.09195312532460054,0.2825037761008065,0.1449465516904631,0.6041014878494646,0.1520185181818192,0.34641307503248764
38.003,37.74,-0.31,0.09338069048675882,0.2816001837652794,0.14658990267996405,0.6035376919325348,0.15337547440168184,0.3460623737001939
38.085,37.79,-0.36,0.09481885215645405,0.2806976296630319,0.14823371570869126,0.6029665834204639,0.1547367821326404,0.34571066265920614
38.127,37.85,-0.4,0.09626734085866552,0.2797964029980794,0.14987773270592633,0.6023885572827046,0.15610229561458508,0.34535819130861556
38.147,37.9,-0.28,0.09772587266911631,0.2788967906931469,0.15152169212169123,0.601804008518671,0.15747185651920187,0.34500520682229896
38.208,37.96,-0.31,0.09919414924955965,0.27799907723342293,0.1531653289715742,0.6012133318956259,0.15884529389041252,0.344651953941296
38.27,38.01,-0.37,0.10067185790350054,0.27710354451465335,0.15480837488726812,0.6006169216901546,0.1602224241038821,0.34429867476792453
38.312,38.07,-0.33,0.10215867165269833,0.27621047169574253,0.1564505581729811,0.6000151714334832,0.1616030508460208,0.34394560856205203
38.374,38.12,-0.34,0.10365424933479851,0.2753201350559962,0.15809160386790802,0.5994084736608245,0.16298696511290062,0.34359299153990475
38.457,38.18,-0.42,0.10515823572243704,0.27443280785707763,0.15973123381497914,0.5987972196648748,0.1643739452294902,0.34324105667576926
38.498,38.23,-0.4,0.10667026166413063,0.2735487602096932,0.16136916673611656,0.5981817992535537,0.16576375688957098,0.34289003350693903
38.54,38.29,-0.34,0.10818994424720423,0.27266825894499414,0.16300511831423078,0.5975626005120751,0.16715615321664332,0.3425401479422723
38.642,38.34,-0.38,0.1097168869829292,0.2717915674906867,0.1646388012821961,0.5969400095694029,0.16855087484606765,0.3421916220747524
38.663,38.4,-0.38,0.11125068001397946,0.27091894575187064,0.1662699255190484,0.5963144103690973,0.16994765002862328,0.3418446739984664
38.704,38.45,-0.29,0.11279090034428056,0.2700506499966568,0.16789819815365142,0.5956861844444981,0.17134619475562038,0.3414995176304169
38.767,38.51,-0.32,0.11433711209133154,0.26918693274663147,0.169523323676073,0.5950557106981547,0.1727462129056745,0.3411563625375691
38.807,38.56,-0.36,0.11588886676109171,0.2683280426722397,0.17114500405689473,0.5944233651853947,0.17414739641323287,0.3408154137695003
38.87,38.62,-0.3,0.11744570354552265,0.2674742244931628,0.17276293887465524,0.5937895209019196,0.1755494254589327,0.3404768716969831
38.953,38.67,-0.3,0.11900714964286506,0.2666257188837621,0.1743768254516112,0.5931545475753072,0.17695196868185945,0.3401409318567959
38.995,38.73,-0.37,0.12057272060071213,0.265782762383638,0.17598635899800397,0.5925188114602761,0.17835468341375216,0.33980778480303725
39.057,38.78,-0.35,0.12214192068191551,0.26494558731333145,0.1775912327650172,0.5918826751375749,0.1797572159351722,0.33947761596521503
39.099,38.84,-0.32,0.12371424325331655,0.2641144216951745,0.17919113820659863,0.5912464973164145,0.1811592017536127,0.3391506055133776
39.161,38.89,-0.39,0.12528917119722996,0.2632894891792911,0.18078576515029998,0.5906106326404291,0.18256026590347538,0.3388269282305508
39.221,38.95,-0.41,0.12686617734551575,0.26247100897474634,0.18237480197724965,0.5899754314972203,0.18396002326777716,0.3385067533927313
39.263,39.0,-0.31,0.1284447249359704,0.26165919578583624,0.1839579358113119,0.589341239831616,0.18535807892138115,0.3381902446566586
39.365,39.06,-0.35,0.13002426809067866,0.26085425975349286,0.18553485271742567,0.588708398962781,0.18675402849547662,0.33787755995554464
39.385,39.11,-0.33,0.13160425231590048,0.260056406401754,0.1871052379090617,0.5880772454052834,0.18814745856296514,0.33756885140289317
39.447,39.17,-0.27,0.1331841150230254,0.2592658365892316,0.18866877596469941,0.5874481106941561,0.18953794704435833,0.33726426520449837
39.467,39.22,-0.24,0.13476328607010696,0.25848274646549935,0.19022515105320287,0.5868213212139374,0.19092506363376355,0.33696394157867215
39.529,39.28,-0.3,0.13634118832348133,0.2577073274323033,0.19177404716796753,0.5861971980316137,0.19230837024451836,0.33666801468472607
39.591,39.33,-0.27,0.13791723823896493,0.256939766109493,0.19331514836970934,0.5855760567333693,0.19368742147403012,0.3363766125597199
39.654,39.39,-0.24,0.1394908464621087,0.25618024430558356,0.19484813903775916,0.5849582072650569,0.1950617650873683,0.3360898570634777
39.757,39.44,-0.29,0.1410614184469571,0.25542893899287833,0.19637270412971644,0.5843439537763593,0.1964309425191346,0.3358078638318596
39.777,39.5,-0.31,0.142628355092711,0.2546860222871089,0.19788852944928326,0.5837335944686717,0.19779448939309413,0.33553074223826396
39.819,39.55,-0.23,0.14419105339761662,0.2539516614315631,0.19939530192205102,0.5831274214467995,0.19915193605900092,0.3352585953633094
39.881,39.61,-0.25,0.14574890712932123,0.25322601878565054,0.2008927098789506,0.5825257205745827,0.2005028081459941,0.3349915199725931
39.923,39.66,-0.29,0.14730130751084516,0.252509251817803,0.20238044334700855,0.5819287713345238,0.20184662713188298,0.3347296065023578
39.985,39.72,-0.23,0.14884764392124417,0.251801513102546,0.20385819434698801,0.5813368466914688,0.20318291092758634,0.33447293905282666
40.046,39.77,-0.18,0.15038730460998,0.25110295032153584,0.20532565719744666,0.5807502129603509,0.20451117447594983,0.33422159538890067
40.108,39.83,-0.23,0.15191967742399332,0.2504137062683436,0.20678252882472484,0.5801691296779826,0.2058309303641252,0.3339756469478826
40.149,39.88,-0.19,0.15344415054645819,0.24973391885678387,0.20822850907837068,0.5795938494788728,0.20714168944865974,0.3337351588538949
40.211,39.94,-0.13,0.15496011324619532,0.24906372113263303,0.2096633010515118,0.5790246179750622,0.20844296149241878,0.33350018993867414
40.273,39.99,-0.18,0.15646695663671295,0.2484032412886351,0.2110866114056958,0.5784616736399992,0.20973425581244334,0.33327079276844757
40.334,40.05,-0.2,0.15796407444384022,0.24775260268275193,0.21249815069972872,0.5779052476964965,0.2110150819378212,0.33304701367661665
40.354,40.1,-0.12,0.15945086378090267,0.2471119238596541,0.21389763372204065,0.5773555640088274,0.2122849502766232,0.3328288928019829
40.416,40.16,-0.14,0.16092672593036936,0.24648131857545677,0.21528477982609245,0.5768128389790079,0.21354337279092234,0.33261646413224927
40.477,40.21,-0.16,0.1623910671308556,0.24586089582567858,0.2166593132683074,0.5762772814472624,0.21478986367887018,0.33240975555251095
40.54,40.27,-0.1,0.16384329936829475,0.24525075987635844,0.2180209635479739,0.5757490925965935,0.21602394006276016,0.3322087888984289
40.582,40.32,-0.03,0.16528284117000935,0.24465101029822026,0.21936946574853222,0.5752284658612823,0.21724512268196947,0.332013580013752
40.643,40.38,-0.06,0.16670911840033517,0.24406174200374978,0.22070456087964035,0.5747155868390612,0.2184529365896386,0.33182413881184747
40.704,40.43,-0.0,0.16812156505640727,0.24348304528705353,0.2220259962194028,0.5742106332066653,0.21964691185192786,0.3316404693409125
40.766,40.49,0.07,0.1695196240627288,0.24291500586638262,0.22333352565614292,0.5737137746385037,0.22082658424869017,0.33146256985254774
40.849,40.54,0.03,0.17090274806321334,0.2423577049291757,0.22462691002910318,0.573225172728276,0.22199149597441437,0.3312904328733903
40.87,40.6,0.03,0.1722704002094881,0.24181121917942275,0.2259059174674555,0.5727449809134885,0.22314119633831028,0.33112404527951633
40.912,40.65,0.12,0.17362205494432542,0.24127562088711577,0.2271703237269922,0.5722733444029979,0.22427524246242445,0.3309633883733479
40.974,40.71,0.11,0.1749571987791087,0.24075097793955516,0.22841991252385938,0.5718104001078218,0.22539319997668175,0.33080843796281656
41.016,40.76,0.07,0.17627533106424786,0.24023735389429432,0.2296544758646931,0.571356276575491,0.22649464370974667,0.33065916444256005
41.078,40.82,0.14,0.17757596475143436,0.23973480803350455,0.23087381437251475,0.5709110939281844,0.22757915837459106,0.33051553287693525
41.12,40.87,0.18,0.1788586271465882,0.23924339541951972,0.23207773760773906,0.5704749638048185,0.2286463392476515,0.33037750308463076
41.204,40.93,0.14,0.1801228606522984,0.23876316695129257,0.23326606438364111,0.5700479893072071,0.22969579284044836,0.3302450297246669
41.266,40.98,0.22,0.18136822349850848,0.23829416942146958,0.2344386230756079,0.5696302649503979,0.23072713756252755,0.33011806238359526
41.307,41.04,0.29,0.1825942904601836,0.23783644557378741,0.23559525192347994,0.569221876617344,0.23174000437458347,0.3299965456637322
41.368,41.09,0.28,0.18380065356072475,0.23739003416050272,0.23673579932627906,0.5688229015181504,0.23273403743063562,0.3298804192722924
41.408,41.15,0.29,0.1849869227599527,0.23695496999960508,0.23786012412862645,0.5684334081542247,0.2337088947081511,0.32976961811131544
41.449,41.2,0.39,0.1861527266255567,0.23653128403162038,0.23896809589818896,0.5680534562877132,0.2346642486250482,0.3296640723682987
41.51,41.26,0.38,0.18729771298697775,0.2361190033758595,0.2400595951935452,0.5676830969165992,0.23559978664255565,0.3295637076074569
41.613,41.31,0.36,0.18842154957078047,0.23571815138600116,0.2411345138219264,0.5673223722557766,0.23651521185294572,0.32946844486154137
41.633,41.37,0.43,0.1895239246166503,0.23532874770489853,0.24219275508633792,0.5669713157243536,0.23741024355119858,0.32937820072415513
41.674,41.42,0.45,0.19060454747321853,0.234950808318477,0.24323423402160274,0.5666299519394007,0.23828461778969146,0.3292928874425057
41.736,41.48,0.4,0.19166314917295776,0.23458434560855984,0.2442588776188988,0.5662982967163184,0.23913808791503438,0.32921241301054666
41.797,41.53,0.47,0.1926994829853901,0.2342293684044416,0.24526662503838112,0.5659763570759814,0.23997042508619593,0.32913668126248274
41.838,41.59,0.53,0.19371332494782426,0.2338858820330411,0.24625742780949497,0.5656641312588405,0.240781418773082,0.32906559196662793
41.939,41.64,0.5,0.19470447437280586,0.23355388836749058,0.24723125001859272,0.5653616087462053,0.24157087723474882,0.3289990409196284
41.959,41.7,0.53,0.19567275433144454,0.23323338587405254,0.24818806848346858,0.5650687702890109,0.2423386279764555,0.32893692004107195
42.021,41.75,0.64,0.19661801211180216,0.23292436965728505,0.24912787291443744,0.5647855879443862,0.24308451818479498,0.3288791174685105
42.082,41.81,0.62,0.19754011965159146,0.23262683150339475,0.25005066606163295,0.5645120251202538,0.24380841514018758,0.3288255176529197
42.123,41.86,0.61,0.1984389739445255,0.2323407599217225,0.25095646384826914,0.5642480366280033,0.24451020660606965,0.3287760014546182
42.184,41.92,0.71,0.19931449741975094,0.2320661401843112,0.25184529548968065,0.5639935687431142,0.24518980119416786,0.32873044623966663
42.245,41.97,0.74,0.20016663829388703,0.23180295436349663,0.252717203598008,0.5637485592734959,0.24584712870531208,0.3286887259767597
42.327,42.03,0.67,0.2009953708952661,0.23155118136745578,0.2535722442724343,0.5635129376352749,0.2464821404452999,0.32865071133464
42.348,42.08,0.73,0.20180069596001754,0.23131079697366658,0.254410487174898,0.5632866249357992,0.24709480951538673,0.3286162697800829
42.389,42.14,0.76,0.20258264089966235,0.2310817738602743,0.25523201559122016,0.5630695340637124,0.2476851310770376,0.32858526567652707
42.449,42.19,0.7,0.20334126003988495,0.23086408163541225,0.2560369264775979,0.5628615697860674,0.2482531225906238,0.32855756038346146
42.511,42.25,0.7,0.20407663483013444,0.2306576868645803,0.2568253304924298,0.5626626288525386,0.24879882402777642,0.32853301235670934
42.553,42.3,0.79,0.20478887402367163,0.2304625530962253,0.2575973520134426,0.5624726001068635,0.24932229805713005,0.32851147724976754
42.616,42.36,0.78,0.20547811382764664,0.2302786408856817,0.2583531291400988,0.5622913646056544,0.24982363020320072,0.32849280801635017
42.677,42.41,0.78,0.20614451802277284,0.23010590781760587,0.25909281368125814,0.5621187957446729,0.2503029289781613,0.3284768550142551
42.718,42.47,0.88,0.20678827805217978,0.22994430852698747,0.2598165711280433,0.5619547593926061,0.2507603259863036,0.3284634661106322
42.78,42.52,0.9,0.2074096130790844,0.22979379471874845,0.26052458061182787,0.5617991140323195,0.25119597600102955,0.32845248678867656
42.841,42.58,0.83,0.2080087700129993,0.22965431518588772,0.26121703484725095,0.561651710909507,0.25161005701427797,0.3284437602557361
42.882,42.63,0.9,0.20858602350428254,0.2295258158261058,0.26189414006016476,0.5615123941886144,0.25200277025836615,0.3284371275527973
42.965,42.69,0.93,0.20914167590691166,0.2294082396568595,0.2625561159004546,0.5613810011159012,0.2523743402002969,0.3284324276653125
43.027,42.74,0.87,0.20967605720944232,0.22930152682882543,0.26320319533971825,0.5612573621895015,0.2527250145086404,0.3284294976353591
43.048,42.8,0.74,0.21018952493417656,0.22920561463779646,0.26383562455385196,0.5611413013363543,0.25305506399314265,0.3284281726751722
43.11,42.85,0.81,0.21068246400462337,0.22912043753505348,0.26445366279064614,0.5610326360958842,0.25336478251724376,0.3284282862821387
43.172,42.91,0.76,0.2111552865813902,0.22904592713623526,0.26505758222254766,0.560931177810288,0.2536544868836882,0.3284296703553858
43.212,42.96,0.71,0.21160843186668432,0.2289820122286618,0.2656476677847867,0.5608367318212338,0.2539245166933645,0.32843215531412684
43.275,43.02,0.81,0.21204236587760997,0.22892861877699433,0.26622421699906906,0.5607490976727261,0.25417523417745247,0.3284355702179274
43.337,43.07,0.84,0.212457581188425,0.22888566992703696,0.266787539783016,0.5606680693198233,0.2544070240029008,0.3284397428890231
43.397,43.13,0.8,0.2128545966418829,0.22885308600741774,0.2673379582455025,0.5605934353428365,0.2546202930512391,0.32844450003676867
43.44,43.18,0.87,0.213233957029761,0.22883078452883654,0.2678758064680135,0.5605249791665796,0.254815470170736,0.3284496673842469
43.5,43.24,0.9,0.21359623274268505,0.2288186801805503,0.2684014302721404,0.5604624792842096,0.2549930059019572,0.3284550697970222
43.541,43.29,0.84,0.2139420193894132,0.2288166848237799,0.2689151869733663,0.5604057094851694,0.2551533721768319,0.3284605314140016
43.603,43.35,0.86,0.21427193738581765,0.22882470748177022,0.2694174451213319,0.5603544390867696,0.25529706199139146,0.32846587578036046
43.664,43.4,0.92,0.21458663151387927,0.228842654326311,0.26990858422681224,0.5603084331689834,0.25542458905238996,0.32847092598249744
43.727,43.46,0.88,0.2148867704510898,0.2288704286606016,0.27038899447566395,0.560267452812077,0.25553648739805446,0.3284755047849778
43.768,43.51,0.84,0.2151730462707149,0.22890793089841246,0.27085907643002927,0.5602312553366954,0.25563331099323794,0.32847943476941716
43.83,43.57,0.9,0.2154461739134213,0.22895505853954187,0.27131924071708846,0.5601995945460102,0.25571563329927344,0.3284825384752184
43.891,43.62,0.86,0.21570689063079831,0.22901170614157412,0.27176990770566356,0.5601722209694826,0.25578404681885175,0.3284846385420224
43.931,43.68,0.79,0.21595595540131363,0.22907776528792412,0.2722115071709808,0.5601488821076989,0.25583916261625683,0.3284855578536782
43.993,43.73,0.84,0.21619414831922254,0.22915312455213224,0.2726444779479022,0.5601293226776558,0.2558816098132939,0.32848511968349386
44.054,43.79,0.88,0.21642226995691405,0.22923766945836502,0.27306926757292604,0.5601132848578351,0.25591203506124355,0.32848314784050064
44.158,43.84,0.83,0.2166411407011378,0.2293312824380843,0.2734863319152385,0.5601005085324269,0.2559311019891612,0.32847946681644663
44.178,43.9,0.86,0.21685160006353596,0.22943384278288,0.27389613479707003,0.5600907315341646,0.2559394906288384,0.32847390193325043
44.199,43.95,0.97,0.21705450596591602,0.22954522659351534,0.274299147603585,0.5600836898853689,0.2559378968167473,0.3284662794906576
44.281,44.01,0.92,0.21725073400075454,0.229665306725309,0.2746958488825293,0.5600791180369309,0.25592703157331925,0.3284564269138603
44.322,44.06,0.92,0.2174411766674985,0.22979395273006223,0.27508672393386924,0.5600767491050604,0.255907620459949,0.32844417290084926
44.384,44.12,1.02,0.21762674258532466,0.2299310307948103,0.27547226438965855,0.5600763151057174,0.2558804029141764,0.32842934756926273
44.445,44.17,1.01,0.21780835568312545,0.23007640367771168,0.2758529677843922,0.5600775471866647,0.25584613156356817,0.3284117826024815
44.507,44.23,0.97,0.21798695436759524,0.23022993064138972,0.27622933711613357,0.5600801758570612,0.25580557151889255,0.32839131139470196
44.527,44.28,1.01,0.21816349067038324,0.23039146738403976,0.2766018803987402,0.5600839312144655,0.25575949964724737,0.3283677691947063
44.59,44.34,1.03,0.21833892937534263,0.23056086596862435,0.27697111020555854,0.5600885431690985,0.25570870382587285,0.32834099324804533
44.651,44.39,0.97,0.21851424712694423,0.23073797475050387,0.27733754320501114,0.5600937416652155,0.25565398217743884,0.32831082293736535
44.712,44.45,0.99,0.21869043152092957,0.23092263830389287,0.27770169968855135,0.5600992568994605,0.25559614228763583,0.3282770999206636
44.774,44.5,1.04,0.21886848017825472,0.23111469734758866,0.2780641030915092,0.5601048195361035,0.2555360004059342,0.3282396682673115
44.816,44.56,1.0,0.21904939980333452,0.231313988670472,0.2784252795073961,0.5601101609190628,0.2554743806304002,0.3281983745917419
44.878,44.61,1.01,0.2192342052275505,0.23152034505733343,0.2787857571962729,0.5601150132805928,0.25541211407748254,0.3281530681847407
44.92,44.67,1.1,0.21942391843895512,0.23173359521562384,0.2791460660877969,0.5601191099465093,0.2553500380377179,0.3281036011423061
44.981,44.72,1.08,0.21961956759911633,0.23195356370375667,0.2795067372795648,0.5601221855378055,0.25528899511834124,0.32804982849204484
45.022,44.78,1.05,0.21982218604809614,0.23218007086158945,0.2798683025313711,0.5601239761684939,0.2552298323738492,0.32799160831707497
45.085,44.83,1.11,0.22003281129863367,0.23241293274370653,0.28023129375600864,0.5601242196394962,0.2551734004256275,0.32792880187738693
45.147,44.89,1.15,0.2202524840206932,0.23265196105610614,0.2805962425072681,0.5601226556283849,0.2551205525718309,0.3278612737286205
45.251,44.94,1.08,0.22048224701762228,0.232896963096883,0.28096367946585327,0.5601190258747406,0.25507214388877564,0.32778889183822746
45.272,45.0,1.08,0.22072314419522515,0.23314774170151065,0.2813341339239926,0.5601130743608694,0.25502903032516333,0.3277115276990363
45.314,45.05,1.12,0.22097621952509344,0.23340409519336316,0.2817081332695948,0.5601045474876374,0.25499206779052186,0.32762905644027746
45.356,45.11,1.05,0.22124251600354636,0.23366581734016278,0.28208620247085586,0.5600931942451977,0.25496211123929613,0.32754135693617226
45.418,45.16,1.01,0.22152307460751322,0.23393269731708316,0.28246886356226614,0.5600787663784119,0.25494001375205383,0.32744831191222995
45.46,45.22,1.07,0.22181893324864657,0.2342045196772614,0.2828566351329847,0.5600610185467725,0.2549266256152928,0.3273498080494123
45.523,45.27,1.03,0.2221311257268924,0.23448106433045415,0.28325003181854547,0.5600397084786243,0.25492279340134344,0.32724573608631735
45.626,45.33,0.97,0.2224606806846915,0.23476210653050397,0.2836495637968521,0.5600145971194487,0.2549293590498635,0.32713599091950346
45.647,45.38,1.01,0.22280862056297135,0.23504741687215164,0.2840557362893996,0.5599854487739535,0.25494715895242454,0.32702047170203813
45.69,45.44,1.02,0.2231759605601412,0.23533676129754497,0.28446904906864734,0.5599520312417189,0.2549770230416946,0.3268990819403311
45.751,45.49,0.94,0.2235637075954027,0.23562990111259952,0.28488999597247067,0.5599141159461754,0.2550197738867261,0.3267717295893274
45.813,45.55,0.95,0.22397285927778363,0.2359265930132444,0.2853190644266226,0.5598714780567483,0.2550762257958608,0.3266383271461686
45.855,45.6,0.97,0.22440440288235494,0.23622658912156733,0.2857567349761425,0.5598238966040913,0.25514718392877433,0.3264987917424755
45.917,45.66,0.89,0.2248593143351098,0.23652963703191449,0.28620348082665015,0.5597711545884239,0.2552334434191836,0.3263530452354305
45.999,45.71,0.82,0.22533855720796148,0.23683547986706613,0.28665976739644405,0.5597130390810781,0.25533578850973637,0.3262010142978511
46.021,45.77,0.84,0.2258430817252746,0.23714385634466306,0.2871260518802868,0.5596493413194086,0.2554549917005841,0.32604263050744214
46.102,45.82,0.76,0.22637382378327697,0.23745450085407604,0.2876027828257273,0.5595798567951977,0.2555918129131017,0.32587783043538315
46.143,45.88,0.64,0.22693170398360868,0.23776714354388553,0.28809039972276745,0.5595043853366173,0.25574699867016376,0.3257065557343795
46.206,45.93,0.64,0.22751762668214578,0.23808151042008233,0.28858933260760394,0.5594227311838237,0.2559212812943051,0.3255287532262658
46.248,45.99,0.64,0.22813247905410744,0.23839732345502876,0.28910000168105404,0.5593347030584234,0.25611537812500035,0.32534437498921687
46.29,46.04,0.52,0.2287771301763356,0.23871430070715086,0.28962281694212627,0.5592401142272815,0.25632999075618995,0.32515337844460085
46.35,46.1,0.51,0.22945243012754837,0.23903215645128387,0.29015817783706926,0.5591387825613402,0.2565658042950602,0.3249557264435101
46.411,46.15,0.52,0.23015920910732454,0.23935060131957037,0.29070647292414603,0.5590305305901814,0.256823486642977,0.3247513873530186
46.452,46.21,0.45,0.23089827657456719,0.23966934245279345,0.29126807955433426,0.5589151855530294,0.25710368779936776,0.32454033514223185
46.514,46.26,0.42,0.2316704204061905,0.23998808366202048,0.29184336356810736,0.558792579446833,0.25740703918923763,0.3243225494682152
46.575,46.32,0.49,0.23247640607676165,0.24030652560042756,0.2924326790084006,0.5586625490719984,0.2577341530149062,0.3240980157618825
46.636,46.37,0.44,0.23331697585980743,0.2406243659451415,0.2930363678498192,0.5585249360762473,0.25808562163246096,0.32386672531389804
46.739,46.43,0.34,0.23419284805146884,0.24094129958888064,0.29365475974412314,0.5583795869969267,0.25846201695334414,0.32362867536058704
46.759,46.48,0.35,0.23510471621714663,0.2412570188410992,0.2942881717820054,0.558226353301921,0.25886388987141906,0.323383869169774
46.799,46.54,0.33,0.23605324846173054,0.24157121363826012,0.294936908271158,0.5580650914291599,0.25929176971579515,0.32313231612638427
46.861,46.59,0.25,0.23703908672393753,0.24188357176278164,0.29560126053056945,0.5578956628245928,0.25974616372959314,0.3228740318175687
46.923,46.65,0.25,0.23806284609519163,0.24219377907014747,0.2962815067009219,0.5577179339784416,0.26022755657472146,0.32260903811706204
46.964,46.7,0.26,0.23912511416338106,0.24250151972363748,0.2969779115708691,0.5575317764595294,0.26073640986260926,0.32233736326843493
47.005,46.76,0.2,0.24022645038174975,0.24280647643613473,0.29769072641890065,0.557337066947462,0.26127316171072495,0.3220590419668469
47.088,46.81,0.17,0.24136738546313627,0.24310833071847604,0.298420188870432,0.5571336872624104,0.2618382263245938,0.3217741154388503
47.129,46.87,0.27,0.24254842079976627,0.24340676313384457,0.299166522769699,0.5569215243922117,0.26243199360492203,0.32148263151972456
47.191,46.92,0.26,0.24377002790882568,0.24370145355771364,0.2999299380659809,0.5567004705164765,0.2630548287793362,0.3211846447277374
47.253,46.98,0.23,0.2450326479040772,0.24399208144283513,0.30071063071361426,0.5564704230273608,0.2637070720581556,0.32088021633464586
47.336,47.03,0.31,0.24633669099381295,0.24427832608871497,0.3015087825852113,0.5562312845466075,0.26438903831355426,0.32056941443166304
47.378,47.09,0.34,0.2476825360054633,0.24455986691493722,0.30232456139746006,0.5559829629384131,0.2651010167814262,0.32025231399005105
47.399,47.14,0.3,0.2490705299371893,0.2448363837376297,0.3031581206488718,0.5557253713176117,0.2658432707852437,0.3199289969154704
47.44,47.2,0.37,0.25050098753676775,0.24510755704833367,0.3040095995688274,0.5554584280526617,0.2666160374811774,0.31959955209522645
47.503,47.25,0.48,0.25197419090803813,0.2453730682945652,0.3048791230772698,0.5551820567629505,0.26741952762373916,0.31926407543758945
47.565,47.31,0.46,0.253490389145125,0.2456326001614049,0.30576680175438514,0.554896186309969,0.2682539253512035,0.3189226699023998
47.606,47.36,0.5,0.25504979799458427,0.24588583685351648,0.3066727318196149,0.5546007507819514,0.26911938799007407,0.31857544552220074
47.667,47.42,0.63,0.2566525995455649,0.24613246437705186,0.3075969951193204,0.5542956894716315,0.2700160458778919,0.31822251941313423
47.73,47.47,0.65,0.2582989419480491,0.24637217082094423,0.30853965912242254,0.5539809468467752,0.2709440022037348,0.31786401577482204
47.811,47.53,0.66,0.25998893915924487,0.24660464663711693,0.3095007769233407,0.5536564725131369,0.2719033328658154,0.3175000658784454
47.831,47.58,0.78,0.2617226707182366,0.24682958491914853,0.3104803872515823,0.5533222211694511,0.272894086345659,0.3171308080422462
47.892,47.64,0.82,0.26350018154905475,0.24704668167892818,0.3114785144873663,0.5529781525540557,0.2739162835984241,0.3167563875937141
47.935,47.69,0.77,0.26532148179237885,0.2472556361208263,0.312495168682727,0.5526242313827321,0.2749699179590134,0.3163769568177933
48.017,47.75,0.83,0.2671865466661308,0.24745615091291814,0.3135303455875942,0.5522604272773958,0.27605495506370786,0.3159926748905392
48.059,47.8,0.9,0.269095316355232,0.24764793245483643,0.31458402668041097,0.5518867146853433,0.2771713327871406,0.31560370779776487
48.121,47.86,0.87,0.2710476959307735,0.24783069114189116,0.3156561792028913,0.551503072788866,0.2783189611944924,0.3152102282383141
48.183,47.91,0.88,0.27304355529877977,0.24800414162515846,0.31674675619854914,0.5511094854051637,0.27949772250883925,0.3148124155116911
48.244,47.97,0.97,0.2750827291786413,0.2481680030672972,0.31785569655462326,0.5507059408766369,0.2807074710936317,0.31441045538984236
48.305,48.02,0.94,0.27716501711118907,0.24832199939385052,0.3189829250470084,0.5502924319517561,0.28194803345032743,0.3140045399729213
48.346,48.08,0.9,0.27929018349633156,0.24846585953974218,0.32012835238779824,0.5498689556567731,0.28321920823124147,0.3135948675288847
48.388,48.13,0.97,0.2814579576601596,0.24859931769058824,0.32129187527505904,0.5494355131585398,0.2845207662677178,0.3131816423168008
48.448,48.19,1.02,0.28366803395145596,0.24872211351838533,0.3224733764445022,0.5489921096186575,0.28585245061375125,0.3127650743937968
48.49,48.24,0.95,0.2859200718675682,0.2488339924111277,0.3236727247227979,0.5485387540391441,0.28721397660521486,0.312345379405675
48.552,48.3,1.0,0.2882136962096097,0.24893470569595766,0.3248897750823441,0.548075459099834,0.28860503193485976,0.3119227783613451
48.653,48.35,1.05,0.29054849726694904,0.24902401085554327,0.3261243686973793,0.5476022409878291,0.29002527674328527,0.3114974973913469
48.674,48.41,1.01,0.292924031030924,0.24910167173746942,0.3273763330014001,0.5471191192194249,0.29147434372610437,0.31106976749084814
48.737,48.46,0.98,0.2953398194376844,0.24916745875651097,0.32864548174591307,0.5466261164550251,0.29295183825755844,0.31063982424759917
48.798,48.52,1.08,0.2977953506400058,0.24922114908971976,0.32993161506059665,0.5461232583076112,0.2944573385308552,0.31020790755540945
48.838,48.57,1.06,0.300290079307845,0.24926252686427863,0.33123451951498367,0.5456105731453398,0.2959903957155266,0.30977426131374874
48.921,48.63,1.03,0.3028234269573278,0.24929138333806589,0.3325539681818027,0.545088091888805,0.2975505341321124,0.30933913311410555
48.941,48.68,1.11,0.30539478230779943,0.2493075170728459,0.3338897207021422,0.5445558478034805,0.29913725144449116,0.3089027739137361
48.982,48.74,1.13,0.3080035016665492,0.24931073409996643,0.33524152335263924,0.5440138762878466,0.3007500188701997,0.3084654376974462
49.043,48.79,1.06,0.3106489093408421,0.2493008480784259,0.3366091091149544,0.5434622146577099,0.3023882814091095,0.30802738112807654
49.104,48.85,1.07,0.31333029807693463,0.24927768044517282,0.33799219774784905,0.5429009019272826,0.30405145809085016,0.3075888631864203
49.165,48.9,1.12,0.3160469295258105,0.24924106055753284,0.33939049586223213,0.5423299785876816,0.30573894224139087,0.30715014480138064
49.206,48.96,1.07,0.31879803473541735,0.2491908258276939,0.3408036969995897,0.5417494863836229,0.3074501017691994,0.30671148847126245
49.309,49.01,1.04,0.32158281466921845,0.24912682184923043,0.3422314817142459,0.5411594680891807,0.30918427947138427,0.30627315787717707
