Time_Host,Time_Arduino,easingdata,CH1_Oxy,CH1_Deoxy,CH2_Oxy,CH2_Deoxy,CH3_Oxy,CH3_Deoxy
1.443,0.04,0.0,0.0,0.1214647441141358,0.0,0.8568774556607027,0.08652248980530451,0.545126981799264
1.504,0.1,0.0,0.003047193747897942,0.1242573520997079,0.00379069802946077,0.8496023418236476,0.0869170044604334,0.5474785236992376
1.525,0.15,0.0,0.006113666895397498,0.12707923038731045,0.007592998403856541,0.8423668829637906,0.08735493929794631,0.5498354875366861
1.545,0.21,0.0,0.009198564500146505,0.12992952305362207,0.011405807660251763,0.8351737408665203,0.08783621917467839,0.5521973667788309
1.566,0.26,0.0,0.012301021501135025,0.1328073533673187,0.01522802881251032,0.8280255438274913,0.0883607261738967,0.5545636632000136
1.587,0.32,0.0,0.015420163348627678,0.13571182451647135,0.019058562039792094,0.8209248849843053,0.08892829940372471,0.5569338874343563
1.607,1.1,0.0,0.018555106641248452,0.13864202036213089,0.02289630536669721,0.8138743207205463,0.08953873485417198,0.5593075595130502
1.628,1.16,0.0,0.021704959769652903,0.14159700621700524,0.0267401553347403,0.8068763691422788,0.09019178531322233,0.561684209385525
1.67,1.21,0.0,0.0248688235662141,0.14457582964806437,0.03058900766488077,0.7999335086268597,0.09088716034230596,0.5640633774237824
1.733,1.27,0.0,0.02804579196013738,0.14757752130183394,0.03444175791087601,0.793048176443663,0.09162452631135214,0.5664446149091981
1.794,1.32,0.04,0.031234952637404632,0.1506010957510632,0.03829730210326011,0.7862227674460756,0.09240350649349141,0.5688274845011181
1.919,1.38,0.05,0.03443538770493369,0.15364555236137703,0.04215453738377686,0.7794596328339162,0.09322368121934947,0.5712115606865924
1.939,1.43,-0.01,0.03764617435832604,0.15670987617645807,0.04601236263010478,0.7727610789853048,0.09408458809076191,0.5735964302106012
1.96,1.49,-0.03,0.040866385552569925,0.15979303882026333,0.04986967907070598,0.7661293663569817,0.09498572225363554,0.5759816924861385
2.022,1.54,0.01,0.04409509067506239,0.16289399941477611,0.0537253908896297,0.7595667084520922,0.09592653672957338,0.5783669599835464
2.064,1.6,-0.04,0.047331356220300665,0.16601170551182146,0.05757840582110694,0.7530752708544184,0.09690644280574101,0.5807518585985658
2.127,1.65,-0.05,0.05057424646556833,0.1691450940375144,0.06142763573376408,0.7466571703279974,0.09792481048227783,0.5831360279986566
2.19,1.71,0.03,0.053822824146913265,0.17229309224794304,0.06527199720424677,0.7403144739810034,0.09898096897637519,0.585519121947195
2.25,1.76,0.05,0.057076151134694886,0.175454618694705,0.06911041208000097,0.7340491984927106,0.10007420728197239,0.5879008086051748
2.311,1.82,0.03,0.06033328910797153,0.1786285841989225,0.0729418080309235,0.7278633094022523,0.10120377478387337,0.5902807708100409
2.373,1.87,0.1,0.06359330022700439,0.18181389283237004,0.0767651190895767,0.7217587204578171,0.10236888192498274,0.5926587063313123
2.393,1.93,0.16,0.06685524780317889,0.1850094429043554,0.08057928617967743,0.7157372930248815,0.1035687009252966,0.5950343281026795
2.455,1.99,0.15,0.07011819696568587,0.18821412795299466,0.084383257632623,0.7098008355520612,0.10480236655124663,0.5974073644303358
2.497,2.04,0.16,0.07338121532435016,0.19142683773952923,0.0881759896918859,0.7039511030931658,0.10606897693397346,0.5997775591773886
2.6,2.1,0.24,0.07664337362803354,0.19464645924434792,0.09195644700517668,0.6981897968840828,0.10736759443509797,0.6021446719242622
2.621,2.15,0.21,0.0799037464180671,0.19787187766340475,0.09572360310434848,0.6925185639731056,0.10869724655855462,0.604508478105046
2.661,2.2,0.19,0.083161412676187,0.2011019774037475,0.09947644087308381,0.6869389969032683,0.11005692690703295,0.6068687691197562
2.724,2.26,0.24,0.08641545646645964,0.20433564307689328,0.10321395300245209,0.6814526334451712,0.1114455961815432,0.6092253524224822
2.786,2.31,0.24,0.0896649675706903,0.20757176048879866,0.10693514243444979,0.6760609563787032,0.11286218322257727,0.6115780515853678
2.828,2.37,0.19,0.09290904211681227,0.21080921762517338,0.11063902279362964,0.6707653933220126,0.11430558609126733,0.6139267063383878
2.889,2.42,0.23,0.09614678319975133,0.21404690563088657,0.11432461880688816,0.6655673166061085,0.11577467318885973,0.6162711725849046
3.01,2.48,0.29,0.09937730149424757,0.21728371978221261,0.1179909667114302,0.6604680431935702,0.11726828441272556,0.6186113223930345
3.031,2.54,0.29,0.10259971585909677,0.2205185604506666,0.12163711465088699,0.6554688346399343,0.1187852323470306,0.6209470439629086
3.072,2.59,0.31,0.10581315393224809,0.22375033405718905,0.12526212305953613,0.6505708970964194,0.12032430348610074,0.6232782415699749
3.112,2.64,0.4,0.10901675271617567,0.22697795401545984,0.12886506503456324,0.6457753813527035,0.12188425948847069,0.6256048354845349
3.173,2.7,0.4,0.1122096591529312,0.230200341663146,0.13244502669632324,0.641083382918483,0.12346383845959123,0.6279267618677237
3.234,2.75,0.4,0.11539103068828718,0.2334164271799178,0.136001107536592,0.6364959421425144,0.12506175626117955,0.6302439726441467
3.336,2.81,0.48,0.11856003582438962,0.23662515049109795,0.13953242075483327,0.6320140443678189,0.12667670784521795,0.6325564353513814
3.357,2.87,0.51,0.12171585466035162,0.2398254621558417,0.14303809358254216,0.6276386201217073,0.1283073686106324,0.6348641329665343
3.399,2.92,0.47,0.12485767942023704,0.24301632423877745,0.14651726759576572,0.6233705453392564,0.1299523957807033,0.6371670637100507
3.462,2.98,0.5,0.1279847149679002,0.24619671116407604,0.149969099015931,0.6192106416188821,0.1316104297992853,0.6394652408269936
3.503,3.03,0.52,0.13109617930816395,0.24936561055095777,0.1533927589991352,0.6151596765086994,0.1332800957439335,0.6417586923460421
3.584,3.08,0.47,0.13419130407382568,0.25252202402968765,0.15678743391407451,0.6112183638224153,0.13496000475403738,0.6440474608165039
3.646,3.14,0.47,0.13726933499798,0.25566496803715066,0.16015232560879003,0.6073873639835752,0.13664875547203348,0.6463316030237141
3.666,3.19,0.57,0.14032953237113707,0.2587934745911316,0.16348665166637907,0.6036672843970706,0.13834493549571086,0.6486111896832766
3.707,3.25,0.57,0.1433711714826078,0.26190659204245464,0.16678964564976337,0.6000586798468913,0.14004712283955134,0.6508863051146663
3.768,3.31,0.57,0.14639354304561897,0.2650033858041586,0.17006055733553407,0.5965620529191402,0.1417538874029813,0.6531570468947515
3.832,3.36,0.65,0.1493959536056203,0.2680829390569169,0.17329865293682561,0.5931778544493487,0.14346379244338373,0.6554235254918037
3.873,3.41,0.7,0.15237772593125629,0.27114435342994486,0.17650321531513355,0.5899064839931095,0.14517539605173296,0.6576858638805444
3.934,3.47,0.68,0.15533819938750068,0.2741867496566803,0.17967354418100048,0.5867482903189869,0.14688725262875535,0.6599441971387878
3.996,3.52,0.72,0.15827673029049044,0.2772092682045673,0.18280895628352728,0.583703571922617,0.14859791435956973,0.6621986720262864
4.078,3.58,0.78,0.16119269224363938,0.2802110698783212,0.1859087855887143,0.5807725775609098,0.15030593268482723,0.6644494465464489
4.098,3.63,0.75,0.1640854764546556,0.28319133639610133,0.1889723834466941,0.5779555068052504,0.15200985976643117,0.6666966894916891
4.16,3.69,0.75,0.16695449203312346,0.28614927093807685,0.19199911874796335,0.5752525106126225,0.1537082499459706,0.6689405799732374
4.202,3.75,0.82,0.16979916626834152,0.28908409866692225,0.194988378068741,0.57266369191361,0.15539966119404272,0.6711813069363076
4.286,3.8,0.81,0.1726189448871349,0.29199506721983326,0.1979395658055771,0.5701891062162653,0.15708265654866987,0.6734190686615158
4.346,3.85,0.77,0.175413292291388,0.29488144717169684,0.20085210429930758,0.5678287622248601,0.15875580554103041,0.6756540722534451
4.386,3.91,0.84,0.17818169177506496,0.29774253246908516,0.20372543394840395,0.5655826224725568,0.16041768560672875,0.6778865331172275
4.468,3.96,0.88,0.18092364572050332,0.30057764083478417,0.206559013311731,0.5634506039670579,0.16206688348083442,0.6801166744240102
4.489,4.02,0.87,0.18363867577378257,0.3033861141426062,0.20935231920071362,0.5614325788482974,0.16370199657491785,0.682344726566187
4.551,4.08,0.91,0.186326322998988,0.30616731876228764,0.21210484676091856,0.5595283750572849,0.16532163433431954,0.6845709266033206
4.612,4.13,1.0,0.1889861480112207,0.3089206458743327,0.2148161095430738,0.5577377770152703,0.16692441957392676,0.6867955176997251
4.674,4.18,1.0,0.1916177310882505,0.31164551175472593,0.2174856395635944,0.5560605263124183,0.16850898979079515,0.6890187485547049
4.715,4.24,1.0,0.19422067226076445,0.31434135802950014,0.22011298735473475,0.5544963224051556,0.17007399845203472,0.6912408728264494
4.817,4.29,1.08,0.1967945913812236,0.3170076518992069,0.22269772200453367,0.5530448233213094,0.1716181162564817,0.6934621485505494
4.837,4.35,1.11,0.199339128171401,0.31964388633339574,0.2252394311867534,0.5517056463721204,0.17314003236878323,0.6956828375540172
4.878,4.41,1.08,0.20185394224873382,0.32224958023526507,0.22773772118103797,0.5504783688701743,0.17463845562462504,0.6979032048656195
4.94,4.46,1.13,0.2043387131316808,0.32482427857669055,0.23019221688351654,0.5493625288523221,0.17611211570592952,0.7001235181232695
4.98,4.51,1.15,0.20679314022434736,0.32736755250386684,0.2326025618080777,0.5483576258067208,0.17755976428494719,0.7023440469791814
5.022,4.57,1.1,0.20921694278071046,0.32987899941381177,0.23496841807854774,0.5474631214031855,0.17898017613624892,0.7045650625034945
5.085,4.62,1.09,0.21160985984884065,0.332358243002001,0.2372894664120207,0.5466784402261052,0.18037215021568664,0.7067868365870882
5.19,4.68,1.18,0.21397165019556008,0.3348049332814249,0.2395654060935979,0.5460029705092164,0.18173451070543295,0.7090096413443459
5.211,4.74,1.16,0.216302092212002,0.33721874657338713,0.241795954942799,0.5454360648715468,0.18306610802422665,0.7112337485166429
5.252,4.79,1.16,0.2186009838005512,0.33959938547039176,0.24398084927189345,0.5449770410538147,0.18436581980195835,0.7134594288773369
5.313,4.84,1.26,0.22086814224365753,0.3419465787714911,0.24611984383637414,0.5446251826545305,0.18563255181775679,0.7156869516390119
5.355,4.9,1.28,0.22310340405503754,0.3442600813904882,0.2482127117777777,0.544379739864984,0.18686523890079768,0.717916583863662
5.415,4.95,1.25,0.22530662481381375,0.34653967423741894,0.25025924455905774,0.544239930202244,0.18806284579314375,0.7201485898764682
5.477,5.01,1.3,0.22747767898218227,0.3487851640737686,0.2522592518927298,0.5442049392393051,0.18922436797403105,0.7223832306837941
5.579,5.07,1.35,0.22961645970723718,0.35099638334192584,0.25421256166203504,0.5442739213315877,0.19034883244513867,0.7246207633960428
5.599,5.12,1.34,0.2317228786076198,0.35317318996941993,0.25611901983539964,0.5444460003390934,0.19143529847649216,0.7268614406560325
5.64,5.17,1.33,0.23379686554569323,0.3553154671485416,0.2579784903744931,0.544720270343634,0.19248285831275264,0.7291055100736054
5.701,5.23,1.39,0.23583836838597427,0.35742312309199337,0.2597908551361952,0.5450957963606611,0.19349063783974343,0.7313532136672025
5.743,5.29,1.35,0.23784735274058105,0.3594960907652551,0.2615560137688005,0.5455716150452772,0.19445779721116183,0.7336047873131278
5.806,5.34,1.3,0.2398238017024724,0.3615343275963853,0.2632738836028047,0.5461467353919786,0.19538353143550524,0.7358604602031594
5.846,5.39,1.32,0.24176771556726284,0.36353781516399697,0.26494439953662385,0.5468201394276169,0.19626707092330065,0.7381204543111054
5.931,5.45,1.31,0.24367911154439356,0.36550655886416417,0.2665675139175912,0.5475907828969651,0.19710768199475717,0.7403849838688326
5.972,5.5,1.28,0.24555802345842356,0.36744058755701603,0.26814319641855966,0.5484575959401928,0.19790466734796003,0.7426542548522729
6.032,5.56,1.31,0.24740450144117293,0.3693399531937836,0.26967143391040244,0.5494194837615298,0.19865736648769663,0.7449284644779566
6.095,5.62,1.36,0.24921861161540407,0.3712047304250761,0.271152230330652,0.5504753272884758,0.19936515611497604,0.7472078007106716
6.157,5.67,1.33,0.2510004357706755,0.3730350161911872,0.2725856065484568,0.5516239838211128,0.20002745047729173,0.7494924417829177
6.219,5.72,1.33,0.25275007103195574,0.3748309292952651,0.2739716002259607,0.5528642876714149,0.20064370167969292,0.75178255572688
6.281,5.78,1.41,0.254467629521553,0.3765926099602139,0.27531026567613687,0.5541950507928395,0.20121339995677617,0.7540782999196713
6.303,5.83,1.39,0.2561532380149072,0.37832021937021076,0.27660167371706995,0.5556150634007635,0.20173607390577386,0.756379820642594
6.362,5.89,1.41,0.25780703759079565,0.3800139391977401,0.2778459115226798,0.5571230945844139,0.2022112906809813,0.7586872526551436
6.403,5.95,1.46,0.25942918327652065,0.38167397111704826,0.27904308246989806,0.5587178929109313,0.20263865614984106,0.7610007187844242
6.465,6.0,1.48,0.2610198436886589,0.3833005363049273,0.2801933059823408,0.5603981870221592,0.20301781501109933,0.7633203295305399
6.527,6.05,1.42,0.262579200669973,0.38489387492973587,0.28129671737055695,0.56216268622472,0.203348450875552,0.7656461826883998
6.57,6.11,1.43,0.26410744892309057,0.38645424562956066,0.2823534676689661,0.5640100810739418,0.20363028631000452,0.767978362986267
6.652,6.16,1.45,0.2656047956415655,0.3879819249804129,0.28336372346961625,0.5659390439522289,0.20386308284516153,0.7703169417412944
6.672,6.22,1.37,0.2670714601389306,0.38947720695534205,0.28432766675289695,0.5679482296425132,0.20404664094822195,0.7726619765322637
6.734,6.28,1.32,0.26850767347633503,0.39094040237533384,0.285245494715311,0.5700362758974902,0.20418079996097088,0.7750135108897397
6.795,6.33,1.4,0.2699136780893275,0.392371838352848,0.28611741959434306,0.5722018040054271,0.2042654380041475,0.7773715740038523
6.837,6.38,1.39,0.27128972741429946,0.39377185772883205,0.28694366849038894,0.5744434193533671,0.20430047184882766,0.7797361804499061
6.898,6.44,1.34,0.27263608551505253,0.3951408185040246,0.2877244831856449,0.576759711988518,0.20428585675550923,0.7821073299319999
6.959,6.5,1.38,0.27395302670990246,0.39647909326533326,0.28846011995981385,0.5791492571785342,0.20422158628156298,0.7844850070447914
7.04,6.55,1.41,0.2752408351996963,0.39778706860804997,0.28915084940247815,0.5816106159713156,0.20410769205772125,0.786869181053482
7.061,6.61,1.37,0.27649980469709307,0.399065144554643,0.2897969562220185,0.5841423357548732,0.20394424353430068,0.7892598056920679
7.123,6.66,1.36,0.27773023805744734,0.4003137339708512,0.29039873905099567,0.5867429508177886,0.2037313476978846,0.7916568189799293
7.185,6.71,1.44,0.27893244691162605,0.40153326197979866,0.2909565102479488,0.5894109829108473,0.20346914875922173,0.7940601430568663
7.248,6.77,1.39,0.28010675130108487,0.4027241653748353,0.2914705956956043,0.5921449418104504,0.20315782781313751,0.7964696840367197
7.308,6.83,1.36,0.2812534793155298,0.4038868920317996,0.2919413345955317,0.594943325884376,0.20279760247128636,0.7988853318797181
7.391,6.88,1.41,0.28237296673348256,0.4050219003213836,0.2923690792593336,0.5978046226603595,0.20238872646861325,0.801306960283645
7.412,6.93,1.39,0.28346555666606704,0.40612965852225835,0.2927541948965194,0.6007273093978049,0.20193148924443238,0.8037344265938497
7.474,6.99,1.31,0.28453159920432347,0.40721064423559505,0.29309705939926944,0.60370985366277,0.20142621549905068,0.8061675717320613
7.515,7.04,1.31,0.28557145107034154,0.40826534380158414,0.29339806312433014,0.6067507139062541,0.20087326472687292,0.8086062201439347
7.576,7.1,1.33,0.28658547527248207,0.4092942517185363,0.2936576086722838,0.6098483400457841,0.20027303072691646,0.8110501797652298
7.618,7.16,1.28,0.2875740407649217,0.41029787006511925,0.29387611066443003,0.613001174050286,0.19962594109162585,0.8134992420065349
7.68,7.21,1.27,0.28853752211172035,0.4112767079262662,0.2940539955174974,0.6162076505282583,0.19893245667482287,0.8159531817564714
7.74,7.26,1.34,0.2894762991555617,0.41223128082327176,0.29419170121637617,0.6194661973192913,0.19819307103957515,0.8184117574033365
7.781,7.32,1.3,0.29039075669128267,0.4131621101485775,0.2942896770850434,0.6227752360889701,0.19740830988673194,0.8208747108751319
7.842,7.37,1.27,0.2912812841442692,0.4140697226057362,0.2943483835558387,0.6261331829271554,0.19657873046486274,0.8233417676978992
7.883,7.43,1.32,0.2921482752537859,0.4149546496550293,0.29436829193723946,0.6295384489495621,0.19570492096234055,0.8258126370722344
7.945,7.49,1.34,0.2929921277613021,0.4158174269651983,0.29434988418028746,0.6329894409024532,0.1947874998823319,0.8282870119677983
8.006,7.54,1.26,0.2938132431038879,0.4166585938717282,0.2942936526438273,0.6364845617701517,0.19382711540147046,0.8307645692356093
8.047,7.59,1.28,0.29461202611275655,0.41747869284210637,0.2942000998587097,0.6400222113850408,0.19282444471300905,0.8332449697378959
8.152,7.65,1.3,0.29538888471703034,0.4182782689484733,0.2940697382910963,0.643600787039748,0.1917801933552617,0.8357278584953016
8.172,7.7,1.24,0.2961442296527994,0.41905786934807887,0.29390309010498894,0.6472186841012908,0.19069509452615052,0.8382128648512849
8.233,7.76,1.2,0.2968784741775302,0.41981804277195023,0.2937006869240908,0.6508742966270652,0.18956990838465523,0.8406996026536168
8.275,7.82,1.23,0.2975920337898649,0.4205593390221697,0.2934630695930819,0.6545660179826551,0.18840542133993063,0.8431876704529229
8.336,7.87,1.18,0.2982853259548309,0.42128230847813974,0.293190787938362,0.65829224146148,0.18720244532881697,0.8456766517181828
8.376,7.92,1.15,0.2989587698344579,0.4219875016121857,0.292884400528272,0.6620513609062716,0.18596181708240736,0.8481661150690422
8.479,7.98,1.19,0.29961278602377067,0.42267546851481713,0.2925444744327458,0.6658417713322952,0.18468439738227294,0.8506556145247106
8.499,8.04,1.22,0.30024779629210446,0.42334675842993663,0.29217158498230106,0.6696618695521093,0.1833710703068825,0.8531446897691536
8.561,8.09,1.18,0.3008642233296772,0.4240019193002539,0.2917663155262716,0.6735100548015066,0.1820227424687035,0.8556328664322675
8.621,8.15,1.2,0.30146249049935636,0.424641497323144,0.29132925719020225,0.6773847293661657,0.18064034224244988,0.8581196563867413
8.661,8.2,1.26,0.3020430215935715,0.4252660365171717,0.2908610086323693,0.6812842992085256,0.1792248189849562,0.8606045580603471
8.722,8.26,1.21,0.30260624059635033,0.4258760782994974,0.2903621757994363,0.6852071745944014,0.17777714224719607,0.8630870567634246
8.762,8.31,1.19,0.303152571450478,0.4264721610743738,0.28983337168129003,0.6891517707188973,0.17629830097899776,0.8655666250313503
8.864,8.37,1.24,0.303682437829803,0.42705481983293436,0.2892752160651153,0.6931165083312079,0.17478930272705281,0.868042722981797
8.884,8.42,1.23,0.3041962629167263,0.42762458576447127,0.2886883352887653,0.6970998143578941,0.1732511728268431,0.8705147986865477
8.946,8.48,1.16,0.3046944691849315,0.42818198587938466,0.2880733619934895,0.7011001225241841,0.1716849535891315,0.8729822885575895
8.988,8.53,1.18,0.30517747818741825,0.42872754264397267,0.2874309348760888,0.7051158739727769,0.17009170348167393,0.8754446177471414
9.051,8.59,1.16,0.30564571034991256,0.42926177362721085,0.28676169844058913,0.7091455178795629,0.1684724963068187,0.8779012005612086
9.111,8.64,1.06,0.3060995847697178,0.4297851911596548,0.28606630274955325,0.7131875120656042,0.16682842037564535,0.8803514408862171
9.152,8.7,1.02,0.3065395190200577,0.4302983020045871,0.285345403175146,0.7172403236047384,0.1651605776792488,0.8827947326282849
9.214,8.75,1.07,0.3069659289599313,0.4308016070415109,0.2845996601500282,0.7213024294262563,0.1634700830576966,0.8852304601647123
9.275,8.81,1.02,0.30737922854946975,0.4312956009620748,0.28382973891810204,0.7253723169121984,0.16175806336707454,0.8876579988073042
9.335,8.86,1.0,0.3077798296707526,0.43178077197847897,0.2830363092850669,0.7294484844888494,0.16002565664490492,0.8900767152771479
9.398,8.91,1.08,0.30816814195401776,0.4322576015443755,0.2822200453686903,0.7335294422119993,0.15827401127411356,0.8924859681904648
9.439,8.97,1.1,0.3085445726091936,0.43272656408823373,0.2813816253486636,0.7376137123454715,0.1565042851456545,0.8948851085550986
9.48,9.03,1.05,0.3089095262626814,0.43318812675911167,0.2805217312159019,0.7416998299323467,0.15471764481988004,0.8972734802771778
9.582,9.08,1.1,0.3092634047993216,0.4336427491847618,0.27964104852114935,0.7457863433582798,0.15291526468676206,0.8996504206774737
9.622,9.14,1.13,0.30960660720947986,0.43409088324200107,0.2787402661227696,0.7498718149063454,0.1510983261251243,0.9020152610169976
9.683,9.19,1.11,0.309939529441197,0.4345329728392857,0.2778200759336285,0.7539548213029338,0.14926801666110495,0.9043673270314355
9.703,9.25,1.09,0.31026256425735377,0.43496945371143725,0.27688117266700396,0.7580339542543293,0.14742552912612722,0.9067059394740863
9.766,9.3,1.14,0.31057610109781764,0.43540075322647503,0.27592425358148415,0.762107820973735,0.14557206081471688,0.9090304146670144
9.827,9.36,1.08,0.31088052594655113,0.4358272902045024,0.27495001822482684,0.7661750446985752,0.14370881264256286,0.9113400650600912
9.867,9.41,1.15,0.31117622120367644,0.4362494747485839,0.27395916817675686,0.7702342651979206,0.14183698830525673,0.9136341997975315
9.969,9.47,1.17,0.31146356556249205,0.43666770808752503,0.27295240679066185,0.7742841392698704,0.13995779343818088,0.9159121252914066
9.991,9.52,1.12,0.31174293389143776,0.4370823824304405,0.27193043893412583,0.7783233412286668,0.13807243477805461,0.9181731458014861
10.032,9.58,1.05,0.3120146971209847,0.43749388083296115,0.2708939707282173,0.7823505633812602,0.13618211932670946,0.9204165640206008
10.094,9.63,1.06,0.31227922213540166,0.43790257707490227,0.26984370928540785,0.786364516493023,0.13428805351772252,0.9226416816646111
10.155,9.69,1.09,0.31253687166930905,0.4383088355491897,0.2687803624459582,0.7903639302423526,0.1323914423865596,0.9248478000659828
10.216,9.74,1.05,0.3127880042088904,0.4387130111618206,0.26770463851257614,0.79434755366398,0.13049348874484903,0.9270342207699441
10.258,9.8,1.04,0.3130329738975999,0.4391154492426164,0.26661724598313813,0.7983141555808674,0.12859539235935902,0.9292002461322201
10.319,9.85,1.1,0.31327213044618324,0.4395164854665152,0.2655188932812706,0.8022625250246574,0.1266983491362275,0.9313451799173414
10.38,9.91,1.07,0.3135058190468305,0.43991644578514383,0.2644102884846135,0.806191471644603,0.12480355031100325,0.9334683278965427
10.441,9.96,1.03,0.31373438029128214,0.44031564636840415,0.26329213905065535,0.8100998261047473,0.12291218164507905,0.935568998444252
10.482,10.02,1.06,0.3139581500927296,0.4407143935558151,0.2621651515401201,0.8139864404687942,0.12102542262913284,0.9376465031321863
10.545,10.07,1.08,0.31417745961137283,0.4411129838173437,0.2610300313380018,0.8178501885717873,0.11914444569423044,0.939700157320066
10.606,10.13,0.99,0.31439263518354105,0.4415117037234585,0.25988748237243126,0.8216899663775487,0.11727041543127045,0.9417292807420262
10.728,10.18,0.98,0.3146039982543281,0.44191082992413416,0.2587382068315906,0.8255046923209604,0.11540448781947121,0.9437331980878901
10.748,10.24,1.0,0.31481186531373423,0.4423106291365422,0.2575829048788936,0.8292933076344341,0.11354780946461243,0.9457112395785687
10.768,10.29,0.93,0.3150165478363191,0.44271135814117923,0.2564222743666381,0.8330547766581358,0.11170151684773733,0.9476627415349417
10.808,10.35,0.86,0.3152183522243695,0.4431132637861972,0.25525701054831695,0.8367880871337061,0.10986673558498464,0.949587046939662
10.87,10.4,0.9,0.3154175797545659,0.4435165829997129,0.2540878057897201,0.8404922504813372,0.10804457969916598,0.951483505991364
10.912,10.46,0.88,0.3156145265281168,0.4439215428098678,0.25291534927890724,0.8441663020601193,0.10623615090363428,0.9533514766507412
10.974,10.51,0.82,0.3158094834243066,0.44432836037239065,0.25174032673506613,0.8478093014115295,0.10444253789890308,0.9551903251779085
11.057,10.57,0.87,0.3160027360573758,0.4447372430053986,0.2505634201162241,0.851420332485865,0.1026648156824009,0.9569994266603854
11.077,10.62,0.9,0.3161945647366209,0.4451483882311531,0.24938530732574948,0.8549985038513402,0.10090404487169344,0.9587781655309497
11.139,10.68,0.84,0.3163852444295778,0.4455619838244839,0.24820666191758858,0.858542948885492,0.09916127104147826,0.9605259360745922
11.182,10.73,0.84,0.31657504472814346,0.4459782078675999,0.2470281528002198,0.8620528259485196,0.09743752407465264,0.9622421429238246
11.264,10.79,0.92,0.3167642298174882,0.44639722881102584,0.24585044393935096,0.8655273185382197,0.09573381752777267,0.9639262015416755
11.325,10.84,0.88,0.31695305844762595,0.4468192055404201,0.2446741940594844,0.8689656354262032,0.09405114801125111,0.9655775386917921
11.365,10.9,0.83,0.31714178390752396,0.4472442874490515,0.2435000563446105,0.8723670107750374,0.09239049458467068,0.9671955928951411
11.428,10.95,0.89,0.31733065400165217,0.4476726145157312,0.24232867813844586,0.8757307042358813,0.090752818167628,0.968779814872848
11.49,11.01,0.87,0.3175199110288923,0.44810431738800616,0.2411607006447595,0.8790560010260768,0.08913906096656175,0.9703296679747253
11.532,11.06,0.79,0.31770979176374436,0.4485395174704366,0.2399967586283959,0.8823422119860641,0.08755014591804092,0.971844628593069
11.592,11.12,0.79,0.3179005274397781,0.44897832701779267,0.23883748011761577,0.8855886736149985,0.08598697614899414,0.9733241865613448
11.655,11.17,0.78,0.31809234373527717,0.4494208492330338,0.23768348610835138,0.8887947480845789,0.08445043445435668,0.9747678455374358
11.716,11.23,0.71,0.3182854607610135,0.44986717836995677,0.23653539027093629,0.8919598232308191,0.08294138279258224,0.9761751233711803
11.8,11.28,0.66,0.3184800930500726,0.45031739984042285,0.23539379865981164,0.8950833125237649,0.0814606617994108,0.9775455524560022
11.82,11.34,0.73,0.3186764495496328,0.450771590326082,0.2342593094266325,0.8981646550154188,0.08000909032020705,0.9788786800644865
11.861,11.39,0.7,0.3188747336145844,0.45122981789450345,0.23313251253711428,0.9012033152663089,0.07858746496109603,0.980174068667751
11.902,11.45,0.67,0.31907514300285367,0.4516921421196105,0.2320139894918782,0.9041987832512406,0.07719655965903453,0.9814312962384313
11.963,11.5,0.73,0.3192778698722863,0.4521586142062961,0.23090431305148817,0.907150574244803,0.07583712527090027,0.9826499565370481
12.024,11.56,0.74,0.3194831007789387,0.45262927711908396,0.22980404696584555,0.9100582286872356,0.0745098891816649,0.9838296593814577
12.086,11.61,0.69,0.3196910166766375,0.4531041657146893,0.22871374570811448,0.9129213120312532,0.07321555493173108,0.9849700308990686
12.168,11.66,0.73,0.3199017929176819,0.4535833068783377,0.22763395421336982,0.9157394145704921,0.07195480186354401,0.9860707137615485
12.208,11.72,0.77,0.3201155992545863,0.45406671966370277,0.22656520762218207,0.9185121512503194,0.07072828478763035,0.9871313674017879
12.249,11.78,0.72,0.320332599842779,0.4545544154363356,0.2255080310293807,0.9212391614618213,0.06953663366825812,0.9881516682129555
12.31,11.83,0.69,0.32055295324419136,0.4550463980204626,0.2244629392382449,0.9239201088198947,0.06838045332894983,0.9891313097295288
12.37,11.89,0.74,0.3207768124316808,0.45554266384904046,0.22343043652034913,0.9265546809264709,0.0672603231781231,0.9900700027901835
12.391,11.94,0.68,0.3210043247942486,0.45604320211695654,0.22241101638125058,0.9291425891200034,0.0661767969551674,0.990967475682376
12.453,12.0,0.61,0.3212356321430373,0.45654799493726067,0.22140516133215168,0.9316835682124125,0.06513040249727596,0.9918234742683762
12.534,12.05,0.62,0.3214708707181157,0.457057017500303,0.22041334266760226,0.9341773762147324,0.06412164152733998,0.9926377620924249
12.616,12.11,0.64,0.32171017119607903,0.45757023823563336,0.21943602024923242,0.9366237940527515,0.06315098946317461,0.9934101204686091
12.638,12.16,0.51,0.32195365869849446,0.45808761897650474,0.21847364229545077,0.939022625273941,0.06221889524827916,0.9941403485490244
12.701,12.22,0.51,0.3222014528012165,0.4586091151268114,0.21752664517700188,0.9413736957469568,0.061325781204250265,0.9948282633718245
12.742,12.27,0.58,0.3224536675445779,0.45913467583029716,0.21659545321826165,0.9436768533550022,0.060472042904879876,0.9954736998888732
12.825,12.33,0.55,0.3227104114444512,0.4596642441418788,0.21568047850415503,0.945931967684359,0.059658049071874664,0.9960765109729617
12.886,12.38,0.52,0.3229717875041703,0.46019775720095246,0.2147821206925861,0.9481389297094414,0.05888414149204004,0.9966365674048364
12.906,12.44,0.6,0.32323789322731433,0.4607351464065697,0.21390076683227058,0.95029765147579,0.05815063495571671,0.9971537578405298
12.947,12.49,0.61,0.3235088206313758,0.46127633759438963,0.21303679118587643,0.9524080657824069,0.05745781721624982,0.9976279887595972
13.008,12.55,0.54,0.3237846562623678,0.461821251215326,0.2121905550584244,0.9544701258646336,0.056805948970291224,0.9980591843949173
13.07,12.6,0.57,0.3240654812104523,0.46236980251582205,0.21136240663098674,0.9564838050784379,0.05619526385877393,0.9984472866447208
13.131,12.66,0.59,0.32435137112669754,0.4629219017197007,0.21055268079982867,0.9584490965865757,0.0556259684884437,0.9987922549675254
13.172,12.71,0.52,0.3246423962410903,0.4634774542115529,0.20976169902123934,0.9603660130468177,0.05509824247386226,0.9990940662606691
13.296,12.77,0.48,0.3249386213819458,0.46403636072163684,0.20898976916235715,0.9622345863023469,0.054612238499796455,0.9993527147231752
13.316,12.82,0.5,0.3252401059968586,0.46459851751227194,0.20823718535831306,0.9640548670744765,0.054168082403886264,0.9995682117037074
13.357,12.88,0.43,0.3255469041753387,0.46516381656571276,0.20750422787601389,0.965826924657868,0.05376587327944191,0.9997405855343462
13.399,12.93,0.39,0.3258590646732612,0.4657321457734797,0.20679116298486874,0.9675508466183905,0.053405683598146556,0.9998698813508783
13.46,12.99,0.45,0.32617663093923605,0.46630338912710567,0.20609824283471886,0.9692267384936786,0.05308755935234332,0.9999561609002305
13.502,13.04,0.48,0.32649964114297303,0.46687742691023537,0.20542570534117807,0.9708547234963371,0.052811520216477205,0.9999995023356256
13.563,13.1,0.45,0.3268281282056865,0.4674541358919881,0.2047737740785385,0.9724349422196445,0.05257755972716728,1.0
13.626,13.15,0.5,0.3271621198325657,0.4680333895214798,0.20414265818035313,0.973967552345562,0.05238564548133543,0.999957764198224
13.688,13.21,0.55,0.3275016385473241,0.468615058123396,0.2035325522477807,0.9754527283548949,0.05223571935182789,0.9998729209586588
13.73,13.26,0.53,0.32784670172884967,0.4691990090945092,0.20294363626578835,0.9768906612395143,0.052127697720012536,0.9997456117846125
13.792,13.32,0.53,0.3281973216499871,0.46978510710105087,0.20237607552733577,0.9782815582166052,0.05206147172489924,0.9995759933962934
13.876,13.37,0.59,0.3285535055185058,0.4703732142768571,0.20183002056569993,0.9796256424449875,0.05203690752840424,0.9993642374638771
13.897,13.43,0.57,0.3289152555203284,0.4709631904222162,0.20130560709513345,0.980923152743592,0.052053846596454026,0.999110530332284
14.0,13.48,0.54,0.3292825688651223,0.471554893203349,0.20080295596006179,0.9821743433122138,0.05211210599568771,0.9988150727382223
14.02,13.54,0.54,0.329655437834382,0.47214817835245676,0.2003221730930165,0.9833794834546813,0.052211478705572474,0.998478079519983
14.061,13.59,0.52,0.33003384983214373,0.47274289986826984,0.19986334948149745,0.9845388573045645,0.05235173394578798,0.9980997793204116
14.123,13.65,0.43,0.3304177874384873,0.47333891021703034,0.19942656114397075,0.9856527635534843,0.05253261751874708,0.9976804142834643
14.185,13.7,0.4,0.3308072284659688,0.4739360605338452,0.1990118691152273,0.9867215151820168,0.052753852167090394,0.9972202397448127
14.225,13.76,0.43,0.33120214601910775,0.47453420082435216,0.19861931944133382,0.9877454391931559,0.05301513794592192,0.9967195239170497
14.267,13.81,0.4,0.3316025085570121,0.4751331801666483,0.19824894318440495,0.9887248763482837,0.05331615260944026,0.9961785475701438
14.369,13.87,0.37,0.33200827995918036,0.47573284691343193,0.19790075643739422,0.9896601809055628,0.053656552011491374,0.9955976037078492
14.39,13.92,0.47,0.3324194195944733,0.47633304889430617,0.19757476034905513,0.9905517203605819,0.05403597051945409,0.9949769972407788
14.431,13.98,0.49,0.3328358823932078,0.4769336336181814,0.1972709411591903,0.9913998751888815,0.054454021440794524,0.9943170446568287
14.514,14.03,0.45,0.333257618922305,0.4775344484757054,0.19698927024430232,0.9922050385897134,0.054910297461592344,0.9936180736896334
14.554,14.09,0.5,0.33368457546341773,0.47813534094164745,0.1967297041737691,0.9929676162301866,0.05540437109635944,0.9928804229857375
14.595,14.14,0.54,0.33411669409397193,0.4787361587771601,0.19649218477668912,0.9936880259888802,0.0559357951485288,0.9921044417711912
14.656,14.2,0.51,0.33455391277107616,0.4793367502318524,0.19627663921958,0.9943666976980493,0.05650410318106205,0.9912904895183239
14.739,14.25,0.51,0.33499616541828026,0.4799369642456201,0.19608298009514522,0.9950040728836462,0.05710880999668711,0.9904389356135377
14.76,14.31,0.58,0.33544338201518686,0.48053665065019424,0.1959111055223404,0.9956006045025257,0.05774941212733582,0.9895501590270256
14.823,14.36,0.53,0.3358954886899463,0.48113566037038424,0.1957608992579731,0.9961567566763345,0.05842538833240172,0.9886245479853549
14.885,14.41,0.55,0.33635240781469644,0.481733845624987,0.195632230820065,0.9966730044216504,0.05913620010547612,0.9876624996478267
14.925,14.47,0.58,0.3368140581040377,0.4823310601273197,0.19552495562318756,0.9971498333759533,0.05988129218925348,0.9866644197874167
14.987,14.53,0.55,0.33728035471665685,0.4829271592853073,0.195438915125962,0.9975877395189752,0.06066009309832798,0.9856307224769396
15.049,14.58,0.46,0.3377512093602204,0.48352200040102544,0.19537393699087638,0.9979872288889128,0.061472015649627836,0.9845618297808536
15.09,14.64,0.47,0.3382265303996426,0.48411544286958413,0.19532983525650957,0.998348817293011,0.06231645750024429,0.9834581714528997
15.152,14.69,0.52,0.3387062229687952,0.4847073483772275,0.19530641052217532,0.998673030012112,0.06319280169239141,0.9823201846396277
15.213,14.75,0.49,0.3391901890856848,0.485297581098517,0.19530345014492287,0.9989604014988884,0.06410041720517187,0.9811483135898077
15.276,14.8,0.49,0.3396783277710834,0.48588600789246045,0.19532072844875645,0.9992114750696076,0.06503865951274809,0.979943009369737
15.357,14.86,0.58,0.34017053517056417,0.48647249849744445,0.19535800694587066,0.9994268025894096,0.06600687114847062,0.9787047295844484
15.378,14.91,0.56,0.34066670467988003,0.48705692572482784,0.19541503456966092,0.9996069441511455,0.06700438227450675,0.9774339381047805
15.48,14.97,0.52,0.34116672707362156,0.48763916565104815,0.19549154791924256,0.9997524677478826,0.06803051125653296,0.9761311048001948
15.521,15.02,0.59,0.3416704906371041,0.48821909780809386,0.19558727151518834,0.9998639489392122,0.06908456524309872,0.9747967052771737
15.542,15.08,0.61,0.3421778813014519,0.4887966053721891,0.19570191806618709,0.9999419705115409,0.07016584074932183,0.9734312206229857
15.583,15.13,0.55,0.34268878278187176,0.48937157535053316,0.19583518874634936,0.9999871221325461,0.07127362424461911,0.972035137154629
15.644,15.19,0.54,0.34320307671912453,0.4899438987659416,0.19598677348292182,1.0,0.07240719274420912,0.9706089461728136
15.706,15.24,0.59,0.34372064282421316,0.4905134708392349,0.1961563512542044,0.9999812064852265,0.07356581440415341,0.9691531437208929
15.746,15.3,0.52,0.3442413590263138,0.49108019116922164,0.19634359039748403,0.9999313497715357,0.07474874911971252,0.9676682303486879
15.847,15.35,0.46,0.3447651016239726,0.49164396391011184,0.19654814892678904,0.9998510434880413,0.07595524912677275,0.9661547108811733
15.868,15.41,0.52,0.34529174543957813,0.49220469794619087,0.196769674860232,0.9997409063392869,0.07718455960605575,0.9646130941919899
15.911,15.46,0.54,0.34582116397709617,0.49276230706356144,0.19700780655666741,0.9996015617310704,0.07843591928976347,0.9630438929817104
15.972,15.52,0.49,0.34635322958301673,0.4933167101187465,0.19726217306133442,0.9994336373927691,0.07970856107023806,0.9614476235607398
16.035,15.57,0.53,0.3468878136104191,0.4938678312039291,0.19753239446008297,0.9992377649964677,0.08100171261015597,0.9598248056366824
16.118,15.63,0.59,0.3474247865860083,0.49441559980860245,0.1978180822417158,0.9990145797732469,0.082314596953748,0.9581759621059784
16.138,15.68,0.58,0.347964018379946,0.4949599509774048,0.19811883966795152,0.9987647201270631,0.08364643313853531,0.956501618849638
16.2,15.74,0.59,0.34850537837827283,0.49550082546392854,0.198434262150526,0.9984888272467157,0.08499643680708596,0.9548023045329916
16.262,15.79,0.66,0.34904873565771377,0.496038169880294,0.19876393763498762,0.9981875447164616,0.08636382081833746,0.9530785504094583
16.326,15.85,0.64,0.34959395916266545,0.4965719368422827,0.199107446990797,0.9978615181258649,0.0877477958580914,0.9513308901283636
16.365,15.9,0.59,0.35014091788417595,0.4971020851098164,0.1994643644073862,0.9975113946794576,0.08914757104835377,0.9495598595468258
16.446,15.96,0.64,0.3506894810407414,0.4976285797225596,0.19983425779585548,0.9971378228067637,0.09056235455525397,0.9477659965456808
16.466,16.01,0.63,0.3512395182607569,0.49815139213041776,0.2002166891959913,0.9967414517731901,0.09199135419531404,0.9459498408493893
16.569,16.07,0.56,0.35179089976646255,0.49867050031869975,0.20061121518827768,0.9963229312922695,0.09343377803984297,0.9441119338498696
16.589,16.12,0.58,0.3523434965592223,0.4991858889277039,0.2010173873105342,0.9958829111398032,0.09488883501720599,0.9422528184342803
16.65,16.17,0.58,0.3528971806059535,0.49969754936648925,0.20143475247876444,0.9954220407705944,0.09635573551267938,0.9403730388168217
16.713,16.23,0.53,0.35345182502649997,0.5002054799205893,0.20186285341175644,0.9949409689385583,0.0978336919655444,0.9384731403746825
16.754,16.28,0.54,0.35400730428170024,0.5007096858534218,0.20230122905893597,0.9944403433210529,0.09932191946300073,0.9365536694882549
16.836,16.34,0.63,0.3545634943618534,0.5012101795011422,0.2027494150309202,0.9939208101482474,0.10081963633040593,0.9346151733856768
16.856,16.39,0.62,0.35512027297523324,0.5017069803606753,0.20320694403215947,0.9933830138382804,0.10232606471728377,0.9326581999916527
16.939,16.45,0.6,0.3556775197362603,0.5022001151706558,0.20367334629498585,0.9928275966388547,0.10384043117850886,0.9306832977803468
16.96,16.5,0.67,0.35623511635292016,0.5026896179849966,0.20414815001433306,0.9922551982758316,0.10536196725008298,0.9286910156320084
17.022,16.56,0.71,0.35679294681302176,0.5031755302388102,0.20463088178237976,0.9916664556092787,0.10688991001896152,0.9266819026928687
17.083,16.61,0.67,0.35735089756891775,0.503657900806405,0.20512106702240882,0.9910620022972992,0.10842350268644117,0.9246565082378196
17.144,16.67,0.69,0.35790885772033976,0.5041367860510996,0.20561823042124494,0.9904424684678634,0.10996199512466964,0.9226153815354593
17.205,16.73,0.75,0.3584667191950295,0.5046122498666233,0.20612189635970968,0.9898084803988175,0.11150464442589289,0.9205590717151723
17.246,16.78,0.71,0.3590243769268701,0.5050843637099044,0.20663158934060058,0.9891606602062443,0.11305071544409986,0.9184881276360397
17.308,16.83,0.68,0.3595817290312382,0.5055532066250773,0.2071468344137385,0.9884996255414125,0.11459948132875752,0.916403097757448
17.349,16.89,0.72,0.3601386769773073,0.5060188652585798,0.20766715759762866,0.9878259892965999,0.11615022405035402,0.9143045300113077
17.411,16.94,0.7,0.36069512575704105,0.5064814338652286,0.20819208629726446,0.9871403593201029,0.11770223491747779,0.9121929716757795
17.473,17.0,0.63,0.361250984050614,0.5069410143051825,0.20872114971757744,0.9864433381406852,0.11925481508514227,0.9100689692503973
17.513,17.05,0.66,0.36180616438799157,0.5073977160317106,0.2092538792720041,0.9857355227016898,0.12080727605402633,0.9079330683324746
17.575,17.11,0.69,0.3623605833063847,0.5078516560696965,0.2097898089856342,0.9850175041049669,0.12235894016024719,0.9057858134946636
17.679,17.16,0.68,0.3629141615032723,0.5083029589848065,0.21032847589243922,0.9842898673646889,0.12390914105521231,0.9036277481635339
17.7,17.22,0.7,0.3634668239846604,0.5087517568432567,0.21086942042612408,0.9835531911710582,0.1254572241750239,0.9014594144990284
17.742,17.27,0.79,0.3640185002082202,0.5091981891621152,0.21141218680416685,0.9828080476639324,0.12700254719886767,0.8992813532746314
17.782,17.33,0.78,0.3645691242209363,0.5096424028500794,0.2119563234046119,0.9820550022164332,0.12854448049581646,0.897094103758014
17.843,17.39,0.77,0.3651186347908917,0.5100845521386744,0.21250138313519107,0.9812946132285892,0.13008240755951592,0.8948982035918467
17.904,17.44,0.85,0.36566697553283417,0.5105247985038323,0.21304692379437876,0.9805274319310254,0.13161572543028618,0.8926941886743909
17.965,17.5,0.89,0.3662140950271936,0.5109633105778124,0.2135925084240428,0.9797540021985857,0.13314384510425065,0.8904825930394189
18.047,17.55,0.84,0.3667599469322597,0.511400264051437,0.2141377056534144,0.9789748603736804,0.13466619192917603,0.8882639487350291
18.068,17.6,0.87,0.36730449008926913,0.5118358415666214,0.2146820900341521,0.9781905350990612,0.13618220598678107,0.8860387857009635
18.129,17.66,0.9,0.36784768862018985,0.5122702325991983,0.21522524236634583,0.9774015471595844,0.13769134246135037,0.8838076316441039
18.191,17.71,0.85,0.36838951201802755,0.512703633332049,0.21576675001542914,0.9766084093322335,0.13919307199455866,0.8815710119119019
18.253,17.77,0.84,0.3689299352295046,0.5131362465185823,0.2163062072200993,0.9758116262432975,0.14068688102644827,0.8793294493635825
18.294,17.82,0.89,0.3694689387299843,0.5135682813366217,0.21684321539144272,0.9750116942313477,0.14217227212251654,0.8770834642390307
18.397,17.88,0.83,0.3700065085905233,0.513999953232785,0.21737738340349883,0.9742091012145409,0.14364876428686232,0.8748335740252855
18.417,17.93,0.75,0.3705426365369386,0.5144314837574367,0.21790832787547773,0.9734043265607679,0.14511589326131374,0.8725802933205354
18.458,17.99,0.81,0.3710773200007755,0.5148631003903016,0.21843567344579987,0.972597840959175,0.14657321181041533,0.8703241336954494
18.519,18.05,0.84,0.37161056216205296,0.5152950363568056,0.21895905303807967,0.97179010629159,0.14802028999208286,0.8680656035516285
18.58,18.1,0.79,0.3721423719836498,0.5157275304351964,0.21947810811913346,0.9709815755023959,0.14945671541363947,0.8658052079769339
18.621,18.16,0.83,0.37267276423718815,0.5161608267544743,0.21999248894902504,0.970172692465574,0.1508820934728582,0.8635434485974597
18.704,18.21,0.9,0.3732017595202691,0.5165951745831476,0.22050185482305795,0.9693638918480681,0.1522960475835908,0.8612808234259508
18.725,18.26,0.87,0.3737293842649244,0.517030828108822,0.22100587430550644,0.9685555989692367,0.1536982193855502,0.8590178267065169
18.788,18.32,0.87,0.3742556707371579,0.5174680462086422,0.22150422545477966,0.9677482296567512,0.15508826893782873,0.8567549487555851
18.83,18.37,0.96,0.37478065702747265,0.5179070922106273,0.22199659603965075,0.966942190099726,0.156465874895768,0.8544926757990978
18.89,18.43,0.98,0.37530438703230345,0.5183482336459536,0.22248268374616534,0.9661378767000663,0.15783073467084485,0.8522314898060012
18.953,18.48,0.95,0.37582691042631095,0.5187917419922649,0.22296219637484627,0.9653356759230522,0.15918256457329197,0.8499718683180805
18.993,18.54,0.99,0.3763482826255282,0.519237892408096,0.22343485202782098,0.96453596414816,0.16052109993723487,0.8477142842762013
19.056,18.59,1.01,0.3768685647413811,0.5196869634585226,0.22390037928552498,0.9637391075210856,0.16184609522820526,0.8454592058430117
19.139,18.65,0.95,0.3773878235256352,0.5201392368321534,0.22435851737268556,0.9629454618078747,0.1631573241329537,0.8432070962221687
19.16,18.7,0.92,0.3779061313063444,0.5205949970496014,0.22480901631334144,0.9621553722520267,0.16445457963152324,0.8409584134741924
19.221,18.76,0.98,0.37842356591489335,0.5210545311635814,0.22525163707468884,0.9613691734354366,0.16573767405154985,0.8387136103291135
19.303,18.82,0.94,0.3789402106042349,0.5215181284507805,0.22568615169957199,0.9605871891440099,0.16700643910473048,0.8364731339961408
19.323,18.87,0.93,0.3794561539584252,0.5219860800956586,0.22611234342745265,0.9598097322387048,0.16826072590534621,0.834237425970616
19.385,18.92,1.02,0.37997148979355466,0.5224586788663229,0.22653000680372176,0.9590371045326028,0.16950040497067337,0.8320069218385117
19.447,18.98,1.06,0.38048631705016644,0.5229362187826304,0.22693894777728293,0.9582695966743892,0.17072536620308626,0.8297820510786826
19.507,19.03,1.04,0.38100073967724335,0.5234189947766823,0.2273389837864279,0.9575074880383864,0.1719355188536521,0.8275632368630464
19.569,19.09,1.1,0.38151486650784416,0.5239073023459024,0.22772994383309655,0.956751046621171,0.17313079146706584,0.8253508958548563
19.65,19.14,1.15,0.382028811126476,0.5244014371989298,0.22811166854566534,0.9560005289448162,0.1743111318078576,0.8231454380052506
19.672,19.2,1.12,0.38254269172832067,0.5249016948945776,0.22848401023045334,0.955256179966875,0.17547650676790863,0.820947266348326
19.712,19.25,1.12,0.383056630970474,0.5254083704741473,0.2288468329121856,0.9545182329972978,0.17662690225541086,0.8187567767950715
19.773,19.31,1.18,0.3835707558154103,0.5259217580873966,0.22920001236370183,0.9537869096225298,0.17776232306549986,0.8165743579265714
19.834,19.36,1.14,0.3840851973669251,0.5264421506124853,0.22954343612524808,0.9530624196370212,0.17888279273286922,0.8144003907869238
19.874,19.42,1.09,0.3846000906988424,0.5269698392702319,0.22987700351373083,0.9523449609823277,0.1799883533667282,0.8122352486763202
19.936,19.48,1.12,0.3851155746767929,0.5275051132330217,0.2302006256223358,0.9516347196938684,0.181079065468496,0.8100792969447198
20.018,19.53,1.1,0.3856317917733834,0.5280482592287155,0.23051422531093568,0.9509318698552637,0.18215500773263524,0.8079328927865285
20.039,19.58,1.0,0.3861488878770798,0.528599561139903,0.23081773718773083,0.9502365735600129,0.18321627683099811,0.8057963850366895
20.101,19.64,1.02,0.3866670120951241,0.5291592995988516,0.23111110758256884,0.9495489808801785,0.18426298718099923,0.8036701139686359
20.164,19.69,1.07,0.3871863165507883,0.5297277515784913,0.23139429451237625,0.9488692298417004,0.185295270697849,0.8015544110945919
20.248,19.75,1.04,0.38770695617525175,0.5303051899797787,0.23166726763910817,0.9481974464059829,0.18631327653098262,0.7994495989687525
20.289,19.8,1.05,0.3882290884943584,0.5308918832157677,0.23193000822056428,0.9475337444574532,0.18731717078472554,0.7973559909938867
20.33,19.86,1.16,0.3887528734104769,0.531488094792718,0.23218250905433122,0.9468782257969074,0.18830713622318068,0.7952738912318876
20.391,19.91,1.16,0.38927847297966417,0.5320940828885693,0.23242477441501477,0.9462309801405596,0.18928337195931458,0.7932035942187193
20.454,19.97,1.13,0.3898060511843227,0.5327100999291225,0.2326568199848455,0.9455920851247843,0.1902460931282569,0.7911453847841596
20.495,20.02,1.2,0.39033577370154027,0.5333363921622724,0.23287867277768515,0.9449616063165766,0.19119553054489716,0.7890995378766701
20.556,20.08,1.25,0.39086780766732276,0.5339731992306586,0.23309037105645686,0.9443395972297502,0.192131930345961,0.787066318393694
20.637,20.14,1.21,0.39140232143695547,0.5346207537431069,0.23329196424406135,0.9437260993468517,0.19305555361684068,0.7850459810176862
20.657,20.19,1.21,0.3919394843417681,0.5352792808452428,0.23348351282789664,0.9431211421467607,0.19396667600353806,0.7830387700582406
20.718,20.25,1.25,0.3924794664426162,0.5359489977896691,0.23366508825815618,0.942524743137986,0.19486558731016015,0.781044919300724
20.781,20.3,1.21,0.3930224382804222,0.5366301135061186,0.23383677284013113,0.9419369078977043,0.19575259108247134,0.77906465186187
20.823,20.35,1.17,0.3935685706241434,0.5373228281719958,0.2339986596207791,0.9413576301166021,0.19662800417804066,0.7770981800528122
20.884,20.41,1.21,0.39411803421654845,0.5380273327837436,0.2341508522698316,0.9407868916495641,0.19749215632352607,0.7751457052500481
20.925,20.46,1.19,0.3946709995181835,0.5387438087294604,0.23429346495570205,0.9402246625721642,0.1983453896596225,0.7732074177748041
20.987,20.52,1.12,0.3952276364499083,0.5394724273631977,0.23442662221643226,0.9396709012428098,0.1991880582741663,0.7712834967812308
21.048,20.57,1.17,0.395788114134359,0.5402133495813546,0.2345504588258716,0.9391255543702929,0.20002052772384926,0.7693741101538124
21.11,20.63,1.23,0.39635260063666305,0.5409667254015852,0.2346651196552352,0.9385885570864878,0.2008431745449514,0.7674794144143209
21.151,20.68,1.23,0.39692126270469646,0.5417326935446372,0.23477075953014426,0.938059833023959,0.2016563857534579,0.765599554638611
21.213,20.74,1.24,0.3974942655091362,0.5425113810195443,0.234867543083211,0.9375392943983056,0.2024605583349035,0.7637346643835118
21.274,20.8,1.33,0.3980717723835336,0.5433029027126056,0.2349556446021992,0.9370268420951724,0.20325609872431266,0.7618848656240224
21.378,20.85,1.3,0.3986539445646254,0.5441073609805999,0.23503524787378208,0.9365223657619247,0.2040434222766752,0.7600502687009374
21.398,20.91,1.3,0.39924094093310314,0.5449248452487001,0.23510654602292816,0.9360257439040155,0.2048229527284922,0.7582309722789563
21.44,20.96,1.36,0.3998329177550824,0.545755431613564,0.23516974134797017,0.9355368439860606,0.20559512165102678,0.7564270633152689
21.481,21.01,1.38,0.40043002842453607,0.5465991824520898,0.23522504515145345,0.9350555225375596,0.20636036789599135,0.7546386170385512
21.563,21.07,1.32,0.4010324232069885,0.5474561460363327,0.2352726775669076,0.9345816252631125,0.20711913703448592,0.7528656969382866
21.584,21.12,1.33,0.40164024898478984,0.5483263561550877,0.23531286738172158,0.9341149871569105,0.2078718807900763,0.7511083547643267
21.645,21.18,1.36,0.4022536490043075,0.5492098317426559,0.23534585185633553,0.9336554326212945,0.20861905646696513,0.7493666305366085
21.726,21.23,1.3,0.40287276262538496,0.5501065765153288,0.23537187653999408,0.9332027755892216,0.20936112637424623,0.7476405525649861
21.747,21.29,1.25,0.40349772507342513,0.5510165786161358,0.2353911950833243,0.9327568196505562,0.2100985572472328,0.7459301374791749
21.808,21.34,1.27,0.404128667194454,0.5519398102684131,0.23540406904799846,0.9323173581821768,0.21083181966683004,0.7442353902688352
21.85,21.4,1.2,0.40476571521351745,0.5528762274387545,0.23541076771373745,0.9318841744819182,0.21156138747787567,0.74255630433381
21.933,21.45,1.17,0.40540899049674095,0.5538257695099006,0.2354115678828991,0.9314570419063072,0.2122877372072967,0.7408928615444876
21.994,21.51,1.23,0.40605860931735493,0.5547883589641032,0.23540675368287015,0.9310357240119678,0.21301134748283115,0.7392450323122168
22.096,21.57,1.25,0.40671468262595023,0.5557639010774834,0.23539661636643686,0.9306199747004956,0.21373269845295806,0.7376127756696577
22.117,21.62,1.22,0.40737731582519354,0.5567522836258774,0.23538145411027497,0.9302095383665299,0.21445227120858526,0.7359960393609433
22.138,21.67,1.23,0.4080466085492053,0.5577533766026528,0.2353615718116687,0.9298041500487414,0.21517054720699436,0.7343947599415425
22.199,21.73,1.29,0.40872265444779354,0.5587670319489796,0.23533728088355824,0.9294035355835205,0.21588800769854002,0.7328088628877415
22.26,21.78,1.27,0.4094055409757401,0.559793083297035,0.23530889904802582,0.9290074117612236,0.21660513315662272,0.7312382627157099
22.322,21.84,1.25,0.41009534918735396,0.560831345726627,0.23527675012834456,0.9286154864849154,0.21732240271147787,0.7296828631101611
22.363,21.89,1.31,0.41079215353652243,0.561881615535715,0.23524116383972146,0.9282274589316032,0.21804029358835286,0.7281425570626543
22.445,21.95,1.31,0.4114960216825045,0.5629436700253037,0.23520247557887125,0.9278430197159359,0.21875928055067043,0.7266172270195638
22.465,22.0,1.26,0.4122070143017181,0.5640172672991729,0.23516102621256776,0.9274618510562804,0.21947983534880494,0.7251067450397087
22.526,22.06,1.29,0.41292518490577346,0.5651021460789055,0.23511716186532763,0.9270836269430097,0.22020242617511995,0.7236109729615984
22.568,22.11,1.29,0.41365057966599816,0.5661980255346658,0.23507123370640148,0.9267080133087955,0.22092751712593575,0.7221297625801952
22.631,22.17,1.22,0.41438323724469517,0.5673046051321733,0.2350235977362838,0.9263346682006728,0.22165556767109554,0.7206629558330698
22.693,22.23,1.19,0.4151231886333624,0.568421564496303,0.23497461457297325,0.9259632419536578,0.22238703213177144,0.7192103849957977
22.755,22.28,1.27,0.4158704569980879,0.5695485632917296,0.23492464923821813,0.9255933773657321,0.22312235916709944,0.7177718728864226
22.838,22.33,1.23,0.4166250575323151,0.5706852411210133,0.2348740709439696,0.9252247098740224,0.22386199127016027,0.7163472330787806
22.857,22.39,1.23,0.4173869973171471,0.5718312174405022,0.23482325287924596,0.9248568677319774,0.22460636427374606,0.714936270124437
22.899,22.44,1.31,0.4181562751893399,0.5729860914944032,0.23477257199758406,0.9244894721873019,0.2253559068663007,0.7135387797829414
22.96,22.5,1.34,0.41893288161712444,0.5741494422673485,0.23472240880524284,0.9241221376603442,0.22611104011840677,0.7121545492600547
23.022,22.55,1.3,0.4197167985840026,0.5753208284557848,0.2346731471503266,0.9237544719225547,0.22687217702020832,0.7107833574535702
23.084,22.61,1.35,0.42050799948066814,0.5764997884585014,0.23462517401299823,0.9233860762746411,0.22763972203020388,0.709424975206355
23.126,22.66,1.38,0.421306449005212,0.5776858403866346,0.23457887929696075,0.9230165457241147,0.22841407063591154,0.7080791655662328
23.187,22.72,1.35,0.4221121030717876,0.5788784820934927,0.23453465562240652,0.9226454691620279,0.2291956089269727,0.7067456840523573
23.268,22.77,1.29,0.42292490872791405,0.580077191224551,0.23449289812064966,0.9222724295388001,0.22998471318131436,0.7054242789277679
23.289,22.83,1.35,0.4237448040806121,0.5812814252879831,0.23445400423066448,0.9218970040391444,0.23078174946502852,0.7041146914778526
23.351,22.89,1.29,0.42457171823158263,0.5824906217460684,0.23441837349775274,0.921518764256165,0.23158707324663977,0.7028166562944569
23.413,22.94,1.23,0.4254055712216628,0.5837041981277993,0.2343864073745517,0.9211372763647041,0.23240102902640342,0.7015299015654158
23.496,23.0,1.25,0.426246273984811,0.5849215521629609,0.23435850902456604,0.9207521012940042,0.2332239499812168,0.7002541493692993
23.558,23.05,1.22,0.4270937283118656,0.5861420619379196,0.2343350831283778,0.9203627948996498,0.23405615762564225,0.6989891159751834
23.578,23.1,1.17,0.42794782682430166,0.587365086073324,0.23431653569265062,0.9199689081346766,0.23489796148943987,0.6977345121472399
23.62,23.16,1.21,0.42880845295816566,0.5885899639238897,0.23430327386198097,0.9195699872197141,0.23574965881189017,0.696490043453936
23.682,23.21,1.28,0.4296754809583256,0.5898160158004123,0.2342957057335776,0.9191655738120843,0.23661153425307346,0.6952554105816291
23.744,23.27,1.27,0.4305487758831346,0.591042543214126,0.23429424017469472,0.9187552051738604,0.23748385962217558,0.6940303096523472
23.784,23.32,1.27,0.4314281936195865,0.5922688291435024,0.23429928664271218,0.9183384143389463,0.23836689362283653,0.6928144325455561
23.846,23.38,1.37,0.432313580909048,0.5934941383235639,0.23431125500773875,0.9179147302793058,0.23926088161556008,0.6916074672236854
23.948,23.43,1.36,0.4332047753836809,0.5947177175577688,0.23433055537760825,0.9174836780705012,0.24016605539724922,0.6904090980611287
23.969,23.49,1.34,0.4341016056137007,0.5959387960525064,0.23435759792513422,0.9170447790566977,0.2410826329979954,0.6892190061763562
24.009,23.55,1.39,0.435003891165643,0.5971565857742289,0.23439279271748245,0.916597551015324,0.242010818495325,0.6880368697667048
24.071,23.6,1.4,0.4359114426718276,0.598370281829238,0.23443654954753174,0.9161415083215908,0.24295080184617923,0.6868623644453538
24.133,23.66,1.35,0.436824061911224,0.5995790628661353,0.23448927776712164,0.9156761621131163,0.24390275873695932,0.6856951635799625
24.174,23.71,1.33,0.43774154190193365,0.6007820915009422,0.23455138612211487,0.9152010204549673,0.24486685045199602,0.684534938632464
24.237,23.76,1.36,0.43866366700550274,0.6019785147648958,0.23462328258922968,0.9147155885055017,0.24584322376081338,0.6833813594995404
24.296,23.82,1.29,0.4395902130432685,0.603167464574919,0.23470537421462376,0.9142193686834258,0.24683201082453382,0.6822340948533496
24.357,23.87,1.24,0.44052094742492,0.604348058226754,0.23479806695422503,0.9137118608364722,0.24783332912171396,0.6810928124820966
24.399,23.93,1.29,0.44145562928942383,0.605519398910726,0.2349017655157909,0.9131925624120559,0.2488472813938211,0.6799571796300549
24.459,23.98,1.29,0.44239400965842696,0.6066805762500729,0.23501687320265943,0.9126609686301785,0.24987395561045897,0.6788268633365836
24.52,24.04,1.27,0.4433358316021979,0.6078306668617381,0.23514379175913439,0.9121165726586858,0.2509134249543447,0.6777015307736305
24.582,24.09,1.27,0.444280830418116,0.6089687349394892,0.23528292121742111,0.9115588657908362,0.2519657478259402,0.6765808495811289
24.663,24.15,1.33,0.4452287338216627,0.6100938328591888,0.23543465974601527,0.9109873376250225,0.2530309678675805,0.6754644881996554
24.705,24.2,1.31,0.4461792621498345,0.6112050018060122,0.23559940349945727,0.9104014762464142,0.2541091140069064,0.6743521161997609
24.725,24.26,1.33,0.4471321285768719,0.6123012724233933,0.2357775464693927,0.9098007684102677,0.2552002005193849,0.6732434046075263
24.767,24.32,1.42,0.44808703934219274,0.613381665483469,0.2359694803369114,0.909184699726672,0.2563042271096904,0.6721380262260956
24.828,24.37,1.39,0.44904369399041405,0.6144451925787878,0.23617559432617546,0.9085527548465244,0.25742117901173456,0.6710356559530655
24.889,24.42,1.36,0.4500017856233535,0.6154908568350371,0.23639627505937372,0.9079044176484983,0.25855102710717,0.6699359710936531
24.95,24.48,1.41,0.4509610011639026,0.6165176536445357,0.23663190641305554,0.9072391714267425,0.25969372806224594,0.6688386516695133
25.033,24.53,1.41,0.45192102163166586,0.6175245714202257,0.23688286937591274,0.906556499078989,0.26084922448294,0.667743380723013
25.053,24.59,1.34,0.4528815224302604,0.6185105923698695,0.23714954190809218,0.9058558832946916,0.26201744508830466,0.6666498446167411
25.114,24.64,1.36,0.4538421736461622,0.6194746932901367,0.23743229880211986,0.9051368067428196,0.2631983049019568,0.6655577333280699
25.155,24.7,1.38,0.45480264035897544,0.6204158463802392,0.23773151154550315,0.9043987522590069,0.26439170546160556,0.6644667407386291
25.219,24.75,1.31,0.45576258296298006,0.6213330200747361,0.2380475481850593,0.9036412030318647,0.26559753504646094,0.6633765649186317
25.278,24.81,1.28,0.45672165749977706,0.6222251798951121,0.23838077319299025,0.9028636427883954,0.26681566892229086,0.6622869084060363
25.319,24.86,1.37,0.457679516001816,0.6230912893196858,0.2387315473346821,0.9020655559785536,0.2680459696038126,0.6611974784805452
25.421,24.92,1.36,0.45863580684653915,0.6239303106713694,0.23910022753816088,0.9012464279590479,0.2692882871340145,0.660107987432389
25.442,24.98,1.34,0.45959017512083233,0.6247412060227429,0.23948716676508125,0.9004057451764572,0.2705424593799158,0.6590181528257906
25.483,25.03,1.41,0.46054226299543194,0.6255229381178548,0.2398927138830711,0.8995429953496995,0.27180831234421476,0.6579276977569191
25.546,25.08,1.44,0.46149171010890155,0.6262744713101019,0.24031721353922642,0.8986576676518157,0.2730856604922636,0.6568363511060737
25.609,25.14,1.4,0.4624381539607698,0.626994772515507,0.24076100603456352,0.8977492528909797,0.2743743070938223,0.6557438477838081
25.651,25.19,1.43,0.46338123031340245,0.6276828121806795,0.24122442719926857,0.8968172436906306,0.275674044579072,0.6546499289707213
25.756,25.25,1.49,0.46432057360216683,0.6283375652647417,0.24170780826864094,0.8958611346686505,0.2769846549084033,0.6535543423506907
25.776,25.3,1.44,0.46525581735344074,0.62895801223448,0.24221147575970287,0.8948804226155643,0.27830590995552373,0.6524568423373904
25.817,25.36,1.43,0.466186594610009,0.6295431400719776,0.2427357513485085,0.8938746066717772,0.2796375719034401,0.6513571902940074
25.88,25.41,1.48,0.4671125383633878,0.6300919432939636,0.24328095174821493,0.8928431885039511,0.2809793936528815,0.6502551547461138
25.942,25.47,1.46,0.4680332819926058,0.6306034249820882,0.24384738858797433,0.8917856724806861,0.28233111924272614,0.649150511587666
26.043,25.52,1.4,0.4689484597089639,0.6310765978233073,0.2444353682926909,0.8907015658477029,0.28369248428197424,0.648043044280089
26.064,25.58,1.43,0.4698577070062773,0.6315104851595164,0.24504519196365301,0.8895903789027403,0.28506321639277354,0.6469325440443865
26.125,25.64,1.46,0.4707606611160872,0.631904122045545,0.24567715526002337,0.8884516251703917,0.28644303566395996,0.6458188100461734
26.145,25.69,1.41,0.47165696146730535,0.6322565563145737,0.2463315482811535,0.8872848215771145,0.2878316551145124,0.6447016495735158
26.207,25.75,1.43,0.47254625014973206,0.6325668496499939,0.2470086554496653,0.8860894886267019,0.2892287811662461,0.6435808782074812
26.268,25.8,1.51,0.47342817238086726,0.6328340786626929,0.24770875539523543,0.8848651505765706,0.29063411412500983,0.6424563199853407
26.309,25.85,1.48,0.47430237697541616,0.6330573359727032,0.2484321208390227,0.8836113356152633,0.29204734866960347,0.6413278075564259
26.371,25.91,1.47,0.4751685168168769,0.6332357312941341,0.24917901847868607,0.8823275760416041,0.29346817434761163,0.6401951823307019
26.434,25.96,1.56,0.4760262493305817,0.6333683925222827,0.2499497088739462,0.8810134084459562,0.29489627607734803,0.639058294620163
26.494,26.02,1.58,0.47687523695755,0.6334544668218168,0.2507444463326611,0.8796683738940044,0.29633133465513,0.6379170037731751
26.577,26.07,1.54,0.4777151476285089,0.6334931217149025,0.2515634787974076,0.8782920181133923,0.2977730272671292,0.6367711783019113
26.597,26.13,1.58,0.4785456552374395,0.6334835461681376,0.2524070477325732,0.8768838916834999,0.2992210280050822,0.635620696003043
26.638,26.18,1.6,0.4793664401140203,0.6334249516771457,0.2532753880119782,0.8754435502286101,0.30067500838519456,0.6344654440718666
26.698,26.24,1.55,0.48017718949435556,0.6333165733476676,0.25416872780708155,0.8739705546146994,0.30213463786960043,0.6333053192100628
26.76,26.3,1.53,0.480977597989383,0.6331576709719764,0.25508728847584805,0.872464471150072,0.303599584389753,0.6321402277273293
26.863,26.35,1.56,0.4817673680503607,0.6329475300994399,0.2560312844523662,0.8709248717900561,0.30506951487110623,0.6309700856371478
26.884,26.41,1.48,0.4825462104308218,0.6326854631000288,0.257000923137308,0.86935133434597,0.3065440957584069,0.6297948187469564
26.926,26.46,1.45,0.4833138446443663,0.6323708102195633,0.257996404789302,0.8677434426984764,0.30802299354084306,0.6286143627429744
26.967,26.51,1.54,0.4840699994176272,0.6320029406254515,0.25901792241726096,0.8661007870153556,0.30950587527619405,0.6274286632699001
27.029,26.57,1.57,0.4848144131377142,0.6315812534416461,0.26006566167365364,0.8644229639736015,0.3109924091130125,0.6262376760056557
27.09,26.62,1.55,0.485546834293403,0.6311051787715004,0.26113980074866977,0.8627095769856558,0.3124822648097656,0.6250413667313536
27.133,26.68,1.63,0.48626702190932525,0.6305741787071671,0.26224051026518713,0.8609602364295644,0.3139751142498059,0.6238397113966595
27.234,26.73,1.69,0.48697474597240725,0.6299877483241609,0.263367953174441,0.8591745598828616,0.31547063195105335,0.6226326961807447
27.255,26.79,1.69,0.48766978784982046,0.6293454166596946,0.26452228465232486,0.8573521723600266,0.3169684955693247,0.6214203175490367
27.316,26.84,1.7,0.488351940697723,0.6286467476734003,0.26570365199629925,0.8554927065533887,0.3184683863943298,0.6202025823060112
27.4,26.9,1.79,0.4890210098600921,0.6278913411890575,0.2669121945229389,0.8535958030773848,0.3199699898374512,0.618979507644265
27.419,26.95,1.77,0.4896768132569703,0.6270788338159561,0.2681480434662122,0.8516611107160663,0.3214729959105321,0.6177511211900844
27.48,27.01,1.81,0.4903191817614694,0.6262088998485357,0.26941132187663075,0.8496882866736921,0.3229770996949863,0.6165174610456875
27.521,27.07,1.84,0.49094795956489357,0.6252812521429422,0.2707021445214414,0.8476769968281691,0.3244820018006337,0.6152785758282349
27.604,27.12,1.83,0.49156300452936197,0.6242956429691422,0.272020617786051,0.8456269159870015,0.32598740881375016,0.6140345247055571
27.646,27.17,1.75,0.49216418852731403,0.6232518648372357,0.27336683957689223,0.8435377281453279,0.327493033733901,0.6127853774283473
27.707,27.23,1.75,0.4927513977672866,0.6221497512966015,0.2747408992259304,0.8414091267456056,0.32899859639918816,0.6115312143583657
27.768,27.28,1.77,0.49332453310533503,0.620989177706516,0.276142877396989,0.8392408149385655,0.3305038238995542,0.6102721264920816
27.829,27.34,1.74,0.493883510341454,0.6197700619768782,0.2775728459940269,0.8370325058451575,0.33200845097774334,0.6090082154791532
27.869,27.39,1.76,0.49442826050033223,0.6184923652776719,0.27903086807143407,0.8347839228193329,0.3335122204174379,0.6077395936351849
27.992,27.45,1.86,0.49495873009575336,0.6171560927157944,0.28051699774631733,0.8324947997116519,0.3350148834180122,0.6064663839482394
28.012,27.5,1.86,0.4954748813779498,0.6157612939778754,0.28203128011267065,0.8301648811338138,0.3365161999553076,0.6051887200785813
28.032,27.56,1.84,0.49597669256322274,0.6143080639377131,0.2835737511572796,0.8277939227242367,0.33801593912783595,0.603906746351128
28.073,27.61,1.93,0.49646415804516564,0.612796543226962,0.28514443767720177,0.8253816914147917,0.3395138794878759,0.6026206177400462
28.134,27.67,1.95,0.49693728858685876,0.6112269187677201,0.28674335719869926,0.8229279656987308,0.3410098093570101,0.6013304998449102
28.175,27.73,1.92,0.4973961114934421,0.6095994242656864,0.28837051789756624,0.8204325358997601,0.34250352712573856,0.6000365688578533
28.237,27.78,1.94,0.4978406707645167,0.6079143406625879,0.29002591852086074,0.8178952044421726,0.34399484153688864,0.59873901152119
28.319,27.83,1.98,0.4982710272258744,0.6061719965466082,0.29170954831011836,0.8153157861219718,0.34548357195261997,0.5974380250750666
28.36,27.89,1.93,0.49868725864010505,0.6043727685195837,0.29342138692618336,0.8126941083789568,0.34696954860488954,0.59613381719477
28.401,27.94,1.91,0.4990894597956784,0.6025170815197766,0.295161404375823,0.8100300115697947,0.3484526128292802,0.5948266059174262
28.463,28.0,1.97,0.4994777425741296,0.600605409099073,0.29692956094027945,0.8073233492421842,0.34993261728211694,0.5935166195578918
28.525,28.05,1.92,0.49985223599500184,0.5986382736534911,0.2987258071058827,0.8045739884102662,0.35140942614079895,0.5922040966136775
28.607,28.11,1.85,0.5002130862382148,0.5966162466059239,0.3005500834968,0.8017818098314622,0.3528829152872481,0.5908892856587593
28.627,28.16,1.89,0.5005604566435312,0.5945399485400626,0.3024023208099527,0.7989467082849242,0.35435297247434644,0.5895724452261054
28.709,28.22,1.92,0.5008945276868023,0.5924100492844696,0.3042824397520949,0.7960685928517469,0.35581949747518565,0.5882538436787207
28.75,28.27,1.89,0.5012154969326763,0.5902272679457928,0.3061903509790437,0.7931473871970296,0.3572824022148837,0.5869337590690257
28.811,28.33,1.93,0.5015235789634674,0.5879923728901318,0.30812595503704804,0.7901830298538238,0.3587416108846581,0.5856124789864429
28.853,28.39,2.01,0.5018190052839062,0.585706181671607,0.31008914230629714,0.7871754745089881,0.3601970600378104,0.5842903003931395
28.915,28.44,1.99,0.5021020242015265,0.5833695609072277,0.31207979294660165,0.7841246902909479,0.3616486986672856,0.5829675294479559
28.976,28.5,1.99,0.502372900682495,0.5809834260972114,0.31409777684531615,0.7810306620593368,0.3630964882645035,0.5816444813186282
29.059,28.55,2.08,0.5026319161827421,0.5785487413899699,0.3161429535675995,0.7778933906964434,0.36454040285922423,0.5803214799824574
29.079,28.6,2.09,0.5028793684543177,0.5760665192910427,0.3182151723091492,0.774712893400304,0.36598042904029193,0.5789988580155994
29.121,28.66,2.05,0.5031155713269544,0.573537820315328,0.320314271851579,0.771489203979116,0.36741656595718103,0.5776769563711239
29.181,28.71,2.09,0.5033408544648772,0.5709637525820292,0.3224400805206585,0.7682223731464931,0.3688488253023555,0.5763561241459874
29.243,28.77,2.11,0.5035555630989546,0.5683454713518139,0.32459241614767154,0.7649124688169493,0.3702772312745297,0.5750367183370384
29.305,28.82,2.05,0.5037600577343345,0.5656841785057563,0.32677108603420285,0.761559576400901,0.3717018205229774,0.5737191035861968
29.366,28.88,2.01,0.5039547138337639,0.5629811219657173,0.32897588692069274,0.7581637990984424,0.3731226420730663,0.5724036519149693
29.428,28.93,2.06,0.5041399214768275,0.5602375950558968,0.33120660495910775,0.7547252581911862,0.3745397572332,0.5710907424485177
29.45,28.99,2.03,0.5043160849953894,0.5574549358053633,0.333463015690069,0.7512440933315137,0.37595323948332615,0.5697807611295216
29.511,29.05,2.04,0.504483622585551,0.5546345261914415,0.33574488402474445,0.7477204628286725,0.37736317434511796,0.5684741004221338
29.573,29.1,2.15,0.504642965896482,0.5517777913238975,0.33805196423175865,0.7441545439312198,0.378769659233882,0.5671711590063376
29.614,29.16,2.17,0.5047945595965159,0.5488861985699394,0.34038399992933066,0.7405465331052897,0.38017280329222436,0.5658723414629951
29.676,29.21,2.15,0.504938860916947,0.545961256620123,0.34274072408284584,0.7368966463080807,0.381572727205536,0.5645780579498048
29.738,29.26,2.19,0.5050763391740167,0.5430045144953586,0.3451218590080738,0.7332051192558771,0.38296956299944046,0.5632887238683175
29.798,29.32,2.22,0.5052074752696197,0.5400175604953236,0.3475271163802719,0.7294722076859255,0.38436345381945586,0.562004759522109
29.838,29.37,2.19,0.5053327611713263,0.5370020210887095,0.3499561972494471,0.7256981876115602,0.3857545536932346,0.5607265897662284
29.9,29.43,2.19,0.5054526993723866,0.5339595597458519,0.35240879206206815,0.7218833555700813,0.38714302727581895,0.5594546436481131
29.962,29.48,2.24,0.5055678023324557,0.5308918757144105,0.35488458068954537,0.7180280288629939,0.38852904957841594,0.5581893540402468
30.022,29.54,2.2,0.5056785918998691,0.5278007027388889,0.3573832324638375,0.7141325457882381,0.3899128056812354,0.5569311572648913
30.082,29.59,2.16,0.5057855987163741,0.5246878077248945,0.3599044062205809,0.7101972658639767,0.3912944904309663,0.5556804927112625
30.165,29.65,2.18,0.5058893616052937,0.5215549893491673,0.36244775035017157,0.7062225700434045,0.3926743081234806,0.5544378024455102
30.185,29.7,2.15,0.5059904269441523,0.5184040766165118,0.36501290285723126,0.7022088609199173,0.394052472172355,0.5532035308138267
30.226,29.76,2.1,0.5060893480228348,0.5152369273648908,0.3675994914288643,0.6981565629218723,0.3954292047637712,0.5519781240389839
30.287,29.82,2.14,0.5061866843883716,0.5120554267200562,0.37020713351205875,0.694066122496138,0.396804736498292,0.5507620298106134
30.348,29.87,2.2,0.5062830011774498,0.5088614855012147,0.3728354364005168,0.6899380082796661,0.3981793060199479,0.5495556968695722
30.41,29.92,2.19,0.5063788684377595,0.5056570385793481,0.3754839973311497,0.6857727112583747,0.3995531596329972,0.548359574586801
30.473,29.98,2.2,0.5064748604392829,0.5024440431899277,0.3781524035904489,0.6815707449126834,0.40092655090669993,0.5471741125371441
30.556,30.03,2.34,0.506571554976663,0.4992244772018843,0.3808402326309342,0.6773326453490779,0.4022997402684619,0.5459997600686355
30.576,30.09,2.32,0.5066695326638033,0.49600033734482935,0.3835470521978952,0.6730589714170577,0.40367299458577494,0.5448369658677421
30.617,30.14,2.3,0.5067693762219043,0.4927736373966556,0.3862724204666621,0.6687503048107697,0.4050465867374824,0.5436861775210133
30.681,30.2,2.34,0.5068716697621786,0.4895464063337734,0.3890158861906503,0.6644072501545613,0.40642079517502355,0.542547841073512
30.743,30.25,2.34,0.5069769980645586,0.48632068644637094,0.39177698886043116,0.660030435071638,0.4077959034744442,0.541422400584327
30.785,30.31,2.29,0.5070859458537641,0.48309853142121306,0.39455525887408877,0.6556205102349747,0.4091721998800598,0.5403102976794566
30.826,30.36,2.3,0.5071990970741502,0.4798820043946251,0.3973502177191147,0.651178149399678,0.4105499768407082,0.5392119711023988
30.908,30.42,2.33,0.5073170341648051,0.47667317597844877,0.40016137816606795,0.6467040494161346,0.41192953053955206,0.5381278562628706
30.929,30.48,2.25,0.5074403373363947,0.4734741222618904,0.40298824447420417,0.6421989302234201,0.41331116041838684,0.5370583847841615
30.989,30.53,2.21,0.5075695838512726,0.470286922792313,0.40583031260924884,0.6376635348225503,0.4146951686973917,0.5360039840496905
31.05,30.58,2.29,0.5077053473083748,0.46711365853814163,0.40868707047344904,0.6330986292292062,0.4160818598912218,0.5349650767493584
31.112,30.64,2.26,0.5078481969344149,0.46395640983715175,0.4115579981479921,0.6285050024055552,0.4174715403222862,0.5339420804262524
31.153,30.69,2.23,0.5079986968828717,0.46081725433348875,0.41444256814779673,0.6238834661707612,0.4188645176319831,0.532935407024208
31.215,30.75,2.25,0.5081574055422499,0.45769826490683174,0.41734024568858547,0.6192348550897795,0.4202611002906126,0.5319454624366577
31.276,30.8,2.28,0.5083248748550767,0.45460150759717055,0.42025048896606737,0.6145600263400404,0.42166159710665885,0.5309726460571136
31.317,30.86,2.25,0.5085016496491025,0.45152903952871565,0.4231727494470056,0.6098598595556467,0.4230663167361146,0.5300173503316391
31.399,30.91,2.27,0.5086882669821771,0.4484829068365052,0.42610647217193115,0.6051352566487442,0.42447556719250085,0.5290799603137085
31.46,30.97,2.33,0.5088852555022846,0.44546514259931846,0.42905109606925274,0.6003871416077676,0.42588965535822576,0.5281608532219496
31.502,31.02,2.29,0.509093134824213,0.44247776478253104,0.43200605428052735,0.59561646027228,0.4273088864979342,0.5272603980013406
31.542,31.08,2.26,0.5093124149243324,0.43952277419456637,0.434970774496644,0.5908241800841317,0.4287335637745127,0.5263789548885083
31.644,31.14,2.32,0.5095435955549128,0.43660215246058964,0.43794467930464664,0.586011289814662,0.43016398776843323,0.5255168749818063
31.664,31.19,2.3,0.5097871656793481,0.4337178600170396,0.440927186544892,0.5811787992676242,0.4316004560011255,0.5246744998168623
31.705,31.25,2.25,0.5100436029295241,0.43087183413048036,0.4439177096782235,0.5763277389574233,0.4330432624630593,0.5238521609482749
31.766,31.3,2.28,0.5103133730863899,0.4280659869440728,0.4469156581628221,0.571459159762184,0.43449269714719385,0.5230501795381535
31.806,31.35,2.29,0.5105969295845744,0.4253022035547013,0.44992043784038244,0.5665741325511442,0.43594904558842734,0.5222688659521803
31.867,31.41,2.26,0.5108947130416562,0.4225823401234847,0.45293145133124385,0.5616737477859173,0.43741258840963876,0.5215085193638981
31.929,31.46,2.27,0.5112071508124879,0.41990822202208306,0.4559480984380729,0.5567591150952784,0.43888360087486766,0.5207694273679311
32.012,31.52,2.35,0.5115346565687862,0.4172816420169227,0.45896977655764964,0.5518313628233238,0.44036235245013905,0.5200518656028484
32.033,31.57,2.32,0.5118776299040578,0.4147043584932208,0.4619958811002681,0.5468916375510221,0.44184910637241265,0.5193560973843594
32.095,31.63,2.32,0.5122364559638246,0.4121780937204926,0.46502580591622056,0.541941103591321,0.4433441192271289,0.5186823733495036
32.157,31.68,2.39,0.5126115051010584,0.40970453216106784,0.46805894372881873,0.5369809424580723,0.444847640534841,0.5180309311124617
32.198,31.74,2.4,0.513003132556714,0.4072853188230147,0.47109468657340575,0.5320123523090786,0.44635991234745265,0.5174019949325507
32.26,31.8,2.36,0.5134116781652471,0.40492205765876477,0.47413242624182106,0.5270365473635913,0.44788116885462165,0.5167957753949262
32.321,31.85,2.4,0.5138374660849998,0.4026163100106469,0.477171554731784,0.5220547572946629,0.4494116360009242,0.5162124691044679
32.383,31.91,2.42,0.5142808045533342,0.40036959310447146,0.48021146470066023,0.517068226596923,0.45095153111441905,0.5156522583933132
32.445,31.96,2.38,0.5147419856663733,0.3981833785922391,0.4832515499230856,0.5120782139305237,0.4525010625472762,0.5151153110424989
32.484,32.02,2.36,0.5152212851831832,0.39605909114497795,0.48629120575193413,0.5070859914422079,0.454060429329144,0.5146017800182011
32.525,32.07,2.4,0.5157189623541911,0.3939981070966335,0.4893298295821224,0.502092844064616,0.45562982083391895,0.5141118032230565
32.589,32.13,2.36,0.5162352597735872,0.39200175313984037,0.4923668213167514,0.49710006879501856,0.4572094164605627,0.5136455032630095
32.671,32.18,2.33,0.5167704032554049,0.390071305074304,0.4954015838350987,0.4921089739546147,0.45879938532856707,0.5132029872300523
32.754,32.24,2.38,0.5173246017329158,0.38820798660841066,0.49843352346196723,0.48712087842943613,0.46039988598861875,0.5127843465011261
32.774,32.29,2.4,0.5178980471809171,0.3864129682145778,0.5014620504378903,0.48213711089376987,0.4620110661489597,0.5123896565533539
32.815,32.35,2.36,0.5184909145604438,0.3846873660387561,0.5044865793896871,0.4771590090168391,0.46363306241788543,0.5120189767957156
32.856,32.4,2.4,0.5191033617854006,0.3830322408644196,0.5075065298008746,0.47218791865329746,0.46526600006278357,0.5116723504172809
32.918,32.46,2.44,0.51973552971059,0.38144859713131324,0.5105213264814733,0.4672251930179418,0.4669099927860954,0.5113498042521437
32.979,32.51,2.41,0.520387542140599,0.37993738200918376,0.513530400036784,0.4622721918449987,0.46856514251858183,0.5110513486612387
33.04,32.57,2.39,0.5210595058589954,0.3784994845266843,0.5165331873347265,0.45733028053241864,0.47023153923027633,0.5107769774312401
33.165,32.62,2.47,0.5217515106772789,0.37713573475560663,0.5195291319713352,0.4524008292717547,0.47190926075951384,0.5105266676907378
33.186,32.67,2.43,0.5224636295030156,0.3758469030505646,0.5225176847339945,0.44748521216431186,0.47359837266042454,0.5103003798438511
33.207,32.73,2.38,0.5231959184265733,0.3746336993442129,0.5254983040619916,0.4425848063243193,0.4752989280692657,0.5100980575214059
33.248,32.78,2.4,0.5239484168258547,0.3734967724980394,0.52847045650391,0.4377009909699356,0.47701096758994854,0.5099196275497521
33.309,32.84,2.41,0.5247211474884147,0.3724367097087137,0.5314336171713421,0.4328351465029615,0.4787345191990859,0.5097649999372642
33.35,32.9,2.37,0.5255141167503319,0.3714540359699138,0.5343872701883282,0.42798865357819293,0.4804695981708374,0.5096340678785791
33.411,32.95,2.4,0.5263273146511787,0.3705492135894955,0.5373309091358683,0.4231628921634335,0.48221620702175116,0.5095267077767006
33.473,33.01,2.46,0.5271607151044175,0.3697226417618155,0.5402640374907949,0.418359240591295,0.4839743354757304,0.5094427792831646
33.534,33.06,2.48,0.5280142760825222,0.36897465619497344,0.5431861690582703,0.41357907460401566,0.4857439604491975,0.5093821253565171
33.597,33.12,2.55,0.5288879398161093,0.3683055287927053,0.5460968283971835,0.40882376639258955,0.4875250460565001,0.5093445723393778
33.638,33.17,2.57,0.5297816330063397,0.36771546739063754,0.548995551237752,0.40409468363150636,0.48931754363561936,0.5093299300542966
33.721,33.23,2.55,0.5306952670498329,0.3672046155465923,0.5518818848907083,0.399393188510326,0.49112139179431125,0.5093379919183906
33.741,33.28,2.51,0.5316287382753151,0.3667730523846174,0.5547553886475071,0.3947206367631932,0.4929365164769118,0.5093685350764078
33.843,33.34,2.55,0.5325819281912101,0.36642079249239806,0.557615634171032,0.3900783766973143,0.49476283105212115,0.5094213205515203
33.863,33.39,2.55,0.5335547037433771,0.366147785871692,0.5604622058763081,0.3854677482213833,0.4966002364221173,0.509496093412924
33.904,33.45,2.49,0.5345469175821936,0.3659539179414114,0.5632947013007685,0.380890081874944,0.49844862115332994,0.5095925829592618
33.986,33.5,2.47,0.5355584083381887,0.36583900959295684,0.5661127314636529,0.37634669785974967,0.5003078616291543,0.5097105029169288
34.048,33.56,2.5,0.5365890009054253,0.36580281729738384,0.5689159212141258,0.37183890507430245,0.5021778222248279,0.5098495516523702
34.089,33.61,2.45,0.5376385067318175,0.3658450332639531,0.5717039095676911,0.3673680001528814,0.5040583555046092,0.5100094123975398
34.149,33.67,2.43,0.5387067241155427,0.36596528564957526,0.5744763500304523,0.3629352665104448,0.5059493024412972,0.5101897534877387
34.211,33.72,2.51,0.5397934385066753,0.36616313881860607,0.5772329109107204,0.3585419733948351,0.5078504926580151,0.5103902286110892
34.231,33.78,2.54,0.540898422813145,0.3664380936523919,0.5799732756174512,0.3541893749476642,0.5097617446920835,0.5106104770689058
34.292,33.83,2.49,0.5420214377101082,0.3667895879078988,0.582697142944996,0.3498787092751278,0.5116828662807273,0.5108501240462301
34.395,33.89,2.56,0.5431622319518321,0.36721699662471435,0.585404227343695,0.34561119752985214,0.513613654668325,0.5111087808917996
34.416,33.94,2.6,0.5443205426852037,0.3677196325796759,0.5880942591758967,0.34138804300476544,0.5155538969349056,0.5113860454067233
34.457,34.0,2.56,0.5454960957640039,0.36829674678836366,0.5907669849570554,0.33721043023993896,0.5175033703456192,0.5116815021411512
34.518,34.05,2.55,0.5466886060631149,0.3689475290526823,0.5934221675816318,0.33307952414334796,0.5194618427209211,0.5119947226982646
34.578,34.1,2.6,0.5478977777918553,0.3696711085537408,0.5960595865335984,0.3289964691265111,0.5214290728272303,0.5123252660449393
34.641,34.16,2.56,0.5491233048056686,0.37046655448922106,0.5986790380814418,0.3249623882559139,0.5234048107878174,0.5126726788284512
34.7,34.22,2.51,0.5503648709154043,0.37133287675439663,0.601280335457626,0.3209783824210258,0.5253887985136511,0.5130364956986109
34.742,34.27,2.54,0.551622150193455,0.372269026665931,0.6038633090225143,0.31704552951963566,0.527380770153878,0.5134162396347257
34.803,34.33,2.54,0.5528948072760128,0.3732738977275483,0.606427806412758,0.31316488366116857,0.5293804525655287,0.5138114222767806
34.864,34.38,2.51,0.5541824976607184,0.37434632643663535,0.6089736926741361,0.3093374743885938,0.5313875658019508,0.5142215442602407
34.945,34.44,2.55,0.5554848679989692,0.3754850931308021,0.6115008503788012,0.3055643059195175,0.5334018236193647,0.5146460955539025
34.965,34.49,2.58,0.556801556382164,0.3766889228734055,0.61400917972684,0.30184635640705937,0.5354229340008418,0.5150845558002546
35.006,34.55,2.56,0.558132192621169,0.37795648637702667,0.6164985986320394,0.2981845772211261,0.5374505996969287,0.5155363946578371
35.068,34.6,2.56,0.5594763985183219,0.3792864009638894,0.6189690427917364,0.2945798922507246,0.5394845187820844,0.5160010721451281
35.109,34.66,2.65,0.5608337881313329,0.3806772315622205,0.6214204657406471,0.2910331972280083,0.5415243852260624,0.5164780389854992
35.169,34.71,2.62,0.5622039680285065,0.3821274917375707,0.6238528388885966,0.28754535907476575,0.5435698894793414,0.5169667369527916
35.252,34.77,2.6,0.5635865375347815,0.3836356447581416,0.6262661515421101,0.2841172152720302,0.5456207190716882,0.5174665992170648
35.314,34.82,2.66,0.5649810889681712,0.3852001046932029,0.6286604109098576,0.2807495732534168,0.5476765592229333,0.5179770506900554
35.357,34.88,2.67,0.5663872078662713,0.3868192375437246,0.63103564209197,0.27744320982268594,0.5497370934650294,0.5184975083698818
35.418,34.93,2.63,0.5678044732025913,0.38849136240438487,0.6333918880532822,0.2741988705959149,0.551802004274451,0.5190273816845535
35.439,34.99,2.63,0.5692324575925444,0.39021475265614114,0.6357292095805502,0.27101726946862575,0.5538709737139693,0.5195660728338877
35.501,35.04,2.68,0.5706707274889996,0.3919876371885548,0.6380476852236627,0.2678990881082769,0.5559436840828003,0.5201129771294934
35.563,35.1,2.65,0.5721188433673654,0.3938082016510468,0.6403474112208167,0.2648449754726258,0.5580198185740812,0.5206674833325223
35.626,35.15,2.65,0.5735763599002135,0.39567458973224706,0.6426285014075709,0.26185554735456745,0.5600990619385593,0.5212289739889232
35.708,35.21,2.75,0.5750428261214882,0.39758490446659067,0.6448910871096288,0.2589313859541258,0.5621811011533142,0.5217968257619506
35.728,35.26,2.76,0.5765177855803775,0.39953720956731253,0.6471353170191576,0.25607303947826765,0.5642656260942874,0.52237040976164
35.77,35.32,2.71,0.5780007764849694,0.4015295307849947,0.6493613570544445,0.25328102176912615,0.5663523302113644,0.5229490918709251
35.831,35.37,2.77,0.5794913318358647,0.40355985729082733,0.6515693902027152,0.25055581196110194,0.5684409112047615,0.5235322330680211
35.892,35.42,2.82,0.5809889795499869,0.405626143083763,0.6537596163459939,0.2478978541671761,0.5705310717014919,0.5241191897446867
35.953,35.48,2.78,0.5824932425748854,0.4077263084207543,0.6559322520699696,0.24530755719463512,0.5726225199306907,0.5247093140200422
36.054,35.53,2.78,0.5840036389938944,0.4098582412692848,0.6580875304559106,0.24278529429031595,0.5747149703965755,0.5253019540497552
36.075,35.59,2.84,0.5855196821225581,0.4120197987814184,0.6602257008557462,0.24033140291543206,0.5768081445478109,0.525896454330537
36.115,35.65,2.73,0.5870408805967922,0.4142088087886063,0.6623470286504943,0.23794618454998515,0.5789017714420409,0.5264921559999785
36.178,35.7,2.73,0.5885667384532894,0.41642307131649897,0.6644517949922532,0.23562990452668134,0.580995588404313,0.52708839713181
36.219,35.76,2.81,0.5900967552027063,0.4186603601190212,0.6665402965299795,0.23338279189416056,0.5830893416780603,0.5276845130266636
36.28,35.81,2.83,0.5916304258961822,0.42091842423096837,0.6686128451192686,0.23120503930919512,0.5851827870671976,0.5282798364983804
36.341,35.87,2.83,0.5931672411857519,0.42319498953838114,0.6706697675163247,0.22909680295734489,0.5872756905677983,0.5288736981558283
36.421,35.92,2.9,0.5947066873792087,0.42548776036594815,0.6727114050562791,0.22705820250145176,0.5893678289877452,0.5294654266801034
36.442,35.98,2.96,0.5962482464899778,0.42779442108067606,0.6747381133159961,0.22508932105733012,0.5914589905527508,0.530054349096899
36.502,36.03,2.94,0.597791396282575,0.4301126377110585,0.6767502617615209,0.22319020519602853,0.5935489754971769,0.5306397910437821
36.564,36.09,2.97,0.5993356103142489,0.4324400595809729,0.6787482333803547,0.22136086497208182,0.5956375966381446,0.5312210770321174
36.626,36.14,2.98,0.6008803579734248,0.4347743209575384,0.6807324242987852,0.21960127397721782,0.5977246799314961,0.5317975307033908
36.646,36.2,2.98,0.602425104515605,0.43711304271217577,0.6827032433845401,0.21791136941898115,0.5998100650082253,0.5323684750797223
36.728,36.25,2.98,0.6039693110973985,0.4394538339941197,0.6846611118350643,0.21629105222369355,0.6018936056900321,0.5329332328084255
36.79,36.31,3.04,0.6055124348093883,0.44179429391563113,0.6866064627517355,0.21474018716312498,0.6039751704826459,0.5334911264006
36.852,36.36,3.05,0.6070539287085717,0.44413201324815327,0.6885397407003448,0.2132586030042034,0.6060546430455558,0.5340414784638815
36.873,36.42,3.0,0.6085932418511169,0.4464645761286317,0.6904614012581705,0.2118460926810686,0.6081319226367723,0.5345836119295815
36.934,36.47,3.04,0.6101298193261863,0.448789561775197,0.692371910547948,0.2105024134888218,0.6102069245312419,0.5351168502745112
36.995,36.53,3.1,0.6116631022915574,0.4511045462113741,0.6942717447589979,0.2092272872984235,0.6122795804115433,0.5356405177378056
37.036,36.58,3.08,0.6131925280117392,0.453407103997951,0.6961613896557393,0.20802040079230025,0.6143498387294876,0.5361539395330922
37.098,36.64,3.11,0.6147175298992347,0.4556948099716012,0.6980413400737799,0.2068814057203175,0.6164176650372332,0.5366564420563745
37.159,36.69,3.23,0.6162375375595467,0.45796524098931335,0.69991209940376,0.20580991917584734,0.6184830422865355,0.5371473530900255
37.222,36.75,3.25,0.6177519768404778,0.4602159776776405,0.7017741790631179,0.2048055238916694,0.6205459710947909,0.5376260020032768
37.264,36.8,3.23,0.6192602698862393,0.46244460618573513,0.7036280979559759,0.20386776855538993,0.6226064699766038,0.5380917199495722
37.326,36.85,3.31,0.6207618351968619,0.4646487199410902,0.7054743819213672,0.20299616814399854,0.6246645755397058,0.5385438400611013
37.388,36.91,3.35,0.6222560876933892,0.4668259214068647,0.7073135631700814,0.20219020427709392,0.6267203426441793,0.5389816976407904
37.428,36.97,3.33,0.6237424387893254,0.46897382383962394,0.7091461797104803,0.20144932558821266,0.6287738445240564,0.5394046303520251
37.531,37.02,3.36,0.6252202964687925,0.4710900530462778,0.7109727747637129,0.20077294811362545,0.6308251728704637,0.5398119784064404
37.552,37.08,3.42,0.6266890653718333,0.47317224913894645,0.7127938961688419,0.2001604556979466,0.6328744378755803,0.5402030847501611
37.593,37.13,3.37,0.62814814688727,0.47521806828643,0.7146100957784601,0.19961120041590485,0.6349217682367683,0.5405772952489186
37.656,37.19,3.37,0.6295969392534844,0.47722518446090373,0.7164219288454144,0.19912450300963103,0.6369673111202978,0.5409339588724741
37.697,37.24,3.47,0.6310348376674544,0.4791912911784129,0.7182299534012582,0.1986996533408169,0.639011232084148,0.5412724278787795
37.759,37.3,3.51,0.6324612344023378,0.4811141032316965,0.7200347296270158,0.19833591085706864,0.6410537149594077,0.5415920579982657
37.822,37.35,3.5,0.6338755189338549,0.4829913584138361,0.7218368192168033,0.19803250507173092,0.6430949616898397,0.5418922086186224
37.903,37.41,3.57,0.6352770780756993,0.484820819231203,0.7236367847348009,0.1977886360564508,0.6451351921292536,0.542172242970394
37.924,37.46,3.64,0.6366652961241935,0.4866002746041674,0.7254351889660566,0.19760347494578345,0.6471746437964477,0.5424315283136791
38.007,37.52,3.63,0.6380395550124085,0.48832754155404157,0.727232594261624,0.19747616445319643,0.6492135715876274,0.5426694361262184
38.047,37.57,3.65,0.6393992344739924,0.49000046687475457,0.7290295618785736,0.19740581939792357,0.651252247446358,0.5428853422931734
38.09,37.63,3.72,0.6407437122169617,0.49161692878778046,0.7308266513154675,0.1973915272422557,0.6532909599912686,0.5430786272989179
38.15,37.68,3.68,0.6420723641077196,0.4931748385788781,0.7326244196439406,0.19743234863898013,0.6553300141018755,0.5432486764211479
38.211,37.74,3.66,0.6433845643655726,0.4946721422152301,0.7344234208370743,0.197527317988774,0.6573697304630329,0.5433948799276096
38.292,37.79,3.71,0.6446796857680022,0.496106821941598,0.7362242050952686,0.19767544400742634,0.6594104450686274,0.543516633275711
38.312,37.85,3.71,0.6459570998669386,0.4974768978541437,0.7380273181703209,0.197875710302787,0.6614525086852183,0.5436133373152582
38.354,37.9,3.65,0.6472161772162549,0.4987804294505906,0.7398333006884167,0.19812707596132503,0.6634962862763829,0.5436843984945249
38.416,37.96,3.71,0.6484562876106619,0.5000155171554336,0.7416426874727147,0.1984284761441867,0.6655421563885616,0.5437292290698519
38.477,38.01,3.78,0.6496768003361305,0.5011803038189302,0.7434560068661816,0.19877882269269703,0.6675905104992343,0.5437472473189651
38.54,38.07,3.76,0.6508770844319202,0.5022729761886461,0.7452737800553157,0.1991770047433308,0.6696417523282914,0.543737877758219
38.623,38.12,3.78,0.6520565089642348,0.503291766352365,0.7470965203953858,0.19962188935226152,0.6716962971135171,0.5437005513640096
38.643,38.17,3.88,0.6532144433114979,0.5042349531512087,0.748924732737825,0.2001123221296261,0.673754570851192,0.5436347057986067
38.685,38.23,3.86,0.6543502574612224,0.5051008635618423,0.7507589127604618,0.2006471278835541,0.67581700950294,0.5435397856406076
38.747,38.28,3.82,0.6554633223184662,0.5058878740466524,0.7525995463013304,0.20122511127383313,0.6778840581700885,0.5434152426201345
38.809,38.34,3.92,0.6565530100258689,0.5065944118707909,0.7544471086968729,0.20184505747491135,0.6799561702369427,0.5432605358587965
38.851,38.4,3.92,0.657618694295289,0.5072189563849853,0.7563020641253845,0.20250573284782614,0.6820338064845123,0.5430751321143523
38.913,38.45,3.82,0.6586597507510485,0.5077600402730145,0.758164864956592,0.20320588562060124,0.6841174341763276,0.5428585060299423
38.995,38.51,3.82,0.6596755572847746,0.5082162507627559,0.7600359511082487,0.2039442465766972,0.6862075261180813,0.5426101403876953
39.016,38.56,3.85,0.6606654944217837,0.5085862307997003,0.7619157494106098,0.20471952975120752,0.6883045596928972,0.5423295263664549
39.077,38.62,3.79,0.6616289456989016,0.50886868018183,0.7638046729796191,0.20553043313460292,0.6904090158740522,0.5420161638033585
39.138,38.67,3.77,0.6625652980535349,0.509062356654741,0.7657031205995999,0.20637563938392584,0.6925213782169553,0.5416695614590339
39.179,38.73,3.85,0.6634739422237196,0.5091660769658805,0.7676114761161867,0.20725381654140299,0.6946421318321417,0.5412892372861994
39.24,38.78,3.84,0.6643542731587898,0.5091787178767563,0.7695301078401765,0.2081636187604502,0.6967717623410143,0.5408747187014271
39.301,38.84,3.82,0.6652056904402337,0.5090992171319607,0.7714593679629398,0.2091036870389881,0.6989107548160403,0.5404255428597816
39.361,38.89,3.86,0.6660275987122514,0.5089265743838461,0.773399591984009,0.21007264995992198,0.7010595927071366,0.5399412569319962
39.422,38.95,3.9,0.6668194081215099,0.5086598520716957,0.7753510981514627,0.21106912443858156,0.7032187567560209,0.5394214183838059
39.484,39.0,3.86,0.6675805347655721,0.5082981762542524,0.7773141869157788,0.21209171647686975,0.705388723900368,0.5388655952570425
39.545,39.06,3.85,0.6683104011494686,0.5078407373945074,0.7792891403978595,0.21313902192390238,0.7075699661696775,0.538273366452122
39.587,39.11,3.9,0.6690084366498639,0.5072867910956894,0.7812762218719735,0.21420962724303327,0.7097629495748223,0.5376443220115772
39.648,39.17,3.82,0.6696740779862448,0.5066356587874404,0.7832756752643615,0.21530211028528515,0.7119681329933013,0.5369780634043024
39.73,39.22,3.75,0.6703067696985375,0.5058867283611972,0.785287724668247,0.21641504106930556,0.7141859670522331,0.5362742038101799
39.751,39.28,3.81,0.6709059646305361,0.5050394547538191,0.7873125738759583,0.21754698256803415,0.7164168930111282,0.5355323684047134
39.793,39.33,3.81,0.6714711244184911,0.5040933604785197,0.7893504059287941,0.21869649150228376,0.7186613416464215,0.534752194643254
39.855,39.39,3.76,0.6720017199841664,0.5030480361021724,0.7914013826851963,0.2198621191414285,0.7209197321396756,0.5339333325443715
39.895,39.44,3.82,0.6724972320316207,0.5019031406680771,0.7934656444076928,0.2210424121114029,0.7231924709712914,0.5330754449719383
39.957,39.5,3.88,0.6729571515469267,0.5006584020633055,0.7955433093690003,0.22223591321026331,0.7254799508215058,0.5321782079155115
40.022,39.55,3.84,0.6733809803000134,0.49931361732977964,0.7976344734776313,0.22344116223160945,0.7277825494804593,0.5312413107686439
40.083,39.6,3.85,0.6737682313478136,0.497868652918288,0.7997392099233441,0.22465669679619082,0.7301006287691229,0.5302644566048091
40.125,39.66,3.91,0.6741184295379066,0.4963234448847088,0.8018575688427965,0.2258810531920233,0.7324345334729304,0.5292473624506481
40.188,39.72,3.86,0.6744311120118579,0.494677999027788,0.8039895770058046,0.22711276722328513,0.7347845902900118,0.5281897595562323
40.229,39.77,3.83,0.6747058287074825,0.492932390967887,0.8061352375226416,0.2283503750681816,0.7371511067959646,0.5270913936620132
40.29,39.83,3.87,0.6749421428592708,0.491086766166192,0.8082945295728187,0.22959241414588297,0.739534370427128,0.5259520252620905
40.351,39.88,3.86,0.6751396314962378,0.48914133988394726,0.8104674081557904,0.23083742399254684,0.7419346474843204,0.5247714298633913
40.393,39.94,3.77,0.6752978859364587,0.4870963970813483,0.8126538038640139,0.23208394714633934,0.7443521821589837,0.5235493982403335
40.455,39.99,3.79,0.675416512277562,0.4849522922558049,0.8148536226787707,0.23333053004129653,0.7467871955836305,0.5222857366845375
40.537,40.05,3.83,0.6754951318824448,0.48270944921936015,0.8170667457891362,0.23457572390979814,0.7492398849084309,0.5209802672491628
40.577,40.1,3.8,0.6755333818594503,0.480368360815139,0.8192930294344658,0.23581808569330692,0.7517104224056959,0.5196328279874426
40.639,40.16,3.8,0.6755309155362158,0.477929588572803,0.8215323047707566,0.2370561789608971,0.7541989546039224,0.5182432731849976
40.7,40.21,3.88,0.6754874029263422,0.4753937623031161,0.8237843777612084,0.23828857483499422,0.7567056014529986,0.5168114735854786
40.721,40.27,3.88,0.6754025311879956,0.47276157963186277,0.8260490290912895,0.23951385292367292,0.7592304555221375,0.5153373166090321
40.843,40.32,3.83,0.675276005073534,0.470033805473494,0.8283260141085858,0.24073060225878104,0.7617735812321033,0.5138207065630275
40.863,40.38,3.88,0.6751075473692675,0.46721127144499625,0.8306150627876983,0.24193742223908296,0.7643350141233064,0.5122615648444354
40.905,40.43,3.92,0.674896899324498,0.46429487522059365,0.8329158797204604,0.24313292357752478,0.7669147601613631,0.5106598301332312
40.946,40.49,3.84,0.6746438210690308,0.46128557982801616,0.83522814413179,0.24431572925162237,0.7695127950817178,0.5090154585762358
41.008,40.54,3.82,0.6743480920183834,0.45818441288719314,0.8375515099215324,0.2454844754559225,0.7721290637749132,0.5073284239608836
41.05,40.6,3.84,0.6740095112659593,0.45499246579235936,0.8398856057326762,0.24663781255549247,0.7747634797140643,0.5055987178784807
41.111,40.65,3.75,0.6736278979614831,0.45171089283868276,0.8422300350463277,0.24777440603940037,0.7774159244260349,0.5038263498765679
41.193,40.71,3.71,0.6732030916750272,0.4483409102946384,0.844584376303803,0.2488929374731306,0.7800862470077181,0.5020113476000704
41.213,40.76,3.79,0.6727349527459767,0.44488379542147244,0.8469481830561535,0.24999210544882405,0.7827742636886821,0.5001537569209581
41.274,40.82,3.79,0.6722233626162974,0.4413408854412117,0.8493209841413616,0.25107062653211754,0.7854797574412775,0.49825364205619194
41.335,40.87,3.78,0.6716682241474745,0.4377135764547783,0.8517022838893856,0.2521272362041986,0.7882024776391484,0.4963110856737547
41.396,40.92,3.82,0.6710694619204994,0.4340033223118542,0.854091562355158,0.2531606897975492,0.7909421397649646,0.4943261889865928
41.459,40.98,3.87,0.6704270225182962,0.43021163343419405,0.8564882755796168,0.2541697634237481,0.7936984251681349,0.4922990718343079
41.564,41.03,3.84,0.6697408747900037,0.4263400755941056,0.8588918558788733,0.2551532548916226,0.7964709808732241,0.49022987275246216
41.585,41.09,3.82,0.6690110100965844,0.4223902686498124,0.8613017121616546,0.2561099846140282,0.7992594194397907,0.4881187490294011
41.627,41.15,3.89,0.6682374425372896,0.4183638852394002,0.8637172302752041,0.2570387965015782,0.8020633188743498,0.4859658767505223
41.668,41.2,3.82,0.6674202091565917,0.414262649435031,0.8661377733798479,0.2579385588417089,0.804882222595149,0.48377145082992457
41.73,41.26,3.78,0.6665593701312682,0.41008833535909106,0.8685626823524324,0.2588081651615157,0.8077156394504014,0.4815356850293744
41.79,41.31,3.8,0.6656550089373946,0.4058427657639235,0.8709912762188025,0.2596465350728362,0.8105630437905395,0.47925881196451686
41.852,41.37,3.78,0.6647072324970745,0.4015278105767744,0.8734228526154337,0.2604526150980635,0.8134238755949461,0.47694108309826483
41.934,41.42,3.73,0.6637161713047977,0.39714538541156225,0.8758566882802724,0.26122537947518126,0.816297540653481,0.4745827687213293
41.954,41.48,3.76,0.6626819795333837,0.39269745004906276,0.878292039572747,0.2619638309405625,0.8191834108029525,0.472184157919916
41.995,41.53,3.82,0.6616048351195183,0.3881860068870953,0.8807281430228334,0.26266700148818384,0.8220808242185237,0.4697455585306821
42.037,41.59,3.81,0.6604849398289298,0.3836130993623046,0.8831642159089679,0.26333395310403324,0.824989085759886,0.46726729708310916
42.097,41.64,3.81,0.659322519301301,0.3789808103451537,0.8855994568645255,0.26396377847464325,0.8279074673719075,0.4647497187295077
42.159,41.7,3.9,0.6581178230750492,0.37429126050978445,0.8880330465125079,0.26455560166883096,0.8308352085393834,0.46219318716290003
42.22,41.75,3.87,0.656871124592155,0.3695466066804479,0.8904641481280339,0.2651085787918317,0.833771516795466,0.4595980845230144
42.303,41.81,3.84,0.6555827211832713,0.36474904015626025,0.8928919083281712,0.26562189861106794,0.8367155682833126,0.456964811290575
42.323,41.86,3.9,0.6542529340333864,0.3599007850160931,0.8953154577885846,0.2660947831528451,0.8396665083704624,0.454293786169989
42.384,41.92,3.9,0.6528821081283691,0.3550040964054733,0.8977339119864151,0.26652648826929565,0.842623452315406,0.45158544596044864
42.426,41.97,3.82,0.6514706121827654,0.35006125880744243,0.9001463719687535,0.2669163041748852,0.8455854859857467,0.448840245415404
42.488,42.03,3.83,0.650018838549252,0.34507458429942334,0.9025519251460232,0.2672635559517888,0.8485516666272586,0.44605865709035963
42.55,42.08,3.81,0.6485272031101891,0.34004641079823766,0.9049496461095281,0.26756760402346086,0.8515210236830381,0.4432411711789432
42.592,42.14,3.77,0.6469961451517267,0.33497910029552924,0.9073385974723424,0.2678278445957508,0.8544925596617934,0.4403882953372282
42.695,42.19,3.78,0.6454261272209489,0.3298750370859385,0.9097178307326143,0.26804371006493527,0.8574652510541373,0.4375005544963242
42.715,42.25,3.88,0.6438176349665404,0.32473662599045355,0.912086387158234,0.268214669392044,0.8604380492955487,0.43457849066329024
42.756,42.3,3.93,0.6421711769634731,0.3195662905773973,0.9144432986917223,0.26834022844280764,0.8634098817744764,0.4316226627104395
42.819,42.35,3.91,0.6404872845222119,0.31436647138351637,0.9167875888741377,0.2684199302924669,0.8663796528839168,0.4286336461530854
42.88,42.41,3.96,0.6387665114829262,0.30913962413759427,0.9191182737867618,0.2684533554946181,0.8693462451147244,0.42561203291571326
42.941,42.47,4.0,0.6370094339951716,0.303888217988945,0.9214343630093195,0.2684401223132311,0.8723085201889071,0.4225584310864624
43.023,42.52,3.95,0.6352166502834649,0.29861473374304714,0.9237348605935164,0.26837988691696735,0.8752653202311568,0.41947346465974156
43.045,42.58,3.93,0.6333887803991248,0.2933216621064569,0.926018766050704,0.2682723435349659,0.878215468976846,0.4163577732667872
43.086,42.63,3.98,0.6315264659586987,0.2880115019430197,0.9282850753525006,0.2681172245733702,0.8811577730146761,0.41321201189401846
43.148,42.69,3.95,0.6296303698692239,0.2826867585432694,0.9305327819431939,0.2679143006919744,0.884091023062069,0.4100368505891004
43.21,42.74,3.95,0.6277011760405141,0.27734994190877355,0.9327608777627144,0.2676633808404629,0.8870139952712645,0.4068329741546946
43.273,42.8,4.06,0.6257395890845786,0.2720035650530445,0.934968354278895,0.26736431225378576,0.8899254525639478,0.4036010818299208
43.336,42.85,4.12,0.6237463340022363,0.2666501423204885,0.9371542035276417,0.26701698040624056,0.8928241459921007,0.40034188695955125
43.439,42.91,4.09,0.6217221558569427,0.26129218772471813,0.9393174191595478,0.26662130892384694,0.8957088161226822,0.39705611665095714
43.46,42.96,4.16,0.6196678194358228,0.25593221330742805,0.9414569974914065,0.26617725945469667,0.8985781944437122,0.3937445114188123
43.502,43.02,4.23,0.6175841088978881,0.2505727275189362,0.9435719385610274,0.2656848314971295,0.9014310047893397,0.3904078248175651
43.542,43.07,4.2,0.6154718274094021,0.24521623362141498,0.9456612471837513,0.26514406218579545,0.9042659647815102,0.387046823061742
43.605,43.13,4.22,0.6133317967663575,0.2398652281157637,0.9477239340090553,0.26455502603590964,0.9070817872858693,0.38366228463423807
43.668,43.18,4.29,0.6111648570040115,0.23452219919300407,0.9497590165756462,0.263917834646265,0.909877181879554,0.3802549998828389
43.77,43.24,4.26,0.6089718659934259,0.22918962521100447,0.9517655203634565,0.26323263636177135,0.9126508563285146,0.3768257706052507
43.792,43.29,4.22,0.6067536990249349,0.22386997319725913,0.9537424798409512,0.2624996158964261,0.9154015180719971,0.3733754096229138
43.846,43.35,4.26,0.6045112483784503,0.21856569737836778,0.9556889395061327,0.2617189939177279,0.9181278757117732,0.36990474034383136
43.885,43.4,4.3,0.6022454228804967,0.21327923773677074,0.9576039549195885,0.2608910265936127,0.9208286405036437,0.36641459631460277
43.966,43.46,4.27,0.5999571474478618,0.20801301859520266,0.9594865937278814,0.2600160051030063,0.9235025278486477,0.3629058207618443
43.987,43.51,4.37,0.5976473626177314,0.2027694472292427,0.9613359366755795,0.259094255111052,0.9261482587813198,0.3593792661232254
44.027,43.57,4.45,0.595317024064176,0.1975509125082634,0.9631510786042494,0.2581261362099637,0.9287645614522516,0.35583579356844075
44.088,43.62,4.45,0.5929671021008577,0.19235978356502412,0.9649311294368169,0.25711204132633686,0.931350172602197,0.3522762725105452
44.13,43.67,4.49,0.5905985811698574,0.18719840849411362,0.9666752151457695,0.2560523960957108,0.9339038390249655,0.3487015801081798
44.192,43.73,4.59,0.5882124593165522,0.18206911307942267,0.9683824787037261,0.2549476582052596,0.9364243190164162,0.3451126007592571
44.254,43.78,4.59,0.5858097476505316,0.17697419955080745,0.9700520810149379,0.2537983167056065,0.938910383806949,0.34151022558666394
44.295,43.84,4.58,0.5833914697925927,0.17191594537008562,0.9716832018263207,0.2526048912928545,0.9413608189749664,0.33789535191651066
44.357,43.9,4.65,0.5809586613079095,0.16689660204648427,0.9732750406166268,0.251367931562015,0.9437744258388546,0.3342688827494126
44.418,43.95,4.68,0.578512369125531,0.1619183939816299,0.9748268174624007,0.2500880162330734,0.9461500228251027,0.33063172622525966
44.499,44.01,4.64,0.5760536509444066,0.15698351734413699,0.9763377738793917,0.24876575235095802,0.9484864468102147,0.3269847950819195
44.519,44.06,4.69,0.5735835746261825,0.15209413897381532,0.9778071736381255,0.2474017744607262,0.9507825544341064,0.32332900610833704
44.6,44.12,4.77,0.5711032175750264,0.147252395315486,0.9792343035523714,0.2459967437593557,0.9530372233826971,0.31966527959251184
44.641,44.17,4.78,0.5686136661047544,0.14246039138237565,0.9806184742392741,0.24455134722559704,0.955249353637416,0.3159945387648525
44.702,44.23,4.8,0.5661160147935147,0.13772019974905192,0.9819590208499445,0.24306629672942118,0.9574178686893728,0.31231770923743063
44.763,44.28,4.95,0.5636113658262919,0.1330338595738714,0.9832553037693157,0.2415423281226993,0.9595417167159803,0.308635718439662
44.804,44.34,4.97,0.5611008283254975,0.1284033756509147,0.9845067092840749,0.23998020031282213,0.9616198717179044,0.3049494950509181
44.867,44.39,4.95,0.5585855176699527,0.12383071749137763,0.9857126502175338,0.23838069432095682,0.9636513346143245,0.3012599684305285
44.927,44.45,5.02,0.5560665548026069,0.1193178184343757,0.9868725665303827,0.23674461232655908,0.9656351342946375,0.29756806804556996
44.988,44.5,5.08,0.5535450655273817,0.11486657478710435,0.9879859258864014,0.23507277669963378,0.9675703286248997,0.29387472289679006
45.029,44.56,5.04,0.5510221797955729,0.11047884499427955,0.989052224182346,0.23336602902213188,0.9694560054074377,0.29018086094302503
45.091,44.61,5.05,0.5484990309822696,0.10615644883676988,0.9900709860413317,0.23162522909988856,0.9712912832921733,0.2864874085245446
45.152,44.67,5.11,0.5459767551532698,0.10190116665931576,0.9910417652690795,0.22985125396663783,0.9730753126382878,0.2827952897858292
45.275,44.72,5.08,0.5434564903229759,0.09771473862721254,0.9919641452724202,0.22804499688177918,0.9748072763249441,0.2791054260983229
45.295,44.78,5.1,0.5409393757037629,0.09359886401180634,0.9928377394394632,0.2262073663236507,0.9764863905098151,0.2754187354837134
45.316,44.83,5.23,0.5384265509473092,0.08955520050461235,0.9936621914808345,0.2243392849800782,0.9781119053342283,0.2717361320382733
45.337,44.89,5.28,0.5359191553783996,0.0855853635598195,0.9944371757314197,0.22244168873791104,0.9796831055737736,0.2680585253587465
45.398,44.94,5.26,0.5334183272217244,0.08169092576490425,0.9951623974120893,0.2205155256731496,0.9811993112333106,0.26438681997021285
45.459,45.0,5.34,0.5309252028222184,0.07787341623905024,0.9958375928509554,0.21856175504317082,0.9826598780854469,0.2607219147563119
45.521,45.05,5.39,0.5284409158595074,0.07413432005906145,0.9964625296638131,0.21658134628249057,0.9840641981517305,0.25706470239216744
45.604,45.1,5.38,0.5259665965570617,0.07047507771245701,0.9970370068935633,0.21457527800345208,0.9854117001259939,0.2534160687803573
45.624,45.16,5.4,0.5235033708866794,0.06689708457744335,0.9975608551085408,0.21254453700323903,0.9867018497394537,0.2497768924903285
45.686,45.22,5.46,0.5210523597689527,0.06340169042946564,0.9980339364597927,0.21049011727866712,0.9879341500673415,0.24614804420171368
45.727,45.27,5.42,0.518614678270395,0.05999019897404014,0.9984561446974566,0.20841301905023898,0.989108141776985,0.24253038615202815
45.788,45.33,5.38,0.5161914347979338,0.056663867405558434,0.9988274051464674,0.2063142477968977,0.9902234033173899,0.23892477158922562
45.849,45.38,5.44,0.5137837302914886,0.053423905991734126,0.9991476746418979,0.2041948133027859,0.9912795510504737,0.2353320442295579
45.911,45.44,5.45,0.5113926574153697,0.05027147768333164,0.9994169414243008,0.20205572871712404,0.9922762393241815,0.231753037721154
45.973,45.49,5.43,0.5090192997492458,0.04720769774878623,0.9996352249954685,0.1998980096281355,0.9932131604877541,0.22818857511373164
46.014,45.55,5.51,0.5066647309794204,0.044233633433305046,0.9998025759350612,0.19772267315184736,0.9940900448494671,0.2246394683348951
46.056,45.6,5.57,0.504330014091154,0.04135030364203892,0.9999190756785759,0.1955307370366049,0.9949066605772228,0.2211065176735261
46.117,45.66,5.56,0.5020162005627579,0.0385586786469324,0.9999848362571834,0.19332321878421677,0.9956628135424799,0.21759051127083037
46.178,45.71,5.57,0.49972432956219803,0.035859679816893246,1.0,0.19110113478876087,0.9963583471081392,0.2140922246196407
46.219,45.77,5.65,0.49745542714694985,0.03325417937095894,0.9999647391994264,0.1888654994941909,0.9969931418611719,0.2106124200725776
46.282,45.82,5.61,0.49521050546787426,0.030743000154170114,0.9998792557402447,0.18661732457192928,0.997567115290953,0.2071518463596383
46.344,45.88,5.57,0.4929905619779121,0.028326915435880718,0.9997437806932294,0.18435761811960488,0.99808022141442,0.20371123811576125
46.407,45.93,5.62,0.49079657864642307,0.026006648730245618,0.9995585738740927,0.18208738388201534,0.9985324503493201,0.2002913154188981
46.449,45.99,5.62,0.4886295211800195,0.023782873638628903,0.9993239233686514,0.17980762049526117,0.9989238278369222,0.19689278333913388
46.532,46.04,5.55,0.4864903382507522,0.021656213713675796,0.9990401450251769,0.1775193207548613,0.9992544147156476,0.19351633149943573
46.574,46.1,5.57,0.4843799607325002,0.01962724234479082,0.9987075819149207,0.17522347090859633,0.9995243063471365,0.19016263364867583
46.616,46.15,5.61,0.4822993009463887,0.017696482664765985,0.9983266037618197,0.17292104997485497,0.9997336319963153,0.18683234724763
46.7,46.21,5.59,0.4802492519160223,0.015864407477303877,0.9978976063423852,0.1706130290873117,0.999882554167067,0.18352611306870598
46.721,46.26,5.6,0.4782306866332837,0.014131439205185047,0.9974210108567765,0.16830037086680832,0.9999712678951419,0.1802445548102035
46.782,46.32,5.67,0.4762444573354113,0.012497949858837355,0.9968972632720715,0.16598402882132582,1.0,0.17698827872592435
46.823,46.37,5.66,0.4742913947940579,0.010964261025074482,0.9963268336387723,0.16366494677488844,0.9999690082973623,0.17375787327091594
46.883,46.42,5.62,0.47237230761703014,0.009530643875779754,0.9957102153816265,0.16134405832613774,0.999878580774358,0.1705539087640598
46.945,46.48,5.68,0.47048798156342364,0.008197319196320725,0.995047924565905,0.15902228633718649,0.9997290347292777,0.16737693706812395
47.006,46.53,5.67,0.46863917887288914,0.006964457433490552,0.9943404991403364,0.156700542453198,0.9995207158780687,0.1642274912878203
47.068,46.59,5.6,0.46682663760979026,0.005832178762786527,0.9935884981580042,0.1543797266529617,0.9992539974298085,0.16110608548637304
47.129,46.65,5.59,0.4650510710230299,0.0048005531748558285,0.9927925009765939,0.1520607268306039,0.9989292791334801,0.1580132144211239
47.171,46.7,5.58,0.46331316692233077,0.0038696005809586965,0.9919531064394471,0.14974441840851302,0.9985469862984363,0.15494935329873485
47.232,46.76,5.52,0.461613587071752,0.0030392909373124833,0.9910709320389097,0.14743166398153734,0.998107568790965,0.1519149575505921
47.313,46.81,5.48,0.45995296660120644,0.0023095443881845984,0.9901466130634613,0.14512331299251263,0.9976115000093575,0.14891046262904567
47.334,46.87,5.55,0.4583319134367162,0.001680231427599741,0.9891808017300653,0.14282020143917856,0.9970592758398441,0.14593628382511614
47.375,46.92,5.53,0.4567510077501037,0.0011511730795230517,0.9881741663031243,0.14052315161248077,0.9964514135957184,0.1429928161082605
47.437,46.98,5.48,0.4552108014287846,0.0007221410963791556,0.9871273902013816,0.1382329718661187,0.9957884509419405,0.14008043398872871
47.499,47.03,5.53,0.45371181756629636,0.00039285817577396244,0.9860411710940917,0.13595045641702913,0.9950709448075067,0.13719949140296606
47.561,47.09,5.54,0.45225454997417813,0.00016299819530588347,0.9849162199878037,0.13367638517630792,0.9942994702879081,0.134350321622437
47.602,47.14,5.48,0.4508394627158001,3.218646538313151e-05,0.9837532603051746,0.13141152360988856,0.9934746195400452,0.1315332371861905
47.665,47.2,5.46,0.44946698966272947,0.0,0.9825530269572862,0.12915662262818375,0.9925970006720065,0.12874852985746277
47.726,47.25,5.49,0.4481375340742097,6.596780546006655e-05,0.9813162654110025,0.12691241850390064,0.99166723663016,0.12599647060460173
47.847,47.31,5.41,0.44685146820031746,0.00022957118706592308,0.9800437307529185,0.12467963281732412,0.9906859640860316,0.12327730960658236
47.867,47.36,5.35,0.44560913290934306,0.0004902440738221428,0.9787361867514333,0.12245897242847464,0.9896538323254308,0.12059127628336094
47.888,47.42,5.35,0.4444108373399163,0.0008473733612228583,0.9773944049184566,0.12025112947559817,0.9885715021422649,0.11793857935125777
47.93,47.47,5.32,0.4432568585783592,0.0013002992722132708,0.9760191635722136,0.11805678139938863,0.987439644739426,0.1153194069034566
47.991,47.53,5.25,0.4421474413617082,0.001848315736424184,0.974611246902577,0.11587659099220014,0.986258940639054,0.1127339265155979
48.053,47.58,5.27,0.4410827978068087,0.002490670787782519,0.9731714440402897,0.11371120647137138,0.9850300786043701,0.11018228537633419
48.093,47.64,5.27,0.44006310716583996,0.0032265669806036627,0.9717005481313842,0.11156126157567482,0.9837537545751841,0.10766461044261819
48.175,47.69,5.21,0.4390885156085949,0.004055161824278859,0.9701993554180699,0.10942737568379542,0.9824306706190792,0.1051810086194198
48.196,47.75,5.19,0.43815913603181283,0.004975568236686914,0.9686686643273379,0.10731015395365742,0.9810615339002104,0.1027315669635303
48.257,47.8,5.23,0.4372750478958478,0.005986855016484914,0.9671092745685554,0.10521018748137063,0.9796470556675889,0.10031635291109627
48.318,47.85,5.16,0.4364362970889491,0.0070880473344607075,0.9655219862413257,0.10312805347857879,0.9781879502646695,0.09793541452852401
48.38,47.91,5.11,0.4356428958194281,0.008278127244158256,0.9639075989548923,0.10106431546709153,0.9766849341619909,0.09558878078638686
48.441,47.97,5.13,0.43489482253598283,0.009556034212014472,0.962266910960325,0.09901952348983348,0.9751387250145586,0.09327646185592513
48.587,48.02,5.09,0.43419202187644435,0.010920665667269997,0.9606007182966748,0.09699421433723492,0.9735500407455887,0.09099844942764038
48.608,48.08,4.99,0.4335344046452058,0.012370877571935557,0.9589098139522217,0.09498891178817252,0.9719195986581441,0.08875471705140515
48.629,48.13,4.98,0.43292184781958537,0.013905485011109022,0.9571949870418619,0.09300412686453573,0.9702481145760856,0.08654522049744669
48.67,48.19,4.99,0.4323541945853583,0.015523262803945804,0.9554570220016053,0.09104035809849927,0.9685363020156467,0.08436989813753039
48.711,48.24,4.9,0.431831254401657,0.01722294613558452,0.9536966978010758,0.08909809181161006,0.9667848713887875,0.08222867134567022
48.773,48.3,4.88,0.43135280309538265,0.019003231210323074,0.951914787174832,0.08717780240484532,0.9649945292393224,0.08012144491772268
48.813,48.35,4.93,0.4309185829852165,0.02086277592632927,0.9501120558732717,0.08527995265882655,0.9631659775126599,0.07804810750923813
48.915,48.41,4.88,0.4305283030352589,0.02280020057215888,0.9482892619338232,0.0834049940433496,0.9612999128598481,0.07600853209094768
48.936,48.46,4.84,0.43018163903827955,0.024814088545345385,0.9464471549730819,0.08155336703531335,0.9593970259764858,0.0740025764212632
48.977,48.52,4.88,0.4298782338285266,0.026902987093320674,0.9445864755004793,0.07972550144405453,0.9574580009769514,0.07203008353514238
49.038,48.57,4.88,0.4296176975240193,0.029065408076921158,0.9427079542539577,0.07792181674305688,0.9554835148043125,0.07009088224862606
49.078,48.63,4.82,0.4293996077982336,0.03129982875672482,0.940812311557999,0.07614272240699045,0.9534742366761968,0.06818478767831808
49.139,48.68,4.82,0.42922351018107685,0.03360469260245101,0.9389002567042407,0.07438861825305108,0.9514308275668377,0.06631160177507031
49.201,48.74,4.82,0.4290889183890379,0.035978410125634235,0.9369724873548492,0.07265989478558918,0.9493539397254324,0.06447111387113925
49.265,48.79,4.73,0.4289953146843794,0.0384193597357557,0.9350296889688037,0.07095693354302102,0.9472442162308828,0.06266310124009976
49.305,48.85,4.67,0.42894215026321475,0.04092588861998156,0.933072534251229,0.0692801074460223,0.9451022905828799,0.06088732966882535
49.366,48.9,4.73,0.42892884567227685,0.04349631364661554,0.9311016826258857,0.06762978114601416,0.942928786329165,0.05914355404085296
49.426,48.96,4.67,0.4289547912541402,0.046128922292324744,0.9291177797308812,0.06600631137293003,0.9407243167286478,0.05743151893042845
49.468,49.01,4.63,0.429019347620602,0.04882197359314394,0.9271214569376065,0.06441004728118935,0.9384894844498832,0.055750959206491806
49.53,49.07,4.7,0.42912184615387317,0.05157369911920808,0.9251133308928433,0.0628413307927148,0.9362248813042489,0.054101600645800996
49.594,49.12,4.71,0.4292615895351885,0.05438230397310874,0.9230940030839562,0.06130049693570843,0.9339310880130266,0.052483160554339964
49.654,49.17,4.67,0.4294378523004148,0.0572459678117199,0.9210640594270736,0.059787874177794964,0.9316086740074956,0.05089534839614167
49.716,49.23,4.69,0.4296498814222165,0.06016284589129648,0.9190240698781657,0.058303784752115694,0.929258197261065,0.049337866428683846
49.737,49.28,4.72,0.42989689691832345,0.0631310701356116,0.9169745880669258,0.05684854497502526,0.9268802041524448,0.04781041034405853
49.798,49.34,4.65,0.43017809248543176,0.06614875022686545,0.9149161509533709,0.05542246555415444,0.9244752293588253,0.04631266991515625
49.88,49.4,4.62,0.43049263615825023,0.06921397471906514,0.9128492785070651,0.05402585188572446,0.9220437957780052,0.04484432964615582
49.901,49.45,4.68,0.4308396709931816,0.07232481217354014,0.9107744734088496,0.05265900434012779,0.9195864144783519,0.043405069426655556
50.026,49.51,4.61,0.43121831577610054,0.07547931231621467,0.9086922207749238,0.05132221853487986,0.9171035846754079,0.04199456518881912
50.068,49.56,4.57,0.4316276657536596,0.07867550721620328,0.9066029879030701,0.05001578559410614,0.9145957937338542,0.04061248956692751
50.088,49.62,4.63,0.43206679338751747,0.08191141248523176,0.904507224040744,0.04873999239379208,0.9120635171934489,0.03925851255871878
50.128,49.67,4.65,0.43253474913083584,0.08518502849731337,0.9024053601746891,0.04749512179205951,0.9095072188174587,0.03793230218785356
50.189,49.73,4.62,0.43303056222633957,0.08849434162803349,0.9002978088417098,0.04628145284373105,0.906927350662013,0.03663352516682294
50.251,49.78,4.64,0.4335532415251781,0.09183732551271925,0.8981849639602465,0.04509926099843499,0.9043243531647437,0.035361847559619575
50.291,49.84,4.71,0.43410177632577623,0.09521194232269567,0.8960672006824509,0.043948818281512834,0.9016986552510431,0.03411693544352289
50.415,49.89,4.68,0.4346751372318198,0.09861614405875252,0.8939448752665511,0.04283039345701869,0.8990506744562827,0.03289845556939135
50.436,49.95,4.67,0.4352722770284916,0.10204787386086278,0.8918183249693608,0.041744252172155855,0.8963808170623444,0.03170607601989784
50.476,50.0,4.79,0.43589213157604734,0.10550506733310286,0.8896878679588334,0.040690657082575986,0.8936894782468412,0.03053946686515926
50.536,50.06,4.77,0.4365336207197905,0.10898565388262514,0.8875538032465655,0.03966986795801327,0.890977042243452,0.02939830081516288
50.578,50.11,4.74,0.43719564921547194,0.11248755807142635,0.8854164106401592,0.038682141767732395,0.8882438825118452,0.02828225386829938
50.639,50.17,4.76,0.43787710766910154,0.11600870097953711,0.8832759507153581,0.03772773274529119,0.8854903619157376,0.027191005955169698
50.7,50.22,4.79,0.4385768734901184,0.11954700157812503,0.8811326648078831,0.03680689243217626,0.8827168329077124,0.02612424157667826
50.761,50.28,4.75,0.4392938118568205,0.12310037811086792,0.8789867750249133,0.0359198696999679,0.8799236377194862,0.025081650435319666
50.803,50.33,4.77,0.44002677669290285,0.12666674948182574,0.8768384842761865,0.03506691075084374,0.877111108556343,0.02406292805854072
50.864,50.39,4.86,0.44077461165390003,0.1302440366479344,0.8746879763247124,0.03424825909640211,0.8742795677944828,0.02306777641307452
