Time_Host,Time_Arduino,easingdata,CH1_Oxy,CH1_Deoxy,CH2_Oxy,CH2_Deoxy,CH3_Oxy,CH3_Deoxy
1.03,0.04,0.0,0.07944090010703106,0.2877198452154944,0.15320618345510345,0.9631254552164398,0.19958410705540258,0.0
1.05,0.1,0.0,0.07894100108818182,0.28662992490627476,0.15238195830957546,0.957398707400549,0.19689782951885765,0.016724775607358713
1.072,0.16,0.0,0.07843278190027658,0.28552349575918484,0.15154323800068092,0.9517284264360857,0.1942221741576732,0.03338811274589475
1.092,0.21,0.0,0.0779162261095254,0.28440110373974037,0.15069002904780607,0.9461171515196191,0.19155794102185353,0.04998360185994706
1.113,0.27,0.0,0.07739132062546526,0.2832633103476497,0.14982234442020337,0.94056736686958,0.18890591218467578,0.0665048920514777
1.134,1.05,0.0,0.07685805583047318,0.28211069200813427,0.14894020364767907,0.9350814989696244,0.18626685102047738,0.08294569633704364
1.155,1.11,0.0,0.07631642571208595,0.2809438394471669,0.14804363292895495,0.9296619138939504,0.18364150151632627,0.09929979679634043
1.196,1.16,0.0,0.07576642799792177,0.2797633570527176,0.14713266523745494,0.9243109147192357,0.18103058761852486,0.11556104960732179
1.279,1.22,0.0,0.07520806429298242,0.2785698622241535,0.14620734042426867,0.9190307390276764,0.1784348126148152,0.13172338996320856
1.301,1.27,0.0,0.07464134021909846,0.27736398471199514,0.14526770531805136,0.9138235565054251,0.17585485855307803,0.14778083686698756
1.382,1.33,0.04,0.07406626555626514,0.27614636595028874,0.1443138138216236,0.9086914666405361,0.17329138569724287,0.1637274977992773
1.444,1.38,-0.04,0.07348285438560523,0.27491765838389187,0.1433457270050473,0.9036364965243276,0.17074503202105804,0.1795575732556795
1.484,1.44,-0.11,0.07289112523369431,0.27367852479293797,0.14236351319497895,0.8986605987597616,0.16821641274030397,0.1952653611499336
1.546,1.5,-0.01,0.07229110121799762,0.2724296376165608,0.14136724806015272,0.8937656494798915,0.16570611988396097,0.21084526107937768
1.607,1.55,-0.05,0.07168281019318067,0.27117167827763183,0.14035701469291503,0.8889534464786365,0.16321472190473835,0.22629177844946882
1.648,1.6,-0.12,0.07106628489804377,0.2699053365099036,0.13933290368678733,0.8842257074553044,0.16074276332924725,0.24159952845445973
1.751,1.66,-0.04,0.07044156310278898,0.2686313096886739,0.13829501321006654,0.8795840683736617,0.15829076444797777,0.2567632399116834
1.772,1.71,-0.03,0.06980868775628057,0.2673503021658686,0.13724344907549663,0.875030081935908,0.1558592210451466,0.27177775894721085
1.813,1.77,-0.13,0.0691677071329313,0.2660630246102577,0.13617832480606584,0.8705652161715575,0.15344860416839762,0.2866380525309426
1.875,1.82,-0.15,0.06851867497884111,0.2647701933533873,0.1350997616969901,0.8661908531410049,0.15105935993825848,0.30133921185949075
1.937,1.88,-0.07,0.06786165065683221,0.26347252974169705,0.1340078888739275,0.8619082877534917,0.14869190939718036,0.3158764555854655
1.979,1.93,-0.12,0.06719669929005398,0.26217075949514196,0.132902843347442,0.8577187266991996,0.1463466483978903,0.3302451328920646
2.02,1.99,-0.17,0.06652389190385413,0.2608656120724813,0.13178477006367684,0.8536232874953544,0.1440239475306712,0.3444407264121831
2.123,2.04,-0.09,0.06584330556562143,0.2595578200432469,0.13065382195111383,0.8496229976465001,0.14172415208907888,0.35845885499150965
2.143,2.1,-0.07,0.06515502352230589,0.25824811846623696,0.1295101599632112,0.8457187939193086,0.1394475820735258,0.3722952762952119
2.185,2.15,-0.16,0.06445913533531576,0.25693724427423026,0.12835395311665862,0.8419115217323038,0.13719453223209285,0.38594588925793233
2.246,2.21,-0.07,0.06375573701246262,0.2556259356645947,0.1271853785249625,0.8382019346607356,0.13496527213787737,0.3994067363769852
2.309,2.27,-0.05,0.06304493113658376,0.2543149314955705,0.12600462142707536,0.8345906940566271,0.13276004630215146,0.4126740058488456
2.369,2.32,-0.13,0.06232682699041466,0.25300497068821937,0.12481187521080392,0.8310783687838286,0.13057907432257648,0.4257440335492275
2.432,2.37,-0.14,0.06160154067722213,0.2516967916342968,0.12360734143074734,0.827665435067869,0.1284225510656935,0.4386133048572153
2.473,2.43,-0.04,0.06086919523666159,0.25039113161052956,0.12239122982052746,0.8243522764605006,0.1262906468828844,0.45127845632398195
2.554,2.48,-0.09,0.06012992075530268,0.2490887261998389,0.12116375829908851,0.8211391839188028,0.124183507858956,0.4637362771866132
2.575,2.54,-0.11,0.05938385447126384,0.24779030872001115,0.11992515297085793,0.8180263559984984,0.12210125609244737,0.4759837107275392
2.659,2.6,-0.01,0.05863114087239359,0.24649660966028797,0.11867564811955816,0.8150138991608099,0.12004399000671971,0.48801785548003357
2.741,2.65,0.03,0.05787193178744119,0.24520835612634873,0.11741548619545591,0.8121018281918597,0.11801178469087385,0.49983596628018634
2.761,2.7,-0.08,0.05710638646967456,0.24392627129415506,0.11614491779584338,0.8092900667332587,0.11600469226954538,0.5114354551657565
2.802,2.76,-0.04,0.0563346716724304,0.2426510738731583,0.11486420163856606,0.8065784479222171,0.11402274230065251,0.5228138921223551
2.844,2.81,0.01,0.05555696171611904,0.24138347757944909,0.11357360452844675,0.8039667151392735,0.11206594220021238,0.5339690056774847
2.906,2.87,-0.09,0.0547734385462534,0.24012419061956267,0.11227340131649304,0.801454522861569,0.11013427769336014,0.5448986833431466
2.968,2.92,-0.13,0.05398429178211238,0.23887391518583065,0.11096387485179543,0.7990414376196012,0.10822771329069321,0.555600971908012
3.009,2.98,-0.05,0.05318971875568628,0.2376333469642869,0.10964531592601587,0.7967269390555078,0.10634619278902573,0.5660740775804675
3.069,3.04,-0.09,0.05238992454058189,0.23640317465608396,0.10831802321036321,0.794510421080931,0.10448963979558508,0.5763163659840854
3.129,3.09,-0.11,0.05158512197057651,0.2351840795131737,0.10698230318495507,0.7923911931323089,0.10265795827460909,0.5863263620072936
3.253,3.14,-0.04,0.05077553164750076,0.2339767348887489,0.10563847006045868,0.7903684815212196,0.10085103311524024,0.5961027495091712
3.273,3.2,-0.04,0.04996138193812725,0.23278180580263919,0.10428684569189789,0.788441430877208,0.09906873071958021,0.6056443708833993
3.316,3.25,-0.13,0.04914290895976693,0.23159994852155896,0.1029277594845121,0.7866091056803877,0.09731089960976187,0.6149502264824853
3.336,3.31,-0.12,0.048320356554330125,0.23043181015392836,0.10156154829156111,0.7848704918810672,0.09557737105290469,0.6240194739045617
3.398,3.37,0.01,0.04749397625068687,0.22927802825898252,0.10018855630398983,0.7832244986037218,0.09386795970282405,0.6328514271453317
3.459,3.42,-0.05,0.046664027215241675,0.2281392304700271,0.09880913493190219,0.7816699599327052,0.09218246425735124,0.6414455556180847
3.5,3.47,-0.09,0.0458307761906949,0.22701603413196042,0.09742364267781962,0.7802056367771786,0.090520668130101,0.6498014830449935
3.583,3.53,0.01,0.04499449742299442,0.22590904595345626,0.0960324450017076,0.7788302188128013,0.08888234013553817,0.6579189862229778
3.644,3.58,0.0,0.04415547257650473,0.2248188616743249,0.09463591417776629,0.7775423264976712,0.08726723518624024,0.6657979936672919
3.685,3.64,-0.09,0.0433139906374431,0.22374606574852493,0.0932344291430072,0.7763405131597485,0.08567509500129564,0.673438584135841
3.745,3.69,-0.06,0.04247034780565798,0.22269123104316665,0.09182837533766738,0.7752232671526894,0.08410564882481683,0.6808409850371278
3.786,3.75,-0.02,0.04162484737485882,0.22165491855369415,0.0904181445375508,0.7741890140767232,0.08255861415357464,0.6880055707246567
3.847,3.81,-0.11,0.04077779960144671,0.22063767713530877,0.08900413467843139,0.7732361190609683,0.08103369747276419,0.6949328606806967
3.95,3.86,-0.11,0.03992952156212773,0.21964004325068995,0.08758674967268758,0.7723628891034672,0.07953059499889405,0.7016235175924659
3.969,3.91,-0.01,0.03908033700051453,0.21866254073414193,0.0861663992183618,0.7715675754651784,0.07804899342876814,0.7080783453240161
4.033,3.97,-0.07,0.03823057616294268,0.21770568057238257,0.08474349860086353,0.7708483761140318,0.07658857069351137,0.7142982867872362
4.053,4.03,-0.06,0.03738057562374984,0.21676996070223484,0.08331846848755525,0.7702034382149137,0.07514899671657986,0.7202844217154641
4.116,4.08,0.0,0.036530678100296296,0.21585586582541819,0.081891734715467,0.7696308606612009,0.07372993417471009,0.7260379643431342
4.178,4.13,-0.01,0.03568123225804897,0.21496386724040992,0.08046372807238558,0.7691286966432177,0.07233103926080518,0.7315602609947103
4.219,4.19,-0.11,0.034832592506091824,0.2140944226910877,0.07903488407156196,0.7686949562488402,0.07095196244780987,0.7368527875860216
4.321,4.25,-0.06,0.033985118783444124,0.21324797623177583,0.07760564272025967,0.7683276090915757,0.06959234925268001,0.7419171470411065
4.342,4.3,-0.02,0.033139176336571756,0.21242495810842363,0.07617644828233701,0.7680245869617717,0.06825184099959088,0.7467550666278059
4.383,4.36,-0.11,0.032295135488476547,0.21162578465585752,0.07474774903502998,0.7677837864970171,0.06693007558153571,0.7513683952155993
4.444,4.41,-0.13,0.031453371399745016,0.21085085821129856,0.07331999702008216,0.7676030718681723,0.06562668821945528,0.7557591004594452
4.506,4.46,-0.03,0.030614263821935224,0.21010056704456406,0.07189364778934992,0.7674802774777751,0.0643413122180298,0.7599292659135443
4.568,4.52,-0.11,0.029778196843682377,0.20937528530545968,0.07046916014500992,0.7674132106676382,0.06307357971725999,0.7638810880789546
4.63,4.58,-0.15,0.028945558629907327,0.2086753729887989,0.06904699587450415,0.767399654432299,0.06182312243895599,0.7676168733889479
4.691,4.63,-0.07,0.028116741154514603,0.2080011759172685,0.06762761948036629,0.7674373701347715,0.06058957242725432,0.7711390351359463
4.732,4.68,-0.06,0.02729213992697669,0.20735302574202882,0.06621149790508538,0.7675241002209228,0.059372562782290174,0.7744500903438497
4.793,4.74,-0.16,0.02647215371321874,0.20673123996058476,0.0647991002511826,0.7676575709287751,0.05817172838615991,0.7775526565896256
4.834,4.79,-0.14,0.025657184251239192,0.20613612195123204,0.06339089749669569,0.7678354949891688,0.056986706620322895,0.7804494487780675
4.875,4.85,-0.1,0.02484763596193203,0.2055679610232708,0.061987362206298816,0.7680555743144051,0.05581713807361581,0.7831432758736356
4.937,4.91,-0.14,0.024043915655613455,0.20502703248212564,0.06058896823833471,0.7683155026716323,0.05466266724006208,0.7856370375933018
4.998,4.96,-0.18,0.023246432234782306,0.20451359770850105,0.05919619044807891,0.7686129683378728,0.05352294320564675,0.7879337210644042
5.039,5.01,-0.1,0.022455596393647612,0.20402790425072653,0.05780950438757163,0.7689456567337708,0.05239762032321739,0.7900363974515392
5.122,5.07,-0.12,0.02167182031493252,0.20357018592947224,0.05642938600234774,0.7693112530332601,0.05128635887467547,0.7919482185564002
5.163,5.12,-0.17,0.020895517364410723,0.20314066295403957,0.055056311325372864,0.7697074447464086,0.05018882571963631,0.7936724133942104
5.204,5.18,-0.13,0.020127101783562872,0.2027395420494111,0.05369075616845762,0.7701319242727643,0.04910469492976152,0.7952122847500253
5.286,5.24,-0.12,0.019366988380683053,0.20236701659311332,0.0523331958113956,0.7705823914226283,0.04803364840800262,0.7965712057177824
5.328,5.29,-0.21,0.01861559222073312,0.2020232667607052,0.0509841046890655,0.7710565559038066,0.0469753764920223,0.7977526162246725
5.412,5.34,-0.21,0.01787332831423154,0.20170845967847634,0.04964395607674269,0.7715521397716024,0.045929578541072505,0.798760019543293
5.431,5.4,-0.14,0.017140611305470357,0.20142274958178458,0.04831322177388294,0.7720668798400769,0.044895963505610106,0.7995969787940568
5.492,5.45,-0.21,0.016417855160365435,0.20116627797742095,0.046992371786673974,0.7725985300527917,0.04387425047891706,0.8002671134404366
5.534,5.51,-0.27,0.01570547285423346,0.20093917380852094,0.045681874009670574,0.7731448638113987,0.04286416922997344,0.8007740957797602
5.594,5.57,-0.18,0.015003876059743288,0.20074155362084162,0.04438219390681677,0.7737036762606255,0.041865460716823615,0.8011216474323526
5.655,5.62,-0.2,0.014313474835224488,0.20057352172956358,0.04309379419212716,0.7742727865283475,0.04087787757967365,0.8013135358318217
5.718,5.67,-0.28,0.013634677313451329,0.20043517038608458,0.0418171345102623,0.7748500399195176,0.03990118461294866,0.8013535707192774
5.82,5.73,-0.2,0.012967889390967663,0.200326579944528,0.04055267111718892,0.7754333100628483,0.03893515921553376,0.8012456006442863
5.841,5.79,-0.15,0.012313514417984674,0.20024781902786232,0.03930085656107605,0.7760205010093265,0.037979591818430636,0.8009935094753781
5.882,5.84,-0.26,0.011671952888861433,0.20019894469360855,0.03806213936355877,0.7766095492817995,0.03703428628907739,0.8006012129229665
5.944,5.89,-0.25,0.01104360213315513,0.2001800025991707,0.0368369637015075,0.7771984258749579,0.0360990603116053,0.8000726550776044
5.985,5.95,-0.15,0.01042885600720674,0.20019102716687795,0.03562576908948201,0.7777851382050082,0.035173745742345164,0.7994118049665362
6.047,6.0,-0.26,0.009828104586216753,0.20023204174885628,0.03442899006311869,0.7783677320080995,0.03425818893992913,0.7986226531315063
6.151,6.06,-0.27,0.009241733856763095,0.20030305879186458,0.03324705586376155,0.7789442931862571,0.03335225106935168,0.7977092082307843
6.171,6.12,-0.21,0.0086701254097229,0.20040408000219234,0.03208039012467366,0.7795129495993262,0.032455808379368414,0.7966754936683134
6.213,6.17,-0.22,0.008113656133584475,0.20053509651058207,0.030929410559172497,0.7800718728012175,0.03156875245262654,0.7955255442528009
6.272,6.22,-0.3,0.0075726979081575255,0.20069608903699285,0.02979452865103362,0.7806192797185462,0.03069099042792816,0.7942634028895466
6.334,6.28,-0.2,0.00704761729869442,0.20088702805501366,0.02867614934750727,0.7811534342696397,0.02982244519403578,0.7928931173078523
6.415,6.33,-0.19,0.00653877525043386,0.20110787395586466,0.02757467075528983,0.7816726489219396,0.02896305555445066,0.79141873682694
6.435,6.39,-0.24,0.006046526783584753,0.20135857721210537,0.026490483839787065,0.7821752861860021,0.028112776362624235,0.7898443091634151
6.517,6.45,-0.26,0.0055712206887774075,0.20163907854136826,0.025423972127988623,0.7826597600446185,0.02727157862710517,0.7881738772833788
6.538,6.5,-0.18,0.005113199223019643,0.20194930907061104,0.02437551141525481,0.7831245373158846,0.026439449586181597,0.7864114763022609
6.579,6.55,-0.24,0.004672797806202505,0.20228919050147123,0.02334546947632088,0.7835681389491401,0.02561639275163129,0.7845611304353302
6.661,6.61,-0.28,0.004250344718193195,0.20265863527732253,0.022334205780837408,0.7839891412525688,0.024802427921227565,0.7826268500016887
6.723,6.66,-0.21,0.0038461607965297726,0.2030575467525751,0.02134207121377405,0.7843861770510697,0.023997591159676354,0.7806126284843491
6.764,6.72,-0.2,0.0034605591347092917,0.20348581936459503,0.02036940780101385,0.7847579367728625,0.023201934747688304,0.7785224396487374
6.826,6.78,-0.27,0.0030938447810453327,0.2039433388083988,0.01941654844045387,0.7851031694632766,0.02241552709891524,0.7763602347218037
6.888,6.83,-0.16,0.0027463144380657084,0.20442998221414546,0.018483816638891738,0.7854206837244222,0.02163845264451429,0.7741299396338569
6.909,6.88,-0.11,0.002418256162436939,0.20494561832745117,0.017571526254937218,0.7857093485798348,0.02087081168515597,0.7718354523252472
6.971,6.94,-0.15,0.002109949065441577,0.20549010769264456,0.016679981248164187,0.7859680942635167,0.02011272021036505,0.7694806401200048
7.054,7.0,-0.09,0.001821663014089706,0.20606330283920593,0.015809475434696203,0.7861959129330426,0.019364309685183042,0.7670693371684191
7.115,7.05,0.02,0.001553658333017265,0.20666504847167402,0.014960292249389485,0.7863918593066059,0.018625726804275617,0.7646053419602482
7.136,7.11,-0.04,0.0013061855074108012,0.20729518166317082,0.014132704514752426,0.7865550512239939,0.0178971332137658,0.7620924149098133
7.199,7.16,-0.11,0.00107948488728397,0.20795353205244768,0.013326974216727648,0.7866846701314976,0.017178705201240988,0.7595342760137439
7.262,7.21,-0.06,0.0008737863935021257,0.20863992204408566,0.01254335228745757,0.7867799614907901,0.016470633354551237,0.7569346025816771
7.303,7.27,-0.06,0.0006893092260063604,0.20935416701121295,0.011782078395163247,0.7868402351118063,0.015773122190158462,0.7542970270398559
7.365,7.33,-0.2,0.0005262615747179158,0.21009607549989903,0.011043380741292685,0.786864865409568,0.015086389751880999,0.7516251348074481
7.425,7.38,-0.16,0.00038484033359591875,0.2108654494343644,0.010327475865119238,0.7868532915848225,0.014410667180914282,0.748922462245463
7.487,7.43,-0.07,0.000265230818284541,0.21166208432230657,0.009634568455991093,0.7868050177283873,0.01374619825801851,0.7461924946782998
7.528,7.49,-0.15,0.00016760648774437093,0.2124857694598608,0.008964851173446624,0.7867196128492192,0.013093238918758455,0.7434386644881749
7.631,7.54,-0.2,9.212867023939939e-05,0.21333628813589312,0.008318504475403901,0.7865967108265032,0.012452056742680512,0.7406643492828436
7.651,7.6,-0.13,3.89462940618494e-05,0.2142134178354053,0.007695696454613694,0.786436010286344,0.01182293041734705,0.7378728701369874
7.692,7.66,-0.16,8.195623422849714e-06,0.21511693044178687,0.007096582683550926,0.7862372744038088,0.011206149178204542,0.7350674899073967
7.753,7.71,-0.17,0.0,0.21604659243751456,0.0065213060679112705,0.7860003306310945,0.010602012225307746,0.7322514116218481
7.794,7.76,-0.1,1.4469590699131966e-05,0.21700216510274253,0.0059699967088710035,0.7857250703526404,0.01001082811795882,0.729427776941416
7.876,7.82,-0.11,5.1701142254875785e-05,0.2179834047110538,0.005442771774274038,0.7854114484680654,0.009432914148372176,0.7265996646958083
7.917,7.87,-0.23,0.00011177774334800729,0.21899006272152827,0.004939735378933786,0.7850594829038448,0.008868595695549255,0.7237700894911826
7.979,7.93,-0.2,0.0001947685949390212,0.2200218859663198,0.004460978474259219,0.7846692540546893,0.00831820556063223,0.7209420003897894
8.021,7.99,-0.16,0.0003007287895156145,0.22107861683309812,0.004006578747421652,0.7842409041557123,0.007782083285075047,0.718118279660823
8.083,8.04,-0.26,0.00042969909994262256,0.2221599934419037,0.0035766005302729025,0.7837746365866007,0.0072605744529979765,0.715301741602027
8.124,8.1,-0.27,0.0005817057785846368,0.22326574981614106,0.0031710947182017474,0.7832707151091715,0.006754029979091174,0.7124951314318301
8.186,8.15,-0.21,0.0007567603673346325,0.2243956160476086,0.0027900986990799337,0.7827294630398443,0.006262805383431384,0.7097011242519047
8.249,8.21,-0.24,0.0009548595191259328,0.2255493184555824,0.002433636292420486,0.7821512623586344,0.005787260054579931,0.7069223240800547
8.371,8.26,-0.24,0.0011759848314409997,0.22672657974006014,0.0021017176988425254,0.7815365527563145,0.005327756502333343,0.7041612629533134
8.391,8.32,-0.19,0.0014201026922784057,0.22792711912935232,0.001794339459907042,0.780885830621486,0.004884659601518035,0.7014204001010764
8.411,8.37,-0.19,0.0016871641390205098,0.22915065252224595,0.0015114844283730345,0.7801996479693726,0.004458335828273652,0.6987021211879927
8.472,8.43,-0.33,0.00197710473065498,0.23039689262497695,0.0012531217489357694,0.7794786113141213,0.004049152490346726,0.6960087376262204
8.534,8.48,-0.36,0.002289844433827857,0.2316655490832721,0.0010192068495327835,0.7787233804863346,0.0036574769529944323,0.6933424859566389
8.575,8.54,-0.32,0.002625287523236868,0.23295632860974802,0.0008096814433291276,0.7779346673975116,0.0032836758621416573,0.6907055272987331
8.637,8.59,-0.4,0.00298332249690105,0.2342689351069722,0.0006244735415154013,0.7771132347529878,0.002928114366412369,0.6880999468691835
8.719,8.65,-0.43,0.003363822006849877,0.23560306978654041,0.00046349747705844884,0.7762598947148742,0.0025911553395799878,0.6855277535696072
8.739,8.7,-0.36,0.0037666428057571747,0.23695843128459157,0.00032665393953156734,0.7753755075165012,0.00227315860489927,0.6829908796442216
8.801,8.76,-0.36,0.004191625710014945,0.2383347157741704,0.00021383002112957162,0.7744609800298723,0.00197448016272342,0.6804911804083401
8.841,8.81,-0.41,0.004638595579702186,0.23973161707474608,0.00012489927395252677,0.7735172642876078,0.001695471422778231,0.6780304340485928
8.903,8.87,-0.36,0.005107361315859532,0.24114882675907306,5.972177861895227e-05,0.7725453559608308,0.0014364784424692493,0.6756103414956093
8.965,8.92,-0.33,0.0055977158754478866,0.24258603425741826,1.8144224264649915e-05,0.7715462927944563,0.0011978411726357389,0.673232526369641
9.026,8.98,-0.43,0.006109436304354032,0.24404292695898958,0.0,0.7705211530013184,0.0009798927122163623,0.6708985349993223
9.087,9.03,-0.43,0.006642283788799128,0.24551919031027133,5.109297919147117e-06,0.7694710536165915,0.0007829585733390414,0.6686098365135451
9.149,9.09,-0.38,0.0071960037255052265,0.2470145079099385,3.327922776851755e-05,0.7683971488140042,0.000607355958385332,0.6663678230061951
9.17,9.14,-0.48,0.007770325810981172,0.24852856160003017,8.430394339100402e-05,0.7673006281853754,0.0004533930505931877,0.6641738097732426
9.233,9.2,-0.54,0.008364964150293749,0.2500610315530951,0.00015796478105404657,0.7661827149850672,0.00032136831974781784,0.6620290356214231
9.293,9.25,-0.42,0.008979617385681763,0.2516115963550658,0.00025403040973831633,0.765044664341099,0.00021156984447828374,0.6599346632474558
9.335,9.31,-0.46,0.009613968845350627,0.2531799330836155,0.0003722569934261783,0.7638877614348139,0.00012427465263569002,0.6578917796864641
9.397,9.36,-0.58,0.01026768671275105,0.2547657173817195,0.0005123883653952501,0.7627133196510598,5.9748081183850107e-05,0.6559013968280406
9.458,9.41,-0.55,0.010940424216602742,0.25636862352613,0.0006741562144899221,0.7615226787009531,1.8243157004377084e-05,0.653964451998183
9.52,9.47,-0.54,0.011631819841879694,0.2579883244905125,0.0008572802833099657,0.7603172027194847,0.0,0.6520818086051816
9.561,9.53,-0.65,0.01234149756192486,0.25962449200310994,0.001061468578223807,0.759098278340537,5.24524983942723e-06,0.6502542568475668
9.603,9.58,-0.64,0.013069067091797278,0.26127679659905806,0.0012864175910692228,0.757867312752332,3.4191517613432956e-05,0.6484825144824059
9.665,9.64,-0.58,0.013814124162881075,0.2629449076677991,0.001531812532358712,0.7566257317368426,8.703686358889485e-05,0.6467672276524342
9.728,9.69,-0.67,0.014576250818714201,0.2646284934962829,0.0017973275757758567,0.7553749776970349,0.00016396430216612058,0.6451089717705667
9.829,9.75,-0.76,0.015355015731924875,0.26632722130874553,0.002082626113726586,0.7541165076758928,0.00026514133506735135,0.643508252460282
9.85,9.8,-0.7,0.016149974542098967,0.26804075730378335,0.002387361023688949,0.7528517913710897,0.00039071951371636034,0.6419655065501987
9.893,9.86,-0.69,0.016960670214351846,0.26976876668921945,0.002711174945085449,0.7515823091489835,0.0005408340316937831,0.6404811031209564
9.954,9.91,-0.76,0.01778663341833583,0.27151091371498987,0.0030537005663891347,0.7503095500613828,0.0007156033480580242,0.6390553446023791
10.015,9.97,-0.67,0.018627382927366116,0.2732668617041379,0.0034145609221660914,0.7490350098683718,0.0009151288422270895,0.6376884679187572
10.056,10.02,-0.66,0.019482426037297502,0.27503627308201667,0.003793369699763526,0.7477601890703708,0.0011394945010567829,0.6363806456798814
10.119,10.08,-0.76,0.020351259004737658,0.27681880940393494,0.004189731555372265,0.7464865909524773,0.0013887666387216186,0.6351319874151953
10.202,10.13,-0.8,0.02123336750413866,0.27861413138171026,0.0046032424392091565,0.7452157196440011,0.0016629936499934688,0.6339425408482309
10.243,10.19,-0.75,0.022128227103269567,0.2804218989098183,0.0050334899295660035,0.7439490781959558,0.001962205797495781,0.6328122932083139
10.263,10.24,-0.86,0.023035303756542145,0.28224177109193277,0.005480053575465131,0.7426881666790506,0.0022864150334540308,0.6317411725764294
10.325,10.3,-0.94,0.023954054315629487,0.2840734062686104,0.005942505247640387,0.741434480304496,0.0026356148563566116,0.6307290492621149
10.387,10.35,-0.86,0.02488392705677599,0.2859164620467279,0.006420409497532298,0.7401895075697669,0.0030097802028030956,0.6297757372082624
10.447,10.41,-0.86,0.02582436222415025,0.2877705953310206,0.006913323923961217,0.7389547284313261,0.0034088673746666123,0.6288809954207782
10.508,10.46,-0.99,0.026774792588536378,0.2896354623577729,0.007420799547128414,0.7377316125061728,0.0038328140015401807,0.6280445294201951
10.57,10.52,-0.92,0.027734644020589345,0.291510718730506,0.007942381189575328,0.7365216173040828,0.004281539038299322,0.6272659927125284
10.611,10.57,-0.91,0.02870333607780767,0.2933960194574676,0.008477607863709819,0.7353261864926288,0.004754942797502098,0.6265449882768689
10.674,10.63,-0.99,0.029680282604311842,0.29529101899084326,0.009026013165487151,0.7341467481973609,0.0052529070162422465,0.6258810700674855
10.736,10.68,-0.99,0.03066489234245964,0.2971953712678718,0.009587125673814617,0.7329847133397949,0.0057752949569607765,0.6252737445285812
10.778,10.74,-0.89,0.03165656955528292,0.29910872975437064,0.010160469355239397,0.7318414740159459,0.006321951541616243,0.62472247212016
10.838,10.79,-0.93,0.03265471465870066,0.30103074749141007,0.010745563973489608,0.7307184019179677,0.006892703518516001,0.6242266688536655
10.92,10.85,-0.94,0.033658724862445054,0.30296107714596326,0.011341925503460859,0.7296168468010543,0.007487359661022972,0.6237857078361283
10.941,10.9,-0.88,0.03466799481862836,0.3048993710662953,0.011949066549265468,0.7285381349972087,0.008105710997295184,0.6233989208215223
11.003,10.96,-0.88,0.0356819172768788,0.3068452813426582,0.012566496765984926,0.7274835679769268,0.008747531070187024,0.6230655997679199
11.066,11.01,-0.98,0.03669988374497463,0.3087984598735962,0.013193723284770024,0.7264544209594702,0.009412576226417398,0.6227849983989739
11.127,11.07,-0.89,0.03772128515389528,0.3107585584379655,0.013830251140898872,0.7254519415723847,0.010100585934075958,0.6225563337682979
11.169,11.12,-0.84,0.03874551252618907,0.312725228772664,0.014475583704353014,0.7244773485611431,0.010811283127492992,0.6223787878254544
11.23,11.18,-0.9,0.03977195764653308,0.3146981226560347,0.015129223112433195,0.7235318305499902,0.011544374578439957,0.6222515089824338
11.293,11.23,-0.91,0.04080001373333248,0.3166768919969384,0.015790670703914465,0.7226165448551571,0.012299551292574101,0.6221736136796193
11.313,11.29,-0.83,0.04182907611018979,0.3186611889295068,0.01645942745423693,0.7217326163515628,0.013076488930008897,0.6221441879502303
11.375,11.34,-0.86,0.04285854287608048,0.3206506659135219,0.01713499441124537,0.7208811363939024,0.01387484824886556,0.6221622889821388
11.436,11.4,-0.89,0.043887815573087775,0.3226449758402514,0.01781687313100681,0.7200631617927649,0.014694275570622615,0.6222269466759154
11.477,11.45,-0.81,0.04491629985056931,0.3246437721434601,0.018504566113234398,0.7192797138462568,0.015534403266040529,0.6223371651979107
11.54,11.51,-0.74,0.0459434061246563,0.32664670891515046,0.01919757723583612,0.7185317774275263,0.01639485026040803,0.6224919245271084
11.603,11.56,-0.83,0.04696855023202135,0.3286534410253596,0.019895412188091793,0.7178203001285621,0.017275222556833367,0.6226901819944589
11.665,11.62,-0.75,0.047991154076884285,0.3306636242451563,0.020597578901933516,0.7171461914607669,0.018175113776297342,0.6229308738134128
11.727,11.67,-0.72,0.04901064627025266,0.332676915371947,0.021303587980777857,0.7165103221130052,0.019094105713202063,0.6232129166004178
11.788,11.73,-0.78,0.05002646276040895,0.33469297235632917,0.022012953125340757,0.7159135232679941,0.020031768905170444,0.6235352088841782
11.829,11.78,-0.78,0.051038047453655186,0.33671145443001443,0.022725191555845764,0.7153565859780611,0.020987663215859913,0.6238966326025716
11.889,11.84,-0.68,0.05204485282432089,0.3387320222346487,0.02343982443000639,0.7148402606014593,0.02196133842954944,0.6242960545861824
11.951,11.89,-0.7,0.05304634051304446,0.34075433795149895,0.024156377256142406,0.7143652563004063,0.022952334856239782,0.6247323280274623
12.032,11.95,-0.72,0.05404198191234328,0.34277806543192346,0.024874380300784534,0.7139322406017776,0.023960183945981213,0.6252042939345075
12.052,12.0,-0.66,0.05503125873848755,0.3448028703283447,0.02559336899013504,0.7135418390210104,0.024984408911132665,0.625710782568345
12.093,12.06,-0.6,0.056013663588699046,0.3468284202251479,0.02631288430479119,0.7131946347493376,0.02602452535526813,0.6262506148624066
12.177,12.11,-0.7,0.056988700482709445,0.34885438476864716,0.027032473167191845,0.7128911684041159,0.02708004190746314,0.6268226038227162
12.198,12.16,-0.61,0.05795588538772639,0.3508804357951548,0.0277516888212897,0.7126319378418389,0.028150460860713496,0.6274255559072748
12.259,12.22,-0.55,0.05891474672586785,0.3529062474563219,0.028470091203988888,0.7124173980334332,0.029235278813262957,0.6280582723832054
12.301,12.28,-0.61,0.05986482586314445,0.3549314963412094,0.029187247307929844,0.7122479610014417,0.030333987311638225,0.6287195506603857
12.402,12.33,-0.57,0.06080567757909925,0.35695586159491505,0.02990273153523518,0.7121239958186611,0.03144607349421098,0.6294081856004781
12.423,12.39,-0.47,0.0617368705162646,0.35897902503387613,0.03061612604184055,0.7120458286677476,0.032571020734136986,0.6301229708003176
12.464,12.44,-0.51,0.0626579876086633,0.3610006712581066,0.03132702107204032,0.7120137429611414,0.033708309280561864,0.6308626998485083
12.524,12.5,-0.54,0.06356862648864746,0.3630204877606189,0.0320350152828908,0.7120279795203722,0.034857416897025734,0.631626167553901
12.586,12.55,-0.47,0.06446839987142076,0.365038165034204,0.03273971605813891,0.7120887368134644,0.03601781949604892,0.6324121711444286
12.628,12.61,-0.44,0.0653569359166343,0.36705339667560105,0.03344073981138978,0.7121961712487619,0.03718899176892733,0.6332195114346425
12.689,12.66,-0.54,0.06623387856649289,0.3690658794869547,0.03413771227828703,0.7123503975231273,0.0383704078097941,0.6340469939603055
12.77,12.72,-0.48,0.0670988878598518,0.3710753135744136,0.03483026879753549,0.7125514890222598,0.0395615417330193,0.6348934300785898
12.811,12.77,-0.44,0.06795164022182563,0.3730814024437761,0.035518054580642826,0.7127994782708358,0.040761868283033055,0.6357576380327418
12.852,12.83,-0.47,0.06879182872846662,0.37508385309318165,0.036200724970291205,0.7130943574302696,0.0419708634356574,0.6366384439804963
12.914,12.88,-0.49,0.06961916334610235,0.3770823761029607,0.03687794568725761,0.7134360788420856,0.04318800499002125,0.6375346829859844
12.975,12.94,-0.36,0.07043337114497407,0.3790766857228278,0.037549393065781166,0.7138245556151831,0.04441277315013218,0.6384451999752516
13.037,12.99,-0.4,0.07123419648689339,0.3810664999565944,0.038214754277241164,0.7142596622555035,0.04564465109519094,0.6393688506557377
13.139,13.05,-0.45,0.07202140118672465,0.38305154064448027,0.038873727541965,0.7147412353367025,0.04688312553775746,0.6403045024002424
13.16,13.1,-0.34,0.07279476464759017,0.38503153354296016,0.03952602232893179,0.7152690742104538,0.04812768726891602,0.6412510350960338
13.202,13.16,-0.29,0.07355408396979009,0.3870062084018671,0.040171359543095364,0.7158429417549654,0.04937783168963494,0.642207341959858
13.264,13.21,-0.4,0.07429917403351555,0.38897529903828665,0.04080947170003441,0.7164625651602081,0.0506330593275605,0.6431723303197353
13.306,13.27,-0.31,0.0750298675555063,0.39093854340672224,0.04144010308764747,0.717127636748316,0.0518928763385313,0.6441449223645366
13.366,13.32,-0.23,0.07574601511986441,0.3928956836650803,0.0420630099146475,0.7178378148275903,0.053156794992157065,0.6451240558624173
13.448,13.38,-0.33,0.07644748518329743,0.39484646623611724,0.042677960445666574,0.7185927245784582,0.0544243341408593,0.6461086848492684
13.509,13.43,-0.34,0.07713416405511869,0.3967906418640914,0.04328473512282566,0.7193919589696708,0.05569501967181769,0.6470977802884229
13.53,13.49,-0.22,0.07780595585237772,0.3987279656664502,0.043883126673646716,0.7202350797030724,0.05696838494131444,0.6480903307028876
13.591,13.54,-0.24,0.07846278243052451,0.400658197180411,0.04447294020519781,0.7211216181853027,0.058243971191007035,0.6490853427813847
13.633,13.6,-0.25,0.07910458329002269,0.4025811004042762,0.04505399328437823,0.7220510765247311,0.05952132794568035,0.6500818419595178
13.674,13.65,-0.19,0.079731315459328,0.40449644383323263,0.04562611600427016,0.7230229285517774,0.06080001339205947,0.6510788729773046
13.737,13.71,-0.13,0.08034295335466879,0.406404000489194,0.046189151036519535,0.7240366208605563,0.06207959473832473,0.6520755004141038
13.8,13.76,-0.22,0.08093948861710389,0.40830354794401486,0.046742953669755,0.7250915738695649,0.06335964855404662,0.6530708092017097
13.861,13.82,-0.16,0.08152092992737185,0.4101948683352885,0.04728739183408846,0.7261871828990782,0.0646397610903359,0.6540639051162586
13.924,13.87,-0.11,0.08208730279907635,0.41207774837398625,0.04782234611175381,0.7273228192630885,0.06591952858008063,0.6550539152495468
14.011,13.93,-0.15,0.08263864935077282,0.4139519793433681,0.04834770973394055,0.7284978313739341,0.06719855751820338,0.6560399884604075
14.029,13.98,-0.14,0.0831750280575391,0.41581735708887657,0.048863388563855296,0.7297115458581808,0.06847646492192093,0.657021295806818
14.091,14.04,-0.03,0.08369651348264036,0.41767368199900956,0.04936930106600069,0.7309632686827476,0.06975287857104176,0.6579970309593413
14.133,14.09,-0.08,0.08420319598995164,0.41952075897731145,0.04986537826161833,0.7322522862905144,0.07102743722839748,0.6589664105963104
14.235,14.15,-0.15,0.08469518143786209,0.42135839740558473,0.0503515636702119,0.7335778667446611,0.07229979084057174,0.6599286747809091
14.256,14.2,-0.1,0.08517259085543827,0.42318641109826616,0.05082781323704713,0.7349392608808901,0.07356960071916044,0.6608830873199975
14.298,14.26,-0.11,0.08563556010166834,0.4250046182476933,0.05129409524653159,0.7363357034665421,0.07483653970285564,0.6618289361042587
14.338,14.31,-0.22,0.08608423950863826,0.42681284135978725,0.05175039022141111,0.7377664143654452,0.07610029230066218,0.6627655334291809
14.422,14.37,-0.15,0.08651879350950406,0.4286109071795842,0.05219669080777117,0.739230599707223,0.07736055481653334,0.6636922162965522
14.462,14.42,-0.09,0.08693940025212499,0.4303986466060583,0.05263300164589707,0.740727453059717,0.07861703545567052,0.6646083466964641
14.524,14.48,-0.15,0.08734625119921754,0.4321758945957957,0.05305933922712692,0.742256156603053,0.07986945441268806,0.6655133118701367
14.604,14.53,-0.16,0.08773955071587529,0.4339424900553294,0.053475731736906326,0.7438158823037134,0.08111754394181761,0.6664065245540942
14.624,14.59,-0.07,0.08811951564527726,0.4356982757222835,0.05388221888430991,0.7454057930867972,0.08236104840933288,0.6672874232062325
14.664,14.64,-0.11,0.08848637487339127,0.43744309803572495,0.054278851718335124,0.7470250440044456,0.08359972432839916,0.668155472214167
14.726,14.7,-0.17,0.08884036888346421,0.43917680699625505,0.05466569243129172,0.7486727833982407,0.0848333403765747,0.669010162086067
14.79,14.75,-0.11,0.08918174930108592,0.44089925601637125,0.0550428141496124,0.7503481540533139,0.08606167739621237,0.6698510096240337
14.851,14.81,-0.06,0.08951077843062379,0.4426103017615166,0.055410300712424476,0.7520502943418312,0.08728452837802905,0.6706775580800338
14.892,14.86,-0.15,0.08982772878384829,0.44430980398208536,0.05576824643825783,0.7537783393534156,0.08850169842811328,0.6714893772945101
14.974,14.91,-0.09,0.09013288260157999,0.4459976253366104,0.05611675588029691,0.7555314220100431,0.08971300471864214,0.6722860638180282
14.994,14.97,-0.01,0.09042653136918737,0.447673631206421,0.056455943570611414,0.7573086741630741,0.090918276422591,0.673067241016506
15.055,15.03,-0.06,0.09070897532675723,0.44933768950215264,0.05678593375384038,0.7591092276702516,0.09211735463274545,0.6738325591606341
15.117,15.08,-0.07,0.09098052297474067,0.45098967046259814,0.057106860110859,0.7609322154506517,0.09331009226536073,0.6745816955000254
15.178,15.14,0.05,0.09124149057584591,0.45262944644651,0.05741886547301517,0.7627767725157096,0.09449635394886743,0.6753143543224069
15.22,15.19,-0.02,0.09149220165390877,0.45425689171802325,0.05772210152757075,0.7646420369744481,0.09567601589808691,0.6760302669978471
15.281,15.25,-0.06,0.09173298649042065,0.45587188222637204,0.05801672851501725,0.7665271510109222,0.09684896577447817,0.6767291920076626
15.364,15.3,-0.01,0.09196418161934415,0.4574742953805393,0.058302914918957865,0.7684312618317525,0.09801510253299267,0.6774109149573434
15.385,15.36,0.02,0.09218612932081484,0.4590640098194154,0.05858083714927258,0.7703535225815137,0.09917433625614944,0.6780752485726234
15.447,15.41,-0.08,0.09239917711431286,0.46064090517795947,0.058850679219303696,0.772293093223748,0.10032658797595156,0.6787220326777713
15.508,15.47,-0.05,0.09260367725188122,0.4622048618498389,0.05911263241780135,0.7742491413855612,0.10147178948425618,0.6793511341552794
15.548,15.52,0.01,0.09279998621195992,0.46375576074709085,0.05936689497635863,0.7762208431640921,0.10260988313220552,0.6799624468862808
15.61,15.58,-0.06,0.09298846419440365,0.4652934830574685,0.059613671733059925,0.7782073838934331,0.10374082161931733,0.6805558916712503
15.712,15.63,-0.1,0.09316947461724316,0.46681791000033707,0.05985317379305937,0.7802079588708347,0.10486456777281675,0.6811314161307971
15.733,15.69,0.01,0.09334338361574211,0.4683289225822112,0.06008561818679718,0.7822217740412377,0.10598109431777526,0.6816889945865134
15.775,15.74,-0.05,0.0935105595442968,0.4698264013531516,0.060311227526553046,0.7842480466393033,0.10709038363860675,0.6822286279218446
15.836,15.8,-0.1,0.09367137248172494,0.4713102261652104,0.06053022966201458,0.7862860057881765,0.10819242753244993,0.6827503434228522
15.897,15.85,-0.04,0.09382619374048223,0.4727802759339283,0.06074285733550039,0.7883348930542522,0.10928722695495156,0.683254194598603
15.937,15.91,-0.02,0.09397539538033522,0.4742364284035848,0.060949347837441686,0.7903939629571605,0.11037479175895476,0.6837402609807903
16.0,15.96,-0.1,0.09411934972699948,0.47567855991660163,0.061149942662698346,0.7924624834340642,0.11145514042657755,0.6842086479021703
16.064,16.01,-0.0,0.09425842889621838,0.477106545187388,0.061344887168248104,0.7945397362573311,0.11252829979514424,0.6846594862534643
16.106,16.07,0.06,0.09439300432371836,0.47852025708102836,0.06153443023274179,0.7966250174047909,0.1135943047774237,0.6850929322184941
16.167,16.12,-0.01,0.09452344630144355,0.4799195663974615,0.06171882391837389,0.7987176373820517,0.11465319807663449,0.6855091669874259
16.23,16.18,-0.02,0.09465012352044991,0.4813043416620824,0.06189832313547442,0.8008169214967248,0.11570502989670647,0.6859083964480582
16.291,16.23,0.07,0.09477340262083156,0.4826744489239239,0.06207318531018502,0.8029222100848141,0.11674985764833887,0.6862908508550237
16.334,16.29,0.03,0.09489364774905809,0.4840297515626684,0.062243670055544244,0.8050328586898367,0.1177877456514389,0.6866567844766396
16.396,16.34,-0.01,0.0950112201231108,0.48537011010569964,0.0624100388462666,0.8071482381954264,0.11881876483454941,0.6870064752189855
16.437,16.4,0.03,0.0951264776058144,0.4866953820562459,0.06257255469745585,0.8092677349123418,0.11984299243188444,0.6873402242265937
16.498,16.45,0.02,0.09523977428677542,0.48800542173339523,0.06273148184746563,0.8113907506209289,0.1208605116786034,0.6876583554589141
16.56,16.51,-0.07,0.0953514600733538,0.48930008012447346,0.0628870854451058,0.8135167025702078,0.12187141150494885,0.6879612152416024
16.601,16.57,-0.03,0.09546188029109198,0.49057920475009015,0.06303963124136551,0.8156450234349841,0.12287578622984699,0.6882491717917459
16.663,16.62,0.01,0.09557137529401329,0.4918426395420709,0.06318938528578576,0.8177751612327328,0.12387373525452744,0.6885226147163462
16.705,16.67,-0.07,0.09568028008517789,0.49309022473446446,0.06333661362757367,0.8199065792023386,0.12486536275666071,0.6887819544836552
16.767,16.73,-0.08,0.09578892394784895,0.49432179676787896,0.06348158202151749,0.8220387556470918,0.1258507773854503,0.6890276218672561
16.809,16.78,0.01,0.09589763008757746,0.4955371882075458,0.06362455563874009,0.824171183744548,0.1268300919580634,0.6892600673630118
16.871,16.84,-0.02,0.09600671528548133,0.4967362276755893,0.063765798782338,0.8263033713258368,0.12780342315773738,0.6894797605791742
16.933,16.89,-0.07,0.09611648956297696,0.49791873979793033,0.06390557460797389,0.8284348406267592,0.12877089123385685,0.6896871896000644
17.016,16.95,0.01,0.09622725585821554,0.499084545166069,0.06404414484950888,0.8305651280127019,0.1297326197042723,0.6898828603237829
17.036,17.0,0.04,0.096339309714482,0.5002334603137345,0.06418176954978765,0.8326937836790586,0.13068873506012146,0.6900672957743996
17.099,17.06,-0.03,0.09645293898081753,0.5013652977081645,0.06431870679672846,0.8348203713285226,0.13163936647340954,0.6902410353891789
17.181,17.11,0.01,0.09656842352511662,0.5024798657557146,0.06445521246490975,0.836944467826443,0.13258464550759835,0.6904046342815895
17.201,17.17,0.05,0.09668603495993013,0.503576968821611,0.06459153996287444,0.8390656628354612,0.1335247058314642,0.690558662481047
17.283,17.23,-0.03,0.09680603638118047,0.504656407263893,0.0647279399863961,0.8411835584307753,0.13445968293648908,0.6907037041504583
17.304,17.28,-0.05,0.09692868211996092,0.5057179774818542,0.06486466027794564,0.8432977686975678,0.13538971385804482,0.6908403567827106
17.366,17.33,0.05,0.0970542175075555,0.506761471979454,0.06500194539256975,0.8454079193122959,0.13631493690060775,0.6909692303772578
17.426,17.39,0.02,0.0971828786537905,0.5077866794441503,0.06514003647035756,0.8475136471095915,0.13723549136720684,0.6910909465979612
17.488,17.44,-0.05,0.09731489223880087,0.5087933848414307,0.06527917101563022,0.849614599636431,0.13815151729326142,0.6912061379133114
17.55,17.5,-0.0,0.09745047531826578,0.509781369525073,0.06541958268292744,0.8517104346951494,0.13906315518493056,0.6913154467200613
17.59,17.55,0.0,0.09758983514214763,0.5107504113628589,0.06556150106979655,0.8538008198768224,0.13997054576207132,0.691419524451149
17.65,17.61,-0.09,0.0977331689869539,0.511700284877181,0.06570515151632184,0.8558854320865096,0.14087382970586798,0.6915190306687656
17.712,17.66,0.0,0.0978806640015215,0.5126307613998907,0.06585075491127688,0.8579639570619367,0.14177314741113664,0.6916146321436099
17.754,17.72,0.05,0.09803249706629731,0.5135416092408279,0.0659985275047586,0.8600360888873565,0.1426686387432497,0.6917070019216773
17.814,17.77,0.03,0.09818883466606562,0.514432593869699,0.06614868072717378,0.8621015295045089,0.14356044279957558,0.6917968183802821
17.937,17.83,0.04,0.09834983277605389,0.515303478111243,0.0663014210144758,0.8641599882228013,0.14444869767530594,0.6918847642752546
17.957,17.89,0.13,0.09851563676134546,0.5161540223538854,0.06645694963958095,0.8662111812309603,0.145333540233559,0.6919715257813135
17.978,17.94,0.11,0.09868638128954375,0.5169839847721637,0.06661546254993399,0.8682548311123633,0.1462151058796856,0.6920577915274085
18.02,18.0,0.06,0.09886219025665863,0.5177931215631185,0.06677715021121773,0.8702906663660791,0.14709352833975098,0.6921442516284826
18.082,18.05,0.14,0.09904317672621288,0.5185811871965597,0.06694219745719963,0.8723184209355211,0.14796893944320672,0.6922315967147151
18.146,18.1,0.14,0.09922944288159907,0.5193479346786976,0.06711078334569658,0.8743378337464758,0.1488414689098042,0.6923205169589923
18.228,18.16,0.02,0.09942107999173339,0.520093115828241,0.06728308102063033,0.876348648256066,0.14971124414081538,0.6924117011032168
18.291,18.21,0.07,0.09961816839003097,0.5208164815638935,0.06745925758012675,0.8783506120140294,0.1505783900146225,0.6925058354841145
18.312,18.27,0.14,0.0998207774666705,0.5215177822022669,0.06763947395059015,0.8803434762375574,0.15144302868671708,0.692603603059332
18.375,18.32,0.08,0.10002896567404895,0.5221967677654593,0.06782388476667602,0.8823269954008665,0.1523052793941007,0.6927056824348726
18.417,18.38,0.06,0.10024278054527187,0.5228531882977917,0.06801263825709514,0.8843009268406523,0.15316525826402644,0.6928127468952441
18.479,18.43,0.21,0.10046225872549552,0.5234867941913625,0.06820587613620793,0.8862650303785622,0.15402307812698646,0.692925463437944
18.561,18.49,0.21,0.10068742601593869,0.5240973365201016,0.0684037335014029,0.8882190679616846,0.15487884833384116,0.6930444918140382
18.582,18.55,0.18,0.10091829743039081,0.5246845673819296,0.0686063387362777,0.890162803321848,0.15573267457699444,0.6931704835765744
18.644,18.6,0.25,0.10115487726405167,0.5252482402485243,0.0688138134196432,0.8920960016543767,0.15658465871556496,0.6933040811384239
18.707,18.66,0.28,0.1013971591745462,0.5257881103220504,0.06902627224036233,0.8940184293168827,0.15743489860458412,0.6934459168408544
18.789,18.71,0.17,0.1016451262749669,0.5263039348980452,0.06924382291802147,0.8959298535486376,0.15828348792833485,0.6935966120338871
18.81,18.76,0.27,0.10189875123880492,0.526795473733567,0.06946656612941265,0.8978300422111204,0.15913051603800654,0.6937567761693783
18.851,18.82,0.34,0.10215799641664157,0.5272624894197118,0.06969459544080124,0.8997187635503621,0.15997606779388263,0.6939270059077777
18.913,18.87,0.26,0.102422813964489,0.5277047477576567,0.06992799724598102,0.9015957859816517,0.16082022341230226,0.6941078842396079
18.954,18.93,0.26,0.10269314598367604,0.5281220181375078,0.07016685071015803,0.9034608778970744,0.16166305831766234,0.6942999796227525
19.015,18.98,0.35,0.10296892467217081,0.5285140739193324,0.07041122771975136,0.9053138074962861,0.16250464299976822,0.6945038451365676
19.076,19.04,0.26,0.10325007248721224,0.5288806928157777,0.07066119283825595,0.9071543426407618,0.16334504287688092,0.6947200176536177
19.137,19.09,0.26,0.10353650231908698,0.5292216572755591,0.07091680326835605,0.9089822507315117,0.16418431816482665,0.6949490170296373
19.2,19.15,0.32,0.10382811767584937,0.529536754866914,0.07117810882048722,0.9107972986100574,0.16502252375253493,0.6951913453121479
19.263,19.2,0.31,0.10412481287875391,0.5298257786598795,0.07144515188802232,0.9125992524823522,0.16585970908436834,0.6954474859680282
19.325,19.26,0.25,0.10442647326815212,0.5300885276060481,0.07171796742922606,0.9143878778652869,0.1666959180495966,0.6957179031302767
19.387,19.32,0.31,0.10473297541958916,0.5303248069143792,0.07199658295609228,0.9161629395554912,0.16753118887936397,0.6960030408641565
19.408,19.37,0.35,0.10504418736982107,0.5305344284217487,0.07228101853017016,0.9179242016202015,0.16836555405150286,0.6963033224528761
19.449,19.42,0.24,0.10535996885246485,0.5307172109571636,0.07257128676550596,0.9196714274099598,0.16919904020354826,0.6966191497029592
19.511,19.48,0.21,0.10568017154298696,0.5308729806989506,0.07286739283884215,0.9214043795928895,0.17003166805430775,0.6969509022695156
19.573,19.53,0.3,0.10600463931273636,0.5310015715246329,0.07316933450720312,0.9231228202103949,0.17086345233432962,0.6972989370017292
19.634,19.59,0.27,0.10633320849174288,0.5311028253535222,0.07347710213296409,0.9248265107542419,0.17169440172557654,0.6976635873090569
19.676,19.64,0.18,0.1066657081400206,0.5311765924822122,0.0737906787164605,0.9265152122649691,0.1725245188105458,0.6980451625488607
19.758,19.7,0.27,0.10700196032712318,0.5312227319131814,0.07411003993616531,0.9281886854514986,0.17335380003101883,0.6984439474363672
19.798,19.75,0.24,0.10734178041970283,0.5312411116765363,0.07443515419645719,0.9298466908315678,0.17418223565657903,0.6988602014779202
19.841,19.81,0.13,0.10768497737681657,0.5312316091446085,0.074765982683022,0.9314889888923286,0.1750098097629952,0.699294158428549
19.903,19.86,0.22,0.1080313540527035,0.5311941113388189,0.07510247942594173,0.9331153402703326,0.17583650022051545,0.6997460257749938
19.965,19.92,0.28,0.1083807075067235,0.5311285152280575,0.07544459137052818,0.9347255059501793,0.17666227869205617,0.7002159842454984
20.006,19.98,0.22,0.10873282932011677,0.53103472801779,0.0757922584559602,0.9363192474812146,0.17748711064120745,0.7007041873478768
20.109,20.03,0.2,0.10908750591922547,0.5309126674291516,0.07614541370178396,0.9378963272117565,0.17831095534992739,0.7012107609375291
20.129,20.08,0.27,0.10944451890481967,0.5307622619673645,0.07650398330233626,0.9394565085403561,0.17913376594578415,0.7017358028171029
20.171,20.14,0.2,0.10980364538719208,0.5305834511788649,0.07686788672916132,0.9409995561835264,0.17995548943860298,0.7022793823693908
20.232,20.19,0.14,0.11016465832670416,0.5303761858966443,0.07723703684149362,0.9425252364592036,0.1807760667663559,0.7028415402249256
20.294,20.25,0.25,0.11052732687946916,0.5301404284735237,0.077611340004851,0.9440333175850347,0.1815954328500848,0.7034222879656358
20.336,20.3,0.25,0.1108914167478499,0.5298761530033121,0.07799069621771659,0.9455235699904532,0.18241351665759117,0.7040216078659189
20.399,20.36,0.19,0.1112566905354366,0.5295833455299727,0.07837499924620786,0.9469957666414031,0.18323024127556142,0.7046394526726111
20.504,20.41,0.27,0.11162290810615691,0.5292620042450287,0.07876413676655492,0.9484496833765705,0.18404552398975366,0.7052757454255317
20.524,20.47,0.33,0.11198982694716336,0.5289121396735118,0.07915799051517057,0.9498850992540394,0.18485927637286026,0.7059303793204503
20.585,20.52,0.27,0.11235720253513776,0.5285337748488335,0.07955643644608883,0.9513017969073329,0.18567140437966878,0.7066032176164212
20.627,20.58,0.29,0.11272478870563556,0.5281269454770916,0.07995934489555033,0.9526995629099202,0.18648180844916246,0.7072940935894669
20.689,20.64,0.38,0.11309233802506782,0.5276917000914599,0.0803665807535078,0.9540781881474388,0.18729038361323844,0.7080028105344889
20.75,20.69,0.31,0.11345960216489416,0.5272281001973512,0.08077800364182833,0.955437468196883,0.18809701961175854,0.7087291418170888
20.855,20.75,0.26,0.11382633227758307,0.5267362204090065,0.0811934680989853,0.9567772037117227,0.188901601013673,0.7094728309767367
20.875,20.8,0.37,0.1141922793738935,0.5262161485780052,0.0816128237710558,0.9580972008114634,0.18970400734397413,0.7102335918824101
20.895,20.85,0.39,0.11455719470105613,0.5256679859139125,0.08203591560886318,0.9593972714737486,0.19050411321623414,0.7110111089415457
20.956,20.91,0.3,0.11492083012146724,0.5250918470969294,0.08246258407112175,0.9606772339267924,0.19130178847046744,0.7118050373629203
21.017,20.96,0.41,0.11528293849154196,0.5244878603821509,0.0828926653334509,0.9619369130398097,0.19209689831604704,0.7126150034738898
21.077,21.02,0.48,0.11564327404040216,0.5238561676948726,0.08332599150313894,0.9631761407090941,0.19288930347942157,0.7134406050922223
21.118,21.07,0.42,0.11600159274809992,0.5231969247163177,0.08376239083954479,0.964394756237536,0.19367886035640922,0.7142814119526176
21.221,21.13,0.42,0.11635765272309016,0.5225103009592034,0.08420168798000739,0.9655926067057089,0.1944654211688879,0.7151369661878997
21.242,21.18,0.49,0.11671121457866876,0.521796479832687,0.08464370417109789,0.9667695473331076,0.1952488341257651,0.7160067828646776
21.284,21.24,0.42,0.11706204180809009,0.5210556586963657,0.08508825750502222,0.9679254418284077,0.1960289435881713,0.7168903505729987
21.347,21.3,0.36,0.11740990115806262,0.5202880489031066,0.0855351631609596,0.9690601627277049,0.1968055902388502,0.7177871320692236
21.387,21.35,0.44,0.11775456300028997,0.519493875830544,0.08598423365109303,0.9701735917196804,0.19757861125571818,0.7186965649710877
21.449,21.41,0.47,0.11809580170069267,0.518673378901034,0.08643527907106692,0.9712656199565132,0.19834784048953827,0.7196180625037206
21.511,21.46,0.4,0.11843339598590802,0.5178268115897723,0.08688810735459822,0.9723361483491657,0.19911310864561355,0.7205510142952993
21.595,21.51,0.49,0.11876712930663415,0.5169544414207791,0.08734252453195643,0.9733850878455599,0.19987424346937255,0.7214947872209481
21.616,21.57,0.53,0.11909679019737392,0.5160565499505212,0.08779833499201897,0.9744123596902151,0.2006310699357165,0.7224487262933897
21.658,21.62,0.43,0.11942217263215883,0.5151334327390044,0.08825534174759837,0.9754178956641771,0.2013834104420232,0.7234121555986779
21.719,21.68,0.46,0.11974307637587468,0.5141853993082418,0.08871334670372392,0.9764016383045622,0.20213108500473573,0.7243843792751821
21.76,21.73,0.54,0.12005930733085986,0.5132127730880972,0.08917215092855439,0.9773635411036002,0.20287391145950306,0.7253646825338678
21.822,21.79,0.45,0.12037067787849,0.5122158913495998,0.0896315549266081,0.9783035686874568,0.20361170566485515,0.7263523327178858
21.883,21.84,0.39,0.12067700721548338,0.5111951051259919,0.09009135891400291,0.9792216969752626,0.2043442817093893,0.7273465803994985
21.944,21.9,0.48,0.12097812168465567,0.5101507791219154,0.09055136309538384,0.9801179133187837,0.2050714521224278,0.7283466605123672
22.007,21.95,0.47,0.12127385509983261,0.5090832916111956,0.09101136794220087,0.9809922166229829,0.20579302808807504,0.7293517935171816
22.068,22.01,0.4,0.12156404906458992,0.5079930343236257,0.09147117447198674,0.981844617447469,0.20650881966255363,0.7303611865986386
22.109,22.07,0.49,0.12184855328443842,0.5068804123210917,0.09193058452827305,0.9826751380887097,0.20721863599464918,0.7313740348918288
22.169,22.12,0.52,0.12212722587202675,0.5057458438632593,0.0923894010607814,0.9834838126427989,0.20792228554906778,0.7323895227360618
22.21,22.17,0.43,0.12239993364491038,0.5045897602629097,0.09284742840552591,0.9842706870485801,0.20861957633249975,0.7334068249540779
22.271,22.23,0.47,0.12266655241542573,0.5034126057309318,0.09330447256444013,0.9850358191110877,0.20931031612218376,0.734425108154495
22.334,22.28,0.56,0.12292696727221822,0.5022148372110146,0.09376034148410443,0.9857792785056604,0.20999431269677724,0.735443532055262
22.397,22.34,0.5,0.12318107285300552,0.5009969242041671,0.09421484533312079,0.986501146763417,0.21067137406934583,0.7364612508258472
22.437,22.39,0.47,0.12342877360819622,0.4997593485832699,0.09466779677765676,0.987201517239025,0.21134130872228818,0.7374774144458546
22.479,22.45,0.59,0.1236699840550217,0.4985026043979024,0.09511901125464722,0.9878804950618021,0.2120039258440261,0.7384911700776
22.541,22.5,0.54,0.12390462902187026,0.4972271976696507,0.09556830724211451,0.9885381970711477,0.21265903556731316,0.7395016634499159
22.604,22.56,0.5,0.12413264388253482,0.49593364617802405,0.09601550652605333,0.9891747517371448,0.21330644920903444,0.7405080402501544
22.707,22.61,0.54,0.12435397478009937,0.4946224792370443,0.09646043446332554,0.9897902990669886,0.2139459795113818,0.7415094475211269
22.728,22.67,0.56,0.12456857884019919,0.49329423746252965,0.09690292024003903,0.9903849904976668,0.21457744088430536,0.7425050350595456
22.769,22.73,0.47,0.12477642437340998,0.4919494725300529,0.09734279712494981,0.9909589887750035,0.21520064964913826,0.7434939568125181
22.81,22.78,0.53,0.12497749106653118,0.490588746923557,0.09777990271751123,0.9915124678188642,0.215815424283275,0.7444753722687633
22.872,22.83,0.6,0.12517177016253858,0.4892126336746499,0.09821407919028505,0.9920456125741365,0.21642158566576075,0.7454484478413674
22.935,22.89,0.5,0.12535926462897456,0.48782171609268143,0.09864517352551197,0.9925586188470347,0.21701895732362567,0.746412358239066
22.975,22.94,0.49,0.12553998931451255,0.4864165874858678,0.09907303774569463,0.9930516931263362,0.2176073656787822,0.7473662878231487
23.079,23.0,0.56,0.12571397109338564,0.48499785087396086,0.09949752913806724,0.9935250523892475,0.21818664029529752,0.7483094319471246
23.098,23.05,0.55,0.12588124899732184,0.4835661186931711,0.09991851047283154,0.9939789238915777,0.21875661412684838,0.7492409982762964
23.159,23.11,0.49,0.12604187433459968,0.4821220124941832,0.1003358502150263,0.994413544941862,0.21931712376413948,0.7501602080844306
23.2,23.16,0.58,0.12619591079583298,0.48066616263412765,0.10074942272986491,0.9948291626591532,0.21986800968204492,0.7510662975247646
23.262,23.22,0.63,0.12634343454612001,0.4791992079632633,0.10115910848136181,0.995226033714305,0.22040911648621977,0.7519585188726554
23.325,23.27,0.54,0.12648453430324133,0.47772179550697125,0.10156479422409286,0.9956044240545106,0.22094029315893324,0.7528361417372884
23.366,23.33,0.6,0.12661931140163823,0.4762345801436161,0.10196637318797612,0.9959646086107491,0.22146139330389192,0.753698454240115
23.448,23.39,0.68,0.12674787984195704,0.47473822427889595,0.10236374525599405,0.9963068709877657,0.22197227538986045,0.7545447641579218
23.489,23.44,0.61,0.12687036632600002,0.4732333975173928,0.1027568171347888,0.9966315031363806,0.22247280299292252,0.7553744000286735
23.53,23.5,0.57,0.12698691027697395,0.4717207763321298,0.10314550251803506,0.9969388050083464,0.22296284503725936,0.7561867122184093
23.593,23.55,0.64,0.12709766384496662,0.470201043733009,0.10352972224243691,0.9972290841945364,0.22344227603435107,0.756981073947497
23.654,23.6,0.56,0.12720279189761594,0.4686748889349522,0.10390940443614712,0.9975026555476385,0.22391097632052745,0.7577568822744702
23.696,23.66,0.5,0.1273024719959624,0.46714300702637507,0.10428448465939265,0.9977598407905638,0.22436883229277937,0.7585135590356619
23.8,23.71,0.6,0.12739689435549442,0.46560609863834107,0.10465490603711848,0.9980009681115403,0.2248157366426995,0.7592505517389445
23.821,23.77,0.62,0.12748626179241118,0.46406486961439686,0.10502061938352153,0.9982263717464921,0.2252515885883602,0.7599673344100462
23.863,23.82,0.53,0.1275707896551383,0.46252003068080333,0.1053815833184094,0.9984363915489463,0.225676294103875,0.760663408390149
23.924,23.88,0.58,0.12765070574113696,0.4609722971167237,0.10573776437535674,0.9986313725475963,0.22608976614634815,0.7613383030837463
23.965,23.93,0.63,0.12772625019905468,0.4594223884238998,0.10608913710165302,0.9988116644917457,0.22649192487990658,0.7619915766559556
24.026,23.99,0.58,0.12779767541628662,0.4578710279953755,0.10643568415004669,0.9989776213851083,0.2268826978965079,0.7626228166787272
24.088,24.05,0.58,0.12786524589203965,0.45631894278295415,0.1067773963622858,0.9991296010088031,0.22726202043321148,0.7632316407256428
24.17,24.1,0.7,0.12792923809601375,0.45476686296330043,0.10711427284442628,0.9992679644348469,0.22762983558560235,0.7638176969152066
24.19,24.16,0.61,0.1279899403128457,0.45321552160277995,0.10744632103384597,0.9993930755317889,0.2279860945170724,0.764380664402593
24.25,24.21,0.55,0.12804765247250996,0.451665654321178,0.10777355675786304,0.9995053004643093,0.22833075666368416,0.7649202538197685
24.332,24.26,0.61,0.12810268596693028,0.4501179989543308,0.10809600428381198,0.9996050071887199,0.22866378993436223,0.7654362076638015
24.353,24.32,0.63,0.12815536345311618,0.44857329521547307,0.10841369636039953,0.9996925649463727,0.22898517090616213,0.7659283006331215
24.416,24.37,0.52,0.12820601864317577,0.4470322843548777,0.10872667425015523,0.9997683437570423,0.22929488501433506,0.7663963399116193
24.456,24.43,0.58,0.12825499608156063,0.44549570881724493,0.10903498775278625,0.9998327139145101,0.22959292673685538,0.7668401654007457
24.538,24.48,0.64,0.12830265090988516,0.44396431189633023,0.10933869521925105,0.9998860454868111,0.22987929977303373,0.7672596499000242
24.579,24.54,0.58,0.12834934861964292,0.4424388373864526,0.10963786355638652,0.9999287078237278,0.23015401721579415,0.7676546992365894
24.64,24.59,0.56,0.1283954647931094,0.4409200292308338,0.10993256822195102,0.9999610690740811,0.23041710171716362,0.7680252523444921
24.702,24.65,0.65,0.1284413848326946,0.43940863116708273,0.11022289320997206,0.999983495715199,0.23066858564650472,0.7683712812945178
24.744,24.7,0.6,0.12848750367900644,0.43790538637039556,0.11050893102631609,0.9999963520966506,0.2309085112410274,0.7686927912752121
24.805,24.76,0.58,0.1285342255179141,0.4364110370951273,0.11079078265441657,1.0,0.23113693074810468,0.7689898205258338
24.887,24.82,0.68,0.12858196347694395,0.43492632431536343,0.11106855751110518,0.9999947982160106,0.2313539065589159,0.769262440222013
24.907,24.87,0.69,0.12863113931139317,0.43345198736498863,0.11134237339251032,0.9999811021403492,0.23155951133294392,0.7695107543149681
24.969,24.92,0.64,0.12868218308059695,0.4319887635775847,0.11161235641002619,0.9999592633884353,0.23175382811286624,0.7697348993252031
25.01,24.98,0.71,0.1287355328148152,0.43053738792639057,0.11187864091639894,0.9999296294298203,0.23193695042941162,0.7699350440916867
25.071,25.03,0.75,0.12879163417321138,0.42909859266459044,0.11214136942202141,0.9998925432424238,0.23210898239579844,0.7701113894775551
25.133,25.09,0.71,0.12885094009337913,0.42767310696637106,0.1124006925015735,0.9998483429870075,0.2322700387914221,0.7702641680334239
25.196,25.14,0.74,0.128913910432849,0.42626165656948417,0.11265676869117082,0.9997973617023683,0.23242024513451065,0.7703936436194004
25.279,25.2,0.84,0.12898101160298947,0.4248649634203514,0.11290976437619177,0.9997399270218087,0.2325597377435231,0.7705001109868361
25.3,25.25,0.8,0.1290527161957164,0.4234837453229426,0.11315985366996609,0.9996763609113504,0.23268866378712905,0.7705838953207034
25.342,25.31,0.77,0.1291295026034232,0.4221187155927082,0.113407218283524,0.9996069794298644,0.23280718132267747,0.7706453517432154
25.404,25.36,0.82,0.12921185463253468,0.42077058271677037,0.11365204738662976,0.9995320925109209,0.23291545932314586,0.7706848647789231
25.466,25.42,0.84,0.1293002611110744,0.4194400500213654,0.11389453746035566,0.9994520037657818,0.2330136776926402,0.770702847781136
25.508,25.48,0.73,0.12939521549062746,0.41812781534728893,0.11413489214148853,0.9993670103066891,0.23310202727057228,0.7706997423193146
25.569,25.53,0.78,0.12949721544307072,0.41683457073398833,0.11437332205907288,0.9992774025895906,0.23318070982466282,0.7706760175271183
25.651,25.58,0.83,0.1296067624524439,0.4155610021130117,0.11461004466340238,0.9991834642756227,0.2332499380329307,0.7706321694109936
25.672,25.64,0.74,0.12972436140234142,0.41430778901172016,0.11484528404780818,0.9990854721107315,0.2333099354548194,0.7705687201194773
25.734,25.69,0.75,0.12985052015921333,0.4130756042684275,0.11507927076366277,0.9989836958227254,0.2333609364915963,0.7704862171737344
25.776,25.75,0.84,0.12998574915198519,0.4118651137603284,0.11531224162911842,0.9988783980347354,0.23340318633615464,0.7703852326601225
25.838,25.8,0.75,0.13013056094844472,0.41067697614560195,0.11554443953220299,0.9987698341936372,0.23343694091235,0.770266362385767
25.899,25.86,0.68,0.13028546982889297,0.4095118426209269,0.11577611322896583,0.9986582525115724,0.23346246680400684,0.7701302249982592
25.939,25.91,0.76,0.13045099135760707,0.40837035669539157,0.1160075171373888,0.9985438939184385,0.23348004117373267,0.7699774610706702
26.02,25.97,0.77,0.13062764195271262,0.4072531539814332,0.11623891112779532,0.9984269920229358,0.23348995167166775,0.7698087321531628
26.062,26.02,0.67,0.13081593845509856,0.40616086200312385,0.11647056031051702,0.9983077730794713,0.2334924963342608,0.7696247197926944
26.123,26.08,0.74,0.1310163976970171,0.4050941000219261,0.11670273482158056,0.998186455958094,0.23348798347312305,0.7694261245226376
26.164,26.14,0.82,0.13122953607099844,0.40405347887998166,0.11693570960714746,0.9980632521148308,0.23347673155399298,0.7692136648244734
26.247,26.19,0.75,0.1314558690996847,0.40303960086102786,0.11716976420738555,0.9979383655602284,0.23345906906583985,0.7689880760640069
26.309,26.25,0.79,0.1316959110071546,0.4020530595691611,0.11740518254038625,0.9978119928245446,0.23343533438014585,0.768750109404722
26.371,26.3,0.92,0.13195017429228864,0.40109443982580806,0.11764225268668559,0.9976843229186666,0.2334058756004511,0.7685005307008586
26.392,26.35,0.83,0.1322191693047309,0.40016431758531584,0.11788126667491393,0.9975555372901327,0.23337105040231795,0.7682401193725341
26.452,26.41,0.75,0.13250340382403306,0.39926325986946787,0.11812252026907824,0.9974258097736007,0.23333122586395996,0.7679696672648699
26.494,26.46,0.84,0.132803382642612,0.39839182472100093,0.11836631275795553,0.9972953065349603,0.2332867782878638,0.7676899774926865
26.555,26.52,0.85,0.13311960715320306,0.39755056117585846,0.1186129467470578,0.9971641860081769,0.23323809301379633,0.7674018632720522
26.617,26.57,0.73,0.13345257494153379,0.39674000925361164,0.11886272795362517,0.9970325988239153,0.23318556422359654,0.7671061467399024
26.679,26.63,0.77,0.13380277938496088,0.39596069996536803,0.11911596500510498,0.9969006877291227,0.23312959473813988,0.7668036577630791
26.741,26.68,0.81,0.1341707092578124,0.39521315533856605,0.119372969241589,0.9967685874969282,0.23307059580685155,0.7664952327383231
26.781,26.74,0.74,0.134556848344162,0.3944978884582505,0.1196340545227104,0.9966364248263747,0.23300898689012933,0.7661817133850571
26.843,26.8,0.74,0.1349616750587286,0.3938154035246867,0.1198995370395193,0.9965043182316752,0.23294519543500714,0.7658639455331717
26.883,26.85,0.83,0.1353856620765477,0.39316619592741814,0.12016973513185619,0.9963723779208785,0.23287965664436922,0.7655427779083339
26.945,26.91,0.76,0.13582927597200373,0.3925507523360144,0.12044496911173871,0.9962407056638835,0.232812813240015,0.7652190609174956
26.987,26.96,0.74,0.13629297686775346,0.39196955080775886,0.12072556109327023,0.9961093946496025,0.2327451152198752,0.7648936454372862
27.049,27.01,0.88,0.13677721809402313,0.3914230609123844,0.12101183482956973,0.9959785293318362,0.23267701960969453,0.7645673816078601
27.112,27.07,0.92,0.13728244585873547,0.3909117438736624,0.12130411555721347,0.9958481852631688,0.23260899020952117,0.7642411176345548
27.153,27.12,0.83,0.1378090989289164,0.39043605272729254,0.12160272984867046,0.9957184289160753,0.2325414973353902,0.7639156985994822
27.215,27.18,0.92,0.1383576083238207,0.3899964324942731,0.12190800547318713,0.9955893174905582,0.2324750175566735,0.7635919652848904
27.278,27.23,0.93,0.13892839702020526,0.38959332036881483,0.12222027126655344,0.995460898707892,0.23241003342968616,0.7632707530098211
27.32,27.29,0.83,0.13952187967016894,0.38922714591985375,0.12253985701016851,0.9953332105903115,0.23234703322825584,0.7629528904813025
27.401,27.34,0.79,0.14013846233196836,0.38889833130533086,0.12286709331981581,0.9952062812267234,0.2322865106720404,0.7626391986611603
27.464,27.4,0.85,0.14077854221421326,0.38860729149852186,0.12320231154454515,0.9950801285247638,0.2322289646534199,0.7623304896494253
27.485,27.45,0.76,0.14144250743384928,0.3883544345257015,0.12354584367605101,0.9949547599496784,0.23217489896377752,0.7620275655853298
27.547,27.51,0.68,0.14213073678833743,0.3881401617142989,0.12389802226892724,0.9948301722504931,0.23212482201992954,0.7617312175669554
27.607,27.57,0.79,0.14284359954242315,0.3879648679505037,0.12425918037215924,0.9947063511739092,0.23207924659139095,0.7614422245907075
27.648,27.62,0.77,0.14358145522984134,0.38782894194507933,0.12462965147219703,0.9945832711663486,0.23203868952909043,0.7611613525118767
27.709,27.67,0.68,0.14434465347022485,0.38773276650598903,0.12500976944791833,0.9944608950647256,0.23200367149607887,0.7608893530276307
27.77,27.73,0.75,0.14513353380138064,0.38767671881637894,0.125399868537724,0.9943391737769313,0.23197471670073144,0.7606269626838321
27.85,27.78,0.79,0.14594842552700643,0.3876611707164507,0.12580028331891652,0.9942180459535583,0.23195235263292374,0.7603749019070722
27.87,27.84,0.68,0.14678964757985233,0.3876864889877961,0.12621134869942463,0.9940974376528248,0.2319371098036535,0.7601338740633634
27.931,27.89,0.65,0.1476575084002783,0.38775303563893354,0.1266333999218578,0.9939772620009899,0.23192952148856852,0.7599045645450833
27.994,27.95,0.74,0.14855230583012832,0.3878611681910264,0.1270667725798073,0.9938574188507926,0.23193012347585015,0.7596876398879976
28.034,28.0,0.66,0.14947432702183738,0.3880112399629378,0.1275118026462496,0.993737794440558,0.23193945381887532,0.7594837469204726
28.095,28.06,0.62,0.15042384836271003,0.3882036003548006,0.12796882651383995,0.9936182610565855,0.2319580525940262,0.7592935119472788
28.219,28.11,0.7,0.1514011354143373,0.3884385951291487,0.12843818104682012,0.9934986767012319,0.2319864616639648,0.7591175399705977
28.239,28.17,0.68,0.15240644286714605,0.3887165666884003,0.12892020364422696,0.9933788847687117,0.2320252244466424,0.7589564139509134
28.28,28.23,0.61,0.15344001451007955,0.3890378543472005,0.12941523231407837,0.9932587137302011,0.23207488569027637,0.7588106941104867
28.32,28.28,0.69,0.15450208321539566,0.3894027945979132,0.12992360575818998,0.9931379768295782,0.23213599125449852,0.758680917282091
28.383,28.33,0.71,0.15559287093854424,0.3898117213674085,0.13044566346724462,0.9930164717911301,0.23220908789786246,0.758567596305594
28.444,28.39,0.62,0.15671258873305338,0.39026496626323254,0.13098174582568342,0.9928939805408522,0.23229472307189328,0.7584712194748575
28.504,28.44,0.66,0.15786143678030765,0.390762858807339,0.13153219422591197,0.9927702689435258,0.23239344472185575,0.7583922500373095
28.566,28.5,0.77,0.15903960443405726,0.39130572665573393,0.1320973511912284,0.9926450865584474,0.23250580109441923,0.7583311257484066
28.587,28.55,0.69,0.16024727027947594,0.391893895802524,0.1326775605068061,0.9925181664171178,0.23263234055239435,0.7582882584830289
28.648,28.61,0.65,0.16148460220658012,0.39252769076692795,0.13327316735799546,0.9923892248264004,0.23277361139672187,0.758264033905573
28.69,28.66,0.76,0.1627517574978198,0.39320743476180287,0.133884518475135,0.9922579612006619,0.2329301616959231,0.7582588112000732
28.75,28.72,0.75,0.16404888292964417,0.3939334498421131,0.13451196228399345,0.9921240579262807,0.23310253912326004,0.7582729228611738
28.811,28.77,0.66,0.1653761148878328,0.39470605703158135,0.135155849060918,0.9919871802616005,0.23329129080187447,0.7583066745463507
28.873,28.83,0.74,0.16673357949636702,0.3955255764256231,0.13581653109174163,0.991846976275095,0.2334969631581928,0.7583603449894604
28.936,28.89,0.77,0.16812139275960133,0.39639232726860407,0.13649436283351896,0.9917030768241765,0.23372010178390273,0.7584341859754278
28.998,28.94,0.64,0.16953966071748472,0.3973066280034609,0.13718970107819967,0.9915550955767531,0.2339612513068198,0.7585284223756911
29.042,29.0,0.6,0.17098847961356597,0.3982687962917817,0.13790290511738534,0.9914026290773686,0.23422095527096073,0.7586432522438361
29.102,29.05,0.62,0.1724679360754959,0.39927914900258715,0.13863433690734384,0.9912452568595576,0.2344997560261231,0.758778846970637
29.163,29.1,0.54,0.173978107307695,0.4003380021683026,0.13938436123348727,0.991082541605799,0.23479819462721296,0.7589353514975212
29.204,29.16,0.43,0.1755190612957755,0.4014456709068504,0.14015334587353778,0.9909140293562083,0.23511681074345037,0.7591128845873625
29.306,29.21,0.5,0.17709085702219346,0.40260246930932175,0.14094166175860984,0.9907392497668661,0.2354561425774346,0.7593115391514307
29.326,29.27,0.48,0.1786935446924969,0.4038087102931487,0.14174968313143332,0.9905577164183517,0.23581672679388804,0.7595313826312
29.366,29.32,0.42,0.18032716597143497,0.4050647054210182,0.14257778770094787,0.9903689271745747,0.23619909845772755,0.7597724574336093
29.447,29.38,0.46,0.181991754228122,0.40637076468601974,0.14342635679250254,0.9901723645915409,0.23660379098096043,0.760034781418281
29.467,29.43,0.52,0.18368733478942187,0.4077271962636695,0.14429577549291703,0.9899674963752763,0.2370313360777835,0.7603183484351258
29.529,29.49,0.43,0.1854139252007294,0.40913430623151975,0.14518643278970403,0.9897537758877683,0.23748226372718034,0.760623128910717
29.571,29.55,0.48,0.1871715354933586,0.4105923982571116,0.14609872170380736,0.9895306426995041,0.2379571021422491,0.7609490704817748
29.676,29.6,0.54,0.18896016845777924,0.41210177325507963,0.1470330394152812,0.9892975231869454,0.23845637774545195,0.7612960986740713
29.696,29.66,0.48,0.19077981992197424,0.4136627290142717,0.14798978738140858,0.9890538311730308,0.23898061514894747,0.7616641176249711
29.737,29.71,0.47,0.1926304790341997,0.41527555979585096,0.14896937144680744,0.9887989686086469,0.23953033713914076,0.7620530108477075
29.799,29.76,0.55,0.1945121285494131,0.41694055590351425,0.14997220194507158,0.9885323262930465,0.24010606466456283,0.7624626420352195
29.86,29.82,0.53,0.19642474511859964,0.4186580032270875,0.15099869379147451,0.9882532846312648,0.24070831682617783,0.7628928559010565
29.922,29.87,0.46,0.1983682995801765,0.42042818276080723,0.15204926656623677,0.9879612144266101,0.241337610869187,0.7633434790545576
29.983,29.93,0.58,0.20034275725259723,0.4222513700975862,0.15312434458783658,0.9876554777063579,0.24199446217537834,0.763814320907339
30.044,29.98,0.61,0.2023480782272393,0.4241278349004804,0.15422435697583936,0.9873354285788568,0.242679384255051,0.7643051746080146
30.085,30.04,0.54,0.20438421766065054,0.42605784035243915,0.1553497377027428,0.9870004141202943,0.24339288873753168,0.7648158180020672
30.148,30.09,0.58,0.2064511260652568,0.4280416425853238,0.15650092563436868,0.9866497752893774,0.2441354853592957,0.7653460146138167
30.21,30.15,0.64,0.2085487495976813,0.43007949008918633,0.1576783645583893,0.9862828478681135,0.24490768194872603,0.7658955146474545
30.251,30.2,0.6,0.21067703034387802,0.4321716231029062,0.15888250320066136,0.9858989634266553,0.2457099844065639,0.7664640560041479
30.313,30.26,0.56,0.21283590660031504,0.4343182729874963,0.16011379522911293,0.9854974503099188,0.24654289668111484,0.7670513653123113
30.416,30.32,0.68,0.21502531315044898,0.4365196615836202,0.1613726992449628,0.9850776346435103,0.2474069207372762,0.7676571589681903
30.436,30.37,0.66,0.21724518153573383,0.4387760005550042,0.16265967876105375,0.984638841356271,0.24830255651845617,0.7682811441838977
30.458,30.42,0.62,0.21949544032039184,0.4410874907194787,0.16397520216706826,0.9841803952164581,0.24923030190044415,0.7689230200400624
30.518,30.48,0.72,0.22177601534916108,0.44345432136941315,0.16531974268137709,0.9837016218782566,0.25019065263629864,0.7695824785402929
30.58,30.53,0.77,0.22408682999722132,0.44587666958328126,0.16669377828926377,0.9832018489350298,0.25118410229133753,0.7702592056647501
30.622,30.59,0.7,0.2264278054115154,0.44835469952997525,0.1680977916672877,0.9826804069755213,0.2522111421673473,0.7709528824202532
30.683,30.64,0.76,0.2287988607427107,0.4508885617673176,0.16953227009357102,0.9821366306392616,0.25327226121517193,0.7716631858845053
30.764,30.7,0.88,0.2311999133670947,0.4534783925361012,0.17099770534381653,0.9815698596677309,0.25436794593490303,0.7723897902421634
30.785,30.75,0.85,0.23363087909774416,0.4561243130509683,0.17249459357288485,0.9809794399481909,0.2554986802629609,0.7731323678105837
30.847,30.81,0.85,0.23609167238434595,0.4588264287895626,0.1740234351817733,0.980364724547464,0.2566649454454288,0.773890590053188
30.909,30.86,0.95,0.23858220650107304,0.46158482878153717,0.17558473466983746,0.9797250747332149,0.25786721989710215,0.77466412857838
30.95,30.92,0.96,0.2411023937219548,0.46439958489902405,0.17717900047209062,0.9790598609803621,0.25910597904583144,0.775452656121799
31.011,30.98,0.89,0.2436521454832077,0.46727075115006983,0.178806744781409,0.9783684639601299,0.26038169516184134,0.7762558475095144
31.075,31.03,0.97,0.24623137253202462,0.47019836297641304,0.18046848335546295,0.9776502755091049,0.26169483717180975,0.7770733805995944
31.136,31.08,1.01,0.24883998506134988,0.4731824365568498,0.18216473530820515,0.9769046995754872,0.26304587045757605,0.777904937199434
31.177,31.14,0.95,0.25147789283021144,0.47622296811731646,0.18389602288578957,0.9761311531395205,0.2644352566394227,0.7787502039563292
31.24,31.19,0.97,0.25414500526922024,0.47931993324877503,0.1856628712268375,0.975329067104982,0.2658634533439285,0.7796088732190426
31.303,31.25,1.07,0.256841231570891,0.48247328623400676,0.18746580810702052,0.9744978871586052,0.2673309139564499,0.780480643868371
31.365,31.3,1.0,0.25956648076447386,0.4856829593844502,0.1893053636679872,0.9736370745943048,0.26883808735834186,0.7813652221149644
31.385,31.36,1.0,0.2623206617750241,0.4889488623882718,0.1911820701307034,0.972746107099024,0.2703854176490807,0.7822623222628422
31.446,31.41,1.12,0.2651036834664658,0.49227088167089816,0.1930964614932872,0.9718244794970293,0.27197334385350813,0.783171667437178
31.508,31.47,1.07,0.26791545466844774,0.4956488797692106,0.1950490732134054,0.9708717044494402,0.2736022996144816,0.7840929902749606
31.57,31.52,1.04,0.2707558841868402,0.4990826947204622,0.19704044187527753,0.9698873131057473,0.2752727128712803,0.7850260335771584
31.631,31.58,1.13,0.27362488079778624,0.5025721394667758,0.19907110484131504,0.9688708557041137,0.27698500552418825,0.785970550921046
31.672,31.64,1.17,0.2765223532253025,0.5061170012758188,0.20114159988842223,0.9678219021173394,0.278739593085749,0.786926307231414
31.756,31.69,1.05,0.2794482101025114,0.5097170411779705,0.2032524648290042,0.9667400423416075,0.28053688431925,0.787893079309526
31.777,31.75,1.12,0.282402359916663,0.5133719934201251,0.20540423711673614,0.9656248869256424,0.2823772808650654,0.7888706563188719
31.881,31.8,1.18,0.285384710938171,0.5170815649362362,0.20759745343717081,0.9644760673386159,0.28426117685555513,0.7898588402269371
31.901,31.85,1.12,0.2883951711339358,0.5208454348347715,0.2098326492833059,0.9632932362757389,0.28618895851927423,0.7908574462023776
31.942,31.91,1.08,0.2914336480652521,0.5246632539033926,0.2121103585162835,0.9620760679008986,0.28816100377527987,0.7918663029671276
32.006,31.96,1.2,0.2945000487706088,0.5285346441313045,0.21443111291141753,0.9608242580260415,0.29017768181836295,0.7928852531029658
32.067,32.02,1.19,0.29759427963369234,0.5324591982497219,0.2167954416897483,0.9595375242272636,0.2922393526960699,0.7939141533119574
32.109,32.08,1.12,0.3007162462369153,0.536436479290793,0.2192038710353164,0.9582156058978094,0.29434636687841625,0.7949528746300856
32.172,32.13,1.18,0.3038658532008123,0.5404660201651715,0.22165692359834266,0.9568582642385247,0.29649906482123983,0.7960013025933257
32.254,32.19,1.22,0.30704300400969986,0.5445473232582553,0.2241551179845136,0.9554652821868083,0.2986977765241935,0.7970593373554284
32.274,32.24,1.13,0.31024760082407715,0.5486798600449272,0.22669896823059296,0.95403646428583,0.30094282108442816,0.7981268937568521
32.336,32.3,1.15,0.3134795442803291,0.5528630707225471,0.22928898326656574,0.9525716364967712,0.3032345062470482,0.7992039013445839
32.378,32.35,1.22,0.3167387332783742,0.5570963638619354,0.23192566636449524,0.9510706459578465,0.3055731279534476,0.8002903043428833
32.44,32.41,1.13,0.32002506475796383,0.5613791160761441,0.23460951457424922,0.9495333606945682,0.3079589698886566,0.8013860615751879
32.502,32.46,1.07,0.32333843346437374,0.5657106717069396,0.23734101814622613,0.94795966928618,0.31039230302883064,0.8024911463375762
32.605,32.52,1.17,0.32667873170422923,0.570090342529098,0.24012065994116322,0.9463494804935118,0.31287338519001,0.8036055462242556
32.646,32.57,1.14,0.3300458490921756,0.5745174074727397,0.2429489148270626,0.9447027228536818,0.31540246057925614,0.8047292629055848
32.667,32.63,1.08,0.33343967228905935,0.5789911123639664,0.24582624906322623,0.94301934424711,0.317979759349227,0.8058623118592116
32.707,32.68,1.14,0.33686008473223444,0.583510669684018,0.24875311967135946,0.9412993114422902,0.3206054971572117,0.8070047220549458
32.77,32.74,1.15,0.34030696635857943,0.5880752583470182,0.2517299737937161,0.9395426096236479,0.3232798747296219,0.8081565355939696
32.832,32.79,1.05,0.34378019332081133,0.5926840234961421,0.2547572480383281,0.9377492419074853,0.32600307743291684,0.8093178073029919
32.873,32.85,1.09,0.3472796376977032,0.597336076317879,0.25783536781146305,0.9359192288506591,0.32877527485191943,0.8104886042840516
32.934,32.9,1.13,0.35080516719883226,0.602030493874052,0.2609647466375587,0.9340526079563148,0.3315966203764461,0.8116690054208551
32.996,32.96,1.07,0.3543566448645054,0.6067663189513843,0.26414578546699985,0.9321494331806792,0.3344672507971313,0.8128591008427719
33.038,33.01,1.03,0.3579339287615162,0.6115425599286083,0.2673788719722,0.9302097744446248,0.3373872859112725,0.8140589913478871
33.101,33.07,1.14,0.3615368716753876,0.6163581906613386,0.27066437983253927,0.9282337171534325,0.3403568281394701,0.8152687877867673
33.164,33.12,1.1,0.3651653207997659,0.6212121503850148,0.2740026680087905,0.9262213617277784,0.34337596215379196,0.8164886104087887
33.204,33.17,1.05,0.3688191174236404,0.6261033436361865,0.2773940800077513,0.92417282314847,0.3464447545181404,0.8177185881729866
33.288,33.23,1.11,0.3724980966170681,0.631030640192329,0.28083894313785396,0.9220882305169641,0.3495632533414663,0.8189588580253747
33.349,33.28,1.12,0.37620208691607304,0.6359928750303201,0.2843375677565828,0.9199677266333323,0.3527314879444461,0.8202095641445872
33.37,33.34,1.05,0.3799309100073631,0.6409888483037327,0.2878902465105831,0.9178114675930503,0.3559494685402044,0.8214708571576543
33.431,33.4,1.11,0.3836843804134705,0.6460173253392403,0.2914972535693888,0.9156196224038591,0.35921718592961543,0.8227428933278012
33.492,33.45,1.16,0.3874623051788835,0.6510770366526291,0.2951588438537365,0.9133923726238815,0.36253461121167263,0.824025833716277
33.534,33.51,1.08,0.39126448355771526,0.6561666779851,0.29887525225947165,0.9111299120221111,0.36590169550936935,0.8253198433203291
33.596,33.56,1.09,0.3950907067034437,0.6612849103607413,0.30264669287808366,0.9088324462623419,0.36931836971149895,0.826625090189474
33.657,33.62,1.2,0.39894075736124746,0.6664303601662387,0.30647335821491356,0.9065001926116616,0.3727845442307495,0.8279417445221765
33.718,33.67,1.13,0.402814409563453,0.6716016192540304,0.31035541840608827,0.9041333796746219,0.3763001087784344,0.8292699777449176
33.759,33.73,1.08,0.40671142832860346,0.6767972450702131,0.31429302043523694,0.9017322471540865,0.3798649321561539,0.8306099615754774
33.861,33.78,1.16,0.41063156936464074,0.6820157608086208,0.3182862873510603,0.899297045639619,0.3834788620646497,0.8319618670720711
33.881,33.84,1.17,0.4145745787766862,0.6872556555925747,0.3223353174868635,0.8968280364240886,0.38714172493006727,0.8333258636698125
33.923,33.89,1.08,0.4185401927799086,0.692515384685791,0.3264401836832477,0.8943254913489606,0.390853325747786,0.8347021182059275
33.984,33.95,1.12,0.42252813741796624,0.6977933697338939,0.33060093251522454,0.8917896926786542,0.3946134479439002,0.8360907939351986
34.087,34.0,1.19,0.42653812828749993,0.7030879990378831,0.3348175835250706,0.8892209330044168,0.3984218532543659,0.8374920495372213
34.108,34.06,1.15,0.43056987026913945,0.7083976278607407,0.33909012846227704,0.8866195151781555,0.4022782816217469,0.8389060381171938
34.15,34.11,1.12,0.434623057265455,0.7137205787681844,0.3434185305319951,0.8839857522765053,0.4061824511094081,0.8403329062020991
34.192,34.17,1.22,0.43869737194623903,0.7190551420044204,0.3478027236533887,0.8813199675952228,0.4101340578329374,0.841772792734177
34.254,34.22,1.23,0.4427924855014628,0.7243995759036411,0.352242611729292,0.8786224946738346,0.4141327759085181,0.8432258280635332
34.337,34.28,1.19,0.4469080574022022,0.7297521073379236,0.35673806792850177,0.8758936773503919,0.41817825741792025,0.8446921329416601
34.358,34.33,1.26,0.4510437351697932,0.7351109322021006,0.3612889339819419,0.8731338698461389,0.42227013238973593,0.8461718175175544
34.461,34.39,1.3,0.45519915415345713,0.7404742159360003,0.36589501949385955,0.8703434368797887,0.42640800879645446,0.8476649803380001
34.481,34.44,1.24,0.45937393731665116,0.7458400940842279,0.3705561012691741,0.867522753810901,0.4305914725669534,0.8491717073535521
34.522,34.5,1.26,0.46356769503240747,0.7512066728934699,0.37527192265810533,0.8646722068117125,0.4348200876139483,0.850692070931848
34.585,34.55,1.35,0.4677800248879423,0.7565720299472027,0.38004219291923264,0.8617921930666871,0.43909339587590784,0.8522261288800336
34.646,34.6,1.32,0.47201051149882295,0.7619342148376375,0.3848665866021787,0.8588831209989228,0.44341091737289456,0.853773923478264
34.686,34.66,1.29,0.47625872633296923,0.7672912498747019,0.3897447429511104,0.8559454105224253,0.4477721502757326,0.8553354805263683
34.748,34.72,1.41,0.48052422754474233,0.7726411308318524,0.3946762653302115,0.8529794933192342,0.4521765709878598,0.8569108084057683
34.831,34.77,1.43,0.48480655981933574,0.7779818277284604,0.3996607206722206,0.8499858131403746,0.45662363423917907,0.8584998971585903
34.872,34.83,1.4,0.48910525422763407,0.7833112856484293,0.40469763895108546,0.8469648261294893,0.46111277319118266,0.860102717585753
34.934,34.88,1.48,0.4934198280916582,0.7886274255945976,0.4097865126797535,0.8439170011677564,0.4656433995526043,0.8617192203656789
34.996,34.94,1.54,0.4977497848606923,0.793928145378357,0.41492679643412705,0.8408428202383349,0.4702149037048509,0.8633493351951926
35.016,34.99,1.5,0.5020946139981872,0.7992113205437241,0.42011790640424546,0.8377427788081819,0.47482665483647457,0.8649929699541351
35.079,35.05,1.57,0.5064537908795506,0.8044748053249682,0.425359219973796,0.8346173862248848,0.47947800108595345,0.8666500098952841
35.222,35.1,1.67,0.5108267767009587,0.8097164336368304,0.4306500753290849,0.8314671661261488,0.4841682696920583,0.8683203168612247
35.242,35.16,1.61,0.5152130183993422,0.8149340200964351,0.4359897710986466,0.8282926568595369,0.4888967671510935,0.8700037285298726
35.262,35.21,1.61,0.5196119485837014,0.8201253610761832,0.4413775660246937,0.8250944119098911,0.4936627793803206,0.8717000576903531
35.303,35.27,1.73,0.5240229854778886,0.825288235787175,0.4468126786676024,0.8218730003316616,0.49846557188689333,0.873409091550888
35.344,35.32,1.77,0.5284455328749578,0.8304204073928495,0.45229428714458747,0.8186290071831523,0.5033043899416453,0.8751305910802626
35.406,35.38,1.77,0.5328789801031336,0.8355196241525538,0.45782152890365513,0.8153630339595102,0.5081784587570676,0.8768642903844001
35.468,35.43,1.88,0.5373227020034005,0.8405836205946942,0.4633935005338382,0.8120756990212122,0.5130869836688191,0.8786098961195209
35.55,35.49,1.96,0.541776058918659,0.8456101187190281,0.4690092576126311,0.8087676380148549,0.5180291503201662,0.8803670869432559
35.571,35.54,1.92,0.5462383966943772,0.8505968292275704,0.47466781459149016,0.8054395042830909,0.5230041248488214,0.8821355130049655
35.633,35.6,1.99,0.5507090466906398,0.855541452783609,0.4803681447202493,0.8020919692606402,0.5280110540757517,0.8839147954764366
35.695,35.65,2.1,0.555187325805501,0.8604416812984019,0.48610918001133047,0.7987257228533711,0.5330490656956239,0.8857045261240536
35.756,35.71,2.09,0.5596725365095623,0.8652951992451163,0.4918898112446608,0.7953414737975227,0.538117268468652,0.8875042669234692
35.797,35.76,2.04,0.5641639668917283,0.8700996849995479,0.49770888801419527,0.7919399499963554,0.5432147524136864,0.8893135497177128
35.838,35.82,2.17,0.5686608907160999,0.8748528122071138,0.5035652188168562,0.7885218988318408,0.5483405890024642,0.8911318759195482
35.921,35.87,2.17,0.573162567489979,0.8795522511755935,0.509457571184608,0.7850880874492415,0.553493831355002,0.8929587162587297
35.982,35.92,2.12,0.5776682425429596,0.8841956702930208,0.5153846718602725,0.781639303012564,0.5586735144361563,0.8947935105746893
36.023,35.98,2.21,0.5821771471170666,0.8887807374701079,0.5213452070175677,0.7781763529290505,0.5638786552533911,0.8966356676551244
36.087,36.03,2.28,0.5866884984678797,0.8933051216065532,0.5273378225257151,0.7747000650410956,0.5691082530558176,0.8984845651208997
36.129,36.09,2.18,0.5912014999765737,0.8977664940805269,0.5333611242588785,0.7712112877840616,0.5743612895345863,0.9003395493576706
36.19,36.15,2.24,0.5957153412727821,0.9021625302605794,0.5394136784506276,0.7677108903085331,0.5796367290247217,0.9021999354946862
36.294,36.2,2.38,0.600229198368207,0.9064909110391957,0.5454940120935825,0.7641997625656494,0.5849335187085065,0.90406500743131
36.314,36.26,2.34,0.6047422338008933,0.9107493243872528,0.5516006133843744,0.7606788153541634,0.5902505888205306,0.905934017911903
36.356,36.31,2.3,0.6092535967901138,0.9149354669286923,0.5577319322140405,0.7571489803277921,0.5955868528545252,0.9078061886498039
36.418,36.37,2.43,0.6137624234018277,0.9190470455347897,0.5638863807039189,0.7536112099613147,0.6009412077721288,0.9096807105011094
36.481,36.42,2.49,0.6182678367247076,0.9230817789373145,0.5700623337870123,0.7500664774737347,0.6063125342137706,0.9115567436888408
36.502,36.48,2.47,0.6227689470567601,0.9270373993597011,0.5762581298346829,0.7465157767066897,0.6116996967118907,0.9134334180780188
36.565,36.53,2.57,0.6272648521025911,0.9309116541651635,0.582472071328422,0.742960121956245,0.6171015439067487,0.9153098335020942
36.647,36.59,2.62,0.6317546371813926,0.9347023075205303,0.5887024255763729,0.7394005477562434,0.6225169087651512,0.9171850601410386
36.668,36.64,2.55,0.6362373754457564,0.9384071420743991,0.5949474254742743,0.7358381086114638,0.6279446088025138,0.9190581389511946
36.729,36.7,2.59,0.6407121281114492,0.9420239606480336,0.6012052703104882,0.7322738786790925,0.6333834463087645,0.92092808214681
36.791,36.75,2.72,0.6451779446982918,0.9455505879372467,0.6074741266147679,0.7287089513974112,0.6388322085786602,0.9227938737330574
36.832,36.81,2.65,0.649633863282303,0.9489848722232681,0.6137521290503858,0.7251444390608667,0.6442896681471234,0.9246544700902452
36.894,36.86,2.6,0.6540789107592695,0.952324687090305,0.620037381349165,0.7215814723408858,0.6497545830302217,0.9265088006089374
36.956,36.92,2.7,0.6585121031199247,0.9555679331471876,0.6263279572888171,0.7180211997520385,0.6552256969724242,0.9283557683756928
37.017,36.97,2.77,0.6629324457369349,0.9587125397501925,0.6326219017118295,0.7144647870634444,0.6607017397007756,0.9301942509091606
37.078,37.03,2.73,0.6673389336639158,0.9617564667239535,0.638917231585002,0.7109134166555311,0.6661814271866104,0.9320231009463529
37.119,37.08,2.8,0.6717305519467054,0.9646977060773432,0.6452119370986159,0.7073682868224771,0.6716634619153982,0.933841147278951
37.181,37.14,2.88,0.6761062759471235,0.9675342837113385,0.6515039828041652,0.7038306110209059,0.6771465331653376,0.9356471956394026
37.243,37.19,2.8,0.6804650716794655,0.9702642611160457,0.6577913087895837,0.7003016170655967,0.6826293172953569,0.9374400296363159
37.284,37.25,2.81,0.6848058961599804,0.9728857370543034,0.6640718318909532,0.6967825462731891,0.6881104780432212,0.9392184117383806
37.387,37.3,2.9,0.6891276977696046,0.9753968492295633,0.6703434469397721,0.6932746525549675,0.6935886668344794,0.9409810843057911
37.407,37.35,2.85,0.6934294166301957,0.9777957759360367,0.6766040280449823,0.6897792014596359,0.6990625231029802,0.9427267706679077
37.449,37.41,2.83,0.6977099849944978,0.9800807376893181,0.6828514299090557,0.6862974691666164,0.7045306746236545,0.9444541762457145
37.511,37.47,2.92,0.7019683276500183,0.9822499988358107,0.6890834891774882,0.6828307414299923,0.7099917378582216,0.9461619897174453
37.552,37.52,2.96,0.7062033623369829,0.9843018691392155,0.695298025821082,0.6793803124728274,0.7154443183144372,0.9478488842255312
37.613,37.58,2.9,0.710414000180516,0.9862347053422131,0.701492844550421,0.675947483831315,0.720887010919459,0.949513518622863
37.675,37.63,3.02,0.7145991461372012,0.9880469127014337,0.7076657362619337,0.672533563148304,0.7263184004078659,0.9511545387562622
37.737,37.69,3.1,0.718757699456175,0.9897369464939316,0.7138144795148926,0.6691398629161304,0.7317370617248692,0.9527705787849643
37.839,37.74,3.06,0.7228885541549344,0.9913033134936025,0.7199368420386559,0.665767699169159,0.7371415604452496,0.9543602625318652
37.86,37.8,2.98,0.7269905995100515,0.992744573416257,0.7260305822693877,0.6624183901269509,0.7425304532085928,0.9559222048651884
37.902,37.85,3.11,0.7310627205630148,0.9940593403323174,0.7320934509154281,0.6590932547894662,0.7479022881714328,0.957455013108087
37.963,37.91,3.06,0.7351037986414304,0.9952462840462836,0.7381231925504205,0.6557936114860052,0.7532556054769196,0.9589572884735302
38.003,37.96,3.02,0.7391127118958265,0.996304131442222,0.7441175472332445,0.6525207763796113,0.7585889377425932,0.960427627521731
38.066,38.02,3.12,0.7430883358522868,0.9972316677945031,0.750074252153744,0.6492760619285108,0.7639008105667454,0.9618646236373009
38.127,38.07,3.16,0.74702954398112,0.9980277380428547,0.7559910433031878,0.6460607753058699,0.769189743053785,0.9632668685232052
38.188,38.13,3.05,0.7509352082817359,0.9986912480306183,0.7618656571683851,0.6428762167788447,0.7744542483589328,0.9646329537085455
38.229,38.18,3.12,0.7548041998838483,0.9992211657051133,0.7676958324483484,0.6397236780477944,0.7796928342525173,0.9659614720672168
38.289,38.24,3.19,0.758635389665059,0.9996165222792486,0.7734793117924147,0.6366044405465648,0.7849040037040839,0.9672510193446354
38.351,38.29,3.16,0.7624276488848313,0.9998764133537947,0.7792138435587722,0.6335197737048119,0.790086255486474,0.96850019568997
38.411,38.35,3.16,0.7661798498348275,1.0,0.7848971835923692,0.6304709331735732,0.7952380847999394,0.9697076071916014
38.432,38.4,3.29,0.7698908665055805,0.9999865098023744,0.790527097021152,0.6274591590157296,0.8003579839162973,0.9708718674137161
38.494,38.46,3.28,0.773559575269465,0.9998352378614742,0.7961013600695315,0.6244856738633013,0.805444442843086,0.9719915989319543
38.556,38.51,3.24,0.7771848555799118,0.9995455477563961,0.8016177618879172,0.6215516810435876,0.8104959500076451,0.9730654348659791
38.597,38.57,3.33,0.78076559068679,0.9991168724665286,0.8070741063970638,0.6186583626761234,0.8155109929610259,0.9740920204067389
38.66,38.62,3.39,0.7843006683678301,0.9985487152519243,0.8124682141458726,0.6158068777423688,0.8204880591016245,0.975070014336085
38.72,38.67,3.33,0.7877889816759247,0.9978406504915223,0.8177979241811972,0.6129983601299106,0.8254256364184055,0.975998090536324
38.762,38.73,3.37,0.7912294297020599,0.9969923244784766,0.8230610959281158,0.6102339166528606,0.8303222142535552,0.9768749394872401
38.867,38.78,3.46,0.7946209183535491,0.9960034561719902,0.8282556110790921,0.607514625050054,0.8351762840843711,0.9776992697480961
38.887,38.84,3.39,0.7979623611471726,0.9948738379051971,0.8333793754904333,0.6048415319626138,0.8399863403241614,0.9784698094221684
38.929,38.9,3.41,0.8012526800167679,0.9936033360487216,0.838430321084413,0.6022156508926185,0.8447508811418826,0.9791853076015192
38.99,38.95,3.55,0.8044908061347792,0.9921918916296019,0.8434064077553061,0.5996379601451216,0.849468409300182,0.9798445357898791
39.071,39.01,3.53,0.8076756807472274,0.9906395209052664,0.8483056252774192,0.5971094007564369,0.8541374330114627,0.9804462893016734
39.092,39.06,3.49,0.8108062560214994,0.9889463158921975,0.853125995213016,0.5946308744122306,0.858756466811533,0.9809893886353303
39.153,39.12,3.56,0.8138814959062977,0.9871124448488338,0.8578655728179158,0.5922032413594692,0.8633240324503795,0.9814726808190578
39.234,39.17,3.61,0.8169003770030349,0.9851381527121367,0.8625224489425344,0.5898273183165551,0.86783865979959,0.9818950407273015
39.254,39.23,3.5,0.8198618894479098,0.9830237614871075,0.8670947519262083,0.587503876386069,0.8722988877759107,0.9822553723661509
39.317,39.28,3.54,0.8227650378038588,0.980769670588507,0.8715806494827056,0.5852336389747467,0.8767032652803691,0.9825526101261108
39.38,39.34,3.62,0.8256088419615079,0.9783763571340484,0.8759783505748316,0.5830172797256611,0.8810503521522981,0.9827857200008687
39.421,39.39,3.57,0.8283923380481987,0.9758443761884602,0.8802861072760065,0.5808554204679083,0.8853387201375043,0.9829537007709936
39.483,39.45,3.56,0.8311145793440609,0.9731743609579769,0.8845022166165902,0.5787486291894097,0.8895669538696918,0.9830555851518592
39.545,39.5,3.68,0.8337746372040321,0.9703670229349987,0.8886250224125676,0.5766974180388291,0.8937336518641467,0.9830904409053081
39.586,39.56,3.71,0.8363716019846519,0.9674231519926908,0.8926529170740183,0.5747022413628596,0.897837427522592,0.9830573719146454
39.65,39.61,3.67,0.8389045839743899,0.9643436164292326,0.8965843433906381,0.5727634937851973,0.9018769101480355,0.9829555192225267
39.691,39.67,3.76,0.8413727143262407,0.9611293629613002,0.9004177962914917,0.5708815083334567,0.905850745968387,0.9827840620312666
39.753,39.72,3.82,0.8437751459912909,0.9577814166661993,0.904151824576218,0.5690565546200439,0.9097575991675911,0.982542218665049
39.815,39.78,3.75,0.846111054651967,0.954300880871871,0.9077850326150233,0.5672888370825989,0.913596152922999,0.9822292474935046
39.856,39.83,3.8,0.8483796396536669,0.9506889369938765,0.9113160820147981,0.5655784932894301,0.9173651104476764,0.9818444478161241
39.959,39.89,3.91,0.8505801249334487,0.9469468443185183,0.9147436932484952,0.5639255923155694,0.9210631960363116,0.981387160706978
39.979,39.94,3.88,0.8527117599443964,0.9430759397314799,0.9180666472445602,0.562330133195588,0.924689156113339,0.9808567698192145
40.02,40.0,3.86,0.8547738205742148,0.9390776373916649,0.9212837869328684,0.5607920434598695,0.9282417602818442,0.9802527021488063
40.081,40.05,3.95,0.8567656100565474,0.9349534283501426,0.9243940187433497,0.5593111777615334,0.9317198023717805,0.979574428756918
40.142,40.1,4.0,0.8586864598734818,0.9307048801140777,0.9273963140533024,0.5578873166013478,0.9351221014860007,0.9788214654501003
40.204,40.16,3.94,0.8605357306476922,0.9263336361553274,0.9302897105793317,0.5565201651577182,0.9384475030425676,0.977993373417429
40.246,40.22,4.05,0.8623128130226553,0.9218414153632535,0.9330733137100231,0.5552093522280716,0.9416948798117697,0.977089759823776
40.39,40.27,4.15,0.8640171285293565,0.9172300114413279,0.9357462977759697,0.5539544292865867,0.9448631329462399,0.9761102783585945
40.411,40.33,4.13,0.8656481304379042,0.912501292247236,0.9383079072545054,0.5527548696617,0.9479511930025614,0.9750546297398681
40.431,40.38,4.11,0.8672053045924892,0.9076571990763518,0.9407574579070394,0.5516100678361191,0.9509580209527442,0.9739225621731363
40.471,40.44,4.26,0.8686881702281685,0.9026997458885944,0.9430943378471216,0.5505193388723807,0.9538826091839933,0.9727138717656726
40.533,40.49,4.26,0.8700962807680103,0.8976310184787437,0.9453180085373893,0.5494819179675158,0.9567239824852153,0.9714284028959883
40.574,40.55,4.19,0.8714292245991762,0.8924531735903001,0.9474280057134765,0.5484969601406543,0.9594811990187375,0.9700660485389327
40.637,40.6,4.31,0.8726866258265304,0.8871684379728916,0.9494239402328423,0.5475635400575501,0.9621533512757193,0.968626750546711
40.699,40.66,4.36,0.8738681450023824,0.8817791073830825,0.951305498846318,0.5466806519961356,0.9647395670137549,0.9671104998861203
40.762,40.71,4.3,0.8749734798309688,0.8762875455282837,0.9530724448900215,0.545847209957374,0.9672390101751615,0.965517336832294
40.823,40.77,4.45,0.8760023658462852,0.8706961829534652,0.9547246188951721,0.545062047925929,0.9696508817844484,0.9638473511193468
40.844,40.82,4.54,0.8769545770618933,0.865007515870499,0.9562619391132895,0.5443239202854827,0.9719744208234731,0.9621006820485104
40.905,40.88,4.51,0.8778299265913696,0.8592241049301637,0.9576844019543109,0.5436315023937084,0.9742089050828252,0.9602775185545784
40.967,40.93,4.51,0.8786282672381279,0.8533485739370953,0.958992082335406,0.542983391321671,0.9763536519880455,0.9583780992316446
41.07,40.99,4.67,0.879349492053427,0.8473836085082401,0.9601851339387871,0.542378106761438,0.9784080193993822,0.9564027123191216
41.091,41.04,4.67,0.8799935348614635,0.8413319546755839,0.9612637893775209,0.5418140921039614,0.9803714063838843,0.9543516956489485
41.133,41.1,4.66,0.8805603707505437,0.8351964174340508,0.9622283602689298,0.5412897156874629,0.9822432539587029,0.9522254365548132
41.195,41.15,4.75,0.8810500165294091,0.8289798592354577,0.9630792372154741,0.5408032722152937,0.9840230458045547,0.9500243717440586
41.235,41.21,4.78,0.881462531147879,0.8226851984292582,0.963816889693101,0.5403529843415013,0.9857103089483953,0.9477489871326723
41.297,41.26,4.7,0.8817980160810482,0.8163154076505716,0.9644418658471483,0.5399370044218883,0.9873046144144386,0.9453998176434443
41.359,41.32,4.74,0.8820566156763492,0.8098735121558402,0.9649547921961348,0.539553416427793,0.9888055778427346,0.9429774469671398
41.442,41.37,4.84,0.8822385174628373,0.8033625881064734,0.9653563732443123,0.5392002380186856,0.9902128600745705,0.940482507286409
41.464,41.42,4.83,0.8823439524221179,0.7967857608009393,0.9656473910045876,0.5388754227679906,0.9915261677039784,0.9379156789621684
41.524,41.48,4.83,0.8823731952204045,0.7901462028559251,0.9658287044339514,0.5385768625351903,0.9927452535946402,0.9352776901822719
41.564,41.53,4.93,0.8823265644012932,0.7834471323372837,0.965901248783674,0.5383023899769083,0.9938699173615076,0.9325693165723395
41.666,41.59,4.94,0.8822044225389609,0.7766918108415345,0.9658660348662662,0.5380497811902059,0.994900005816523,0.929791380768584
41.686,41.65,4.88,0.8820071763515911,0.7698835415287272,0.9657241482407936,0.5378167584823578,0.9958354133778976,0.9269447519524615
41.727,41.7,4.94,0.8817352767749282,0.7630256671075583,0.9654767483177225,0.5376009932625324,0.9966760824424896,0.9240303453470068
41.789,41.76,4.99,0.8813892189959412,0.7561215677736505,0.9651250673842691,0.5374001090515911,0.9974220037208898,0.9210491216748236
41.85,41.81,4.88,0.8809695424466877,0.7491746591018532,0.9646704095511796,0.5372116846064211,0.9980732165348654,0.9180020865779092
41.912,41.87,4.89,0.8804768307585683,0.7421883898934136,0.9641141496219934,0.5370332571549735,0.9986298090768384,0.9148902899998068
41.973,41.92,4.99,0.8799117116772522,0.7351662399789457,0.9634577318860499,0.5368623257376499,0.9990919186310753,0.9117148255309103
42.014,41.98,4.96,0.8792748569386327,0.7281117179782557,0.9627026688367825,0.5366963546498574,0.9994597317562552,0.9084768297180822
42.075,42.03,4.94,0.8785669821062208,0.7210283590182479,0.9618505398170507,0.536532776979771,0.9997334844290555,0.905177481340057
42.178,42.09,5.06,0.8777888463704084,0.7139197224103176,0.9609029895933648,0.5363689982347616,0.999913462148394,0.9018180006502566
42.198,42.14,5.09,0.8769412523100508,0.7067893892887777,0.9598617268609078,0.5362024000494164,1.0,0.8983996485885658
42.24,42.2,5.02,0.8760250456168256,0.6996409602119602,0.9587285226813674,0.5360303439675063,0.9999934826810399,0.8949237259634474
42.301,42.25,5.09,0.8750411147828437,0.6924780527277252,0.9575052088557705,0.5358501752897312,0.9998943444846028,0.8913915726055394
42.362,42.31,5.17,0.8739903907520123,0.6853042989052075,0.9561936762348305,0.5356592269784743,0.9997030692439377,0.8878045664936696
42.404,42.36,5.06,0.872873846535695,0.6781233428347192,0.9547958729697322,0.5354548236100386,0.9994201902364225,0.8841641228541093
42.466,42.42,5.07,0.8716924967932698,0.6709388380978483,0.9533138027066342,0.5352342853642897,0.9990462900473094,0.880471693233896
42.527,42.47,5.17,0.8704473973782436,0.6637544452099703,0.951749522728398,0.5349949320414313,0.9985820003933582,0.8767287645491177
42.548,42.53,5.13,0.8691396448506189,0.6565738290375605,0.9501051420471837,0.534734087095591,0.9980280019065116,0.8729368581090973
42.609,42.58,5.09,0.867770375956231,0.6494006561928723,0.9483828194515663,0.5344490816749581,0.9973850238777994,0.8690975286174653
42.671,42.64,5.18,0.8663407670737588,0.6422385924087132,0.9465847615117419,0.534137258658389,0.9966538439616928,0.8652123631510529
42.713,42.69,5.19,0.8648520336300926,0.6350912998960984,0.944713220546263,0.5337959766785669,0.9958352878411709,0.8612829801173753
42.774,42.75,5.1,0.8633054294847301,0.6279624346876056,0.9427704925536615,0.5334226141219037,0.9949302288538132,0.8573110281913022
42.837,42.8,5.14,0.8617022462838578,0.6208556439693967,0.9407589151122454,0.5330145730955926,0.9939395875792767,0.8532981852313856
42.982,42.85,5.18,0.8600438127847579,0.6137745634051968,0.9386808652513429,0.5325692833525685,0.9928643313885578,0.8492461571762234
43.003,42.91,5.11,0.8583314941511668,0.6067228144559678,0.9365387572972851,0.5320842061654898,0.9917054739554689,0.8451566769212753
43.023,42.97,5.06,0.8565666912202031,0.5997040016995195,0.9343350406974316,0.5315568381412563,0.9904640747307693,0.8410315031766628
43.044,43.02,5.19,0.8547508397414602,0.5927217101547726,0.9320721978256071,0.530984714967883,0.989141238379402,0.8368724193066014
43.105,43.08,5.15,0.8528854095888668,0.5857795026156825,0.929752741772394,0.5303654150856094,0.9877381141812966,0.8326812321511339
43.167,43.13,5.1,0.850971903945915,0.5788809169999186,0.9273792141237651,0.5296965632740256,0.986255895396197,0.8284597708307696
43.271,43.19,5.15,0.8490118584648698,0.5720294637172859,0.9249541827315138,0.5289758341470627,0.9846958185929996,0.8242098855344853
43.291,43.24,5.17,0.847006840400576,0.5652286230626121,0.9224802394788942,0.5282009555478278,0.9830591629441322,0.8199334462913509
43.333,43.3,5.08,0.8449584477194885,0.5584818426374873,0.9199599980448508,0.5273697118354578,0.9813472494855389,0.8156323417259642
43.416,43.35,5.12,0.8428683081845338,0.5517925348049785,0.9173960916700451,0.5264799470567145,0.9795614403428703,0.8113084777979436
43.437,43.41,5.16,0.840738078416408,0.545164074181265,0.9147911709275337,0.5255295679960355,0.977703137924493,0.806963776525894
43.521,43.46,5.11,0.8385694429319106,0.5385997951680317,0.9121479015004547,0.5245165470989838,0.9757737840819509,0.8026001746964475
43.543,43.52,5.05,0.836364113159945,0.5321029895293873,0.9094689619686109,0.5234389252652336,0.9737748592385282,0.7982196225591918
43.645,43.57,5.14,0.8341238264358298,0.5256769040169761,0.9067570416055047,0.5222948145081865,0.971707881486577,0.7938240825084526
43.665,43.63,5.13,0.8318503449746008,0.5193247380467189,0.904014838187168,0.5210824004789183,0.969574405654301,0.7894155277529444
43.705,43.68,5.05,0.8295454548239761,0.5130496414302947,0.9012450558140084,0.5197999448526491,0.967376022342691,0.784995940974319
43.767,43.74,5.13,0.8272109647976689,0.50685471216413,0.8984504027467555,0.5184457875765736,0.9651143569333414,0.7805673129756311
43.828,43.79,5.14,0.82484870538971,0.5007429942782652,0.8956335892575102,0.5170183489785471,0.962791068567903,0.7761316413207224
43.869,43.85,5.08,0.8224605276704613,0.4947174757470676,0.8927973254969039,0.5155161317365308,0.9604078490999808,0.7716909289655298
43.929,43.9,5.05,0.820048302164989,0.4887810864633768,0.8899443193784723,0.5139377227089644,0.9579664220203172,0.7672471828823516
44.011,43.96,5.12,0.8176139177144852,0.4829366962773216,0.8870772744815514,0.5122817946263095,0.9554685413561539,0.7628024126781056
44.051,44.01,5.05,0.8151592803214233,0.47718711310073236,0.8841988879742595,0.5105471076438719,0.9529159905456994,0.7583586292076042
44.113,44.07,4.99,0.8126863119791254,0.4715350810778379,0.8813118485582793,0.5087325107559766,0.9503105812886485,0.7539178431829232
44.174,44.12,5.1,0.8101969494863884,0.46598327882280677,0.8784188344371052,0.5068369430718759,0.9476541523737084,0.7494820637799938
44.215,44.17,5.14,0.8076931432477915,0.4605343177245537,0.8755225113092526,0.5048594349542069,0.9449485684840958,0.7450532972435803
44.277,44.23,5.01,0.8051768560602962,0.4551907403190256,0.8726255303877518,0.5027991090211069,0.9421957189819894,0.7406335454918096
44.379,44.28,5.09,0.8026500618867697,0.44995501872892607,0.8697305264470553,0.5006551810133004,0.9393975166729646,0.7362248047213801
44.4,44.34,5.11,0.800114744617107,0.444829553170575,0.8668401158983317,0.49842696052765273,0.9365558965515255,0.7318290640144188
44.442,44.4,4.99,0.7975728968176746,0.43981667052741863,0.863956894894004,0.496113851618897,0.9336728145289295,0.7274483039478415
44.503,44.45,4.93,0.795026518469832,0.4349186229897112,0.8610834374623049,0.4937153532716477,0.9307502461445558,0.7230844952060262
44.544,44.51,4.97,0.7924776156982977,0.43013758676002145,0.8582222936725954,0.4912310597452526,0.9277901852621023,0.7187395971976263
44.606,44.56,4.88,0.7899281994901319,0.4254756608243133,0.8553759878321927,0.48866066079422915,0.9247946427518856,0.7144155566773751
44.667,44.62,4.79,0.7873802844051019,0.42093486578836925,0.8525470167154339,0.48600394176696915,0.9217656451604608,0.7101143063737788
44.73,44.67,4.84,0.7848358872781704,0.4165171427792838,0.8497378478256555,0.48326078358526914,0.9187052333686978,0.7058377636236323
44.75,44.73,4.85,0.7822970259148284,0.4122243524116003,0.8469509176907519,0.4804311626069879,0.9156154612393627,0.701587829014307
44.812,44.78,4.74,0.77976571777998,0.4080582738174353,0.8441886301929897,0.4775151503737858,0.9124983942551719,0.6973663850348558
44.872,44.84,4.8,0.7772439786810916,0.40402060373975546,0.8414533549337938,0.4745129132457373,0.9093561081482201,0.6931752947371393
44.913,44.89,4.85,0.774733821446326,0.40011295568790645,0.8387474256342691,0.47142471192468727,0.9061906875216508,0.6890164004083675
44.975,44.95,4.75,0.7722372545984072,0.39633685915452016,0.8360731385722782,0.4682509008684635,0.9030042244644344,0.6848915222565819
45.039,45.0,4.71,0.7697562810249909,0.3926937588930484,0.8334327510569208,0.4649919275984248,0.8997988171601274,0.6808024571106894
45.101,45.06,4.78,0.7672928966463309,0.38918501425536245,0.8308284799412328,0.46164833190320853,0.8965765684905086,0.6767509771366056
45.163,45.11,4.71,0.7648490890810594,0.3858118985890362,0.8282625001738971,0.45822074494168563,0.8933395846350076,0.6727388285709457
45.226,45.17,4.66,0.7624268363109051,0.38257559869404617,0.8257369433907168,0.4547098882481016,0.8900899736668311,0.6687677304735942
45.267,45.22,4.74,0.7600281053451603,0.37947721433862797,0.8232538965465174,0.45111657264242255,0.8868298441466734,0.6648393735003508
45.329,45.28,4.74,0.7576548508857083,0.37651775783385205,0.82081540058806,0.44744169704906595,0.8835613037149009,0.6609554186966872
45.391,45.33,4.63,0.7553090139934142,0.37369815366616205,0.8184234491684554,0.44368624722742706,0.8802864576830908,0.6571174963134532
45.495,45.39,4.63,0.7529925207566798,0.3710192381867815,0.8160799874035395,0.439851294417795,0.8770074076258321,0.6533272046451936
45.516,45.44,4.66,0.7507072809629826,0.368481759356642,0.8137869106707578,0.43593799390611876,0.8737262499737146,0.6495861088915663
45.578,45.5,4.59,0.7484551867742522,0.3660863765453326,0.8115460634512979,0.4319475835105532,0.8704450746084433,0.6458957400422934
45.599,45.55,4.5,0.7462381114069995,0.3638336603825112,0.809359238216372,0.42788138199220654,0.8671659634609955,0.6422575937861296
45.64,45.6,4.57,0.7440579078181723,0.3617240926602079,0.8072281743585963,0.42374078739229054,0.8638909891137057,0.6386731294444383
45.703,45.66,4.53,0.741916407397753,0.3597580662844037,0.8051545571693762,0.419527275297765,0.8606222134071313,0.6351437689300327
45.745,45.72,4.46,0.7398154186691482,0.3579358852742,0.8031400168631202,0.4152423970374611,0.8573616860525005,0.6316708957320102
45.847,45.77,4.52,0.7377567259984166,0.35625776480690463,0.8011861276489799,0.41088777781063757,0.8541114432505034,0.6282558539273381
45.867,45.83,4.53,0.7357420883133692,0.35472383130748847,0.7992944068507241,0.40646511474992325,0.8508735063171651,0.6248999472199087
45.91,45.88,4.44,0.7337732378335489,0.3533341225811075,0.7974663140752907,0.4019761749205066,0.8476498803175356,0.6216044380077304
45.969,45.94,4.46,0.7318518788120627,0.3520885879876956,0.7957032504305596,0.3974227932572882,0.8444425527079348,0.6183705464788833
46.031,45.99,4.52,0.7299796862902018,0.35098708865792516,0.7940065577929112,0.3928068704414593,0.8412534919875166,0.615199449736838
46.092,46.05,4.46,0.728158304865765,0.35002939775006564,0.7923775181252094,0.3881303707175529,0.8380846463599391,0.6120922809556768
46.133,46.1,4.4,0.7263893474759799,0.3492152007474803,0.7908173528458757,0.38339531965158524,0.8349379424059428,0.6090501285657065
46.215,46.16,4.49,0.724674394195898,0.34854409579670076,0.789327222249709,0.3786038018306516,0.8318152837676789,0.6060740354698428
46.235,46.21,4.46,0.7230149910531392,0.348015594086143,0.7879082249810261,0.3737579585043126,0.8287185498456551,0.6031649982909874
46.297,46.27,4.36,0.7214126488598651,0.3476291202656062,0.7865613975595551,0.36885998516842416,0.8256495945091931,0.600323966650532
46.359,46.32,4.4,0.7198688420628655,0.34738401290676857,0.7852877139592995,0.3639121290927984,0.8226102448213188,0.5975518424780945
46.421,46.38,4.46,0.718385007612676,0.3472795250049613,0.7840880852403995,0.35891668679491806,0.8196022997790308,0.5948494793526151
46.462,46.43,4.35,0.7169625438526788,0.3473148245225689,0.7829633592338958,0.3538760014625668,0.8166275290699117,0.592217681875037
46.524,46.49,4.31,0.7156028094291819,0.34748899497455094,0.7819143202792176,0.3487924603288142,0.8136876718460637,0.58965720507292
46.585,46.54,4.35,0.7143071222234891,0.3478010360567933,0.7809416890141289,0.3436684920034716,0.8107844355163714,0.5871687538373629
46.625,46.6,4.25,0.7130767583069736,0.34824986431818095,0.7800461222167634,0.3385065637657644,0.8079194945581077,0.5847529823925175
46.686,46.65,4.17,0.7119129509201373,0.3488343138773726,0.7792282126992619,0.33330917882341315,0.8050944893488894,0.582410493797902
46.747,46.71,4.29,0.7108168894765922,0.3495531371852268,0.7784884892523914,0.3280788735435414,0.8023110250199355,0.5801418394836783
46.788,46.76,4.31,0.7097897185928634,0.35040500583365136,0.7778274166404241,0.3228182146608189,0.7995706703315372,0.5779475188190731
46.891,46.82,4.2,0.7088325371448896,0.35138851141141525,0.7772453956454553,0.31752979646813767,0.796874956571595,0.5758279787141951
46.953,46.87,4.27,0.707946397352079,0.35250216640731163,0.7767427631602397,0.3122162379951933,0.7942253764780841,0.5737836132555698
46.973,46.92,4.28,0.7071323038897814,0.35374440516105543,0.7763197923285148,0.3068801801806453,0.791623383186369,0.5718147633757513
47.015,46.98,4.19,0.7063912130310366,0.35511358486240047,0.7759766927316913,0.301524283043904,0.7890703892023491,0.5699217165573988
47.077,47.03,4.14,0.7057240318184838,0.35660798659915655,0.7757136106207836,0.2961512228628415,0.7865677654024802,0.568104706572283
47.117,47.09,4.18,0.7051316172673262,0.35822581645499707,0.7755306291925135,0.290763689363556,0.7841168400617421,0.5663639132557642
47.179,47.15,4.13,0.7046147756002822,0.3599652066580721,0.7754277689086945,0.28536438292751737,0.781718897910637,0.564699462317373
47.242,47.2,4.05,0.7041742615154526,0.36182421678143695,0.7754049878581553,0.27995601182025,0.7793751792222732,0.5631114251882479
47.303,47.26,4.11,0.703810777488035,0.3638008349962011,0.7754621821605646,0.2745412894446847,0.7770868789305564,0.5615998189062205
47.366,47.31,4.1,0.7035249731067771,0.36589297937806975,0.7755991864115809,0.26912293162155176,0.7748551457804819,0.5601646060392368
47.408,47.37,3.99,0.7033174444460308,0.3680984992676743,0.7758157741688051,0.2637036538986751,0.7726810815114896,0.5588056946476482
47.448,47.42,4.0,0.7031887334742154,0.3704151766848671,0.7761116584780394,0.2582861688907863,0.7705657400748314,0.5575229382857788
47.51,47.48,4.05,0.7031393274994779,0.37284072779701144,0.7764864924393697,0.25287318365138656,0.7685101268858751,0.556316136043113
47.571,47.53,3.96,0.7031696586533231,0.3753728044411988,0.7769398698126717,0.247467397078024,0.7665151981122565,0.5551850326254705
47.632,47.59,3.91,0.703280103413006,0.3780089957002833,0.7774713256622697,0.24207149735216862,0.764581859998752,0.5541293184766501
47.673,47.64,3.99,0.7034709821634868,0.3807468295325917,0.7780803370406246,0.2366881594147552,0.7627109682297204,0.5531486299411182
47.736,47.7,3.95,0.703742558799759,0.3835837744550741,0.7787663237110033,0.2313200424783393,0.7609033273299584,0.5522425494683177
47.798,47.75,3.83,0.7040950403703444,0.38651724127945164,0.7795286489090826,0.22596978757666136,0.7591596901047676,0.5514106058590872
47.84,47.81,3.88,0.704528576762745,0.3895445849006608,0.7803666201433492,0.22064001515228707,0.7574807571200401,0.550652274554504
47.902,47.86,3.89,0.7050432604316111,0.39266310613656646,0.7812794900340432,0.21533332268283886,0.7558671762231436,0.5499669779672876
47.964,47.92,3.79,0.7056391261703672,0.3958700536175868,0.7822664571902878,0.21005228234620874,0.7543195421053501,0.5493540858558382
48.046,47.97,3.81,0.7063161509269935,0.3991626257246142,0.7833266671249496,0.20479943872522033,0.7528383959065094,0.5488129157410493
48.067,48.03,3.82,0.7070742536646041,0.40253797257348084,0.7844592132066636,0.1995773065524489,0.7514242248626272,0.5483427333660734
48.107,48.08,3.75,0.7079132952673769,0.4059931980441788,0.7856631376483674,0.1943883684960975,0.7500774619969723,0.5479427531992109
48.189,48.14,3.7,0.708833078492293,0.4095253618531114,0.7869374325315763,0.18923507298795825,0.7487984858553081,0.5476121389800594
48.23,48.19,3.77,0.7098333479670476,0.4131314816667606,0.7882810408655145,0.18411983209458277,0.7475876202858024,0.5473500043090003
48.292,48.25,3.72,0.7109137902343955,0.4168085352552105,0.7896928576801086,0.1790450194327719,0.7464451342641237,0.5471554132799689
48.355,48.3,3.64,0.712074033843129,0.4205534626839063,0.7911717311517491,0.17401296813037298,0.7453712417641797,0.5470273811563016
48.416,48.35,3.69,0.7133136494857996,0.4243631685419016,0.7927164637606373,0.16902596883324114,0.7443661016749099,0.5469648750893084
48.436,48.41,3.72,0.7146321501832466,0.4282345242046363,0.7943258134784946,0.164086267759009,0.7434298177635053,0.5469668148791541
48.498,48.47,3.59,0.7160289915159649,0.43216437012906017,0.7959984949854155,0.15919606479800483,0.7425624386853926,0.5470320737776736
48.561,48.52,3.6,0.7175035719023192,0.43614951817876946,0.7977331809146856,0.15435751166140238,0.7417639580412725,0.5471594793328555
48.601,48.58,3.67,0.7190552329235887,0.44018675397674867,0.7995285031244124,0.14957271007649695,0.7410343144814656,0.5473478142748138
48.665,48.63,3.6,0.7206832596958054,0.4442728392832326,0.801383053994868,0.14484371002874893,0.7403733918577785,0.547595817443102
48.724,48.69,3.57,0.7223868812883109,0.4484045143961345,0.8032953877504371,0.14017250805000767,0.7397810194230406,0.5479021847552261
48.785,48.74,3.66,0.7241652711889052,0.4525785005714095,0.8052640218050078,0.13556104555220594,0.7392569720784334,0.5482655702160857
48.846,48.8,3.67,0.7260175478154111,0.456791502460562,0.8072874381295673,0.1310112072056682,0.738800970668709,0.5486845869678278
48.887,48.85,3.53,0.7279427750734557,0.46104021056227146,0.8093640846406924,0.1265248193609763,0.7384126823254005,0.5491578083793123
48.948,48.91,3.57,0.7299399629602478,0.4653213036849205,0.8114923766085602,0.12210364851333123,0.738091720858142,0.5496837691741079
49.008,48.96,3.61,0.732008068214121,0.46963145141671364,0.8136706980830447,0.11774939980864418,0.7378376471942167,0.5502609665957247
49.05,49.02,3.52,0.7341459950096249,0.4739673166000446,0.8158974033364487,0.11346371559112245,0.7376499698664416,0.5508878616087458
49.153,49.07,3.49,0.7363525956979342,0.47832555780680386,0.8181708183214554,0.10924817399281014,0.7375281455494447,0.5515628801346321
49.174,49.13,3.56,0.7386266715923548,0.4827028318113662,0.820489242143029,0.10510428756613192,0.7374715796443325,0.5522844143210797
49.216,49.18,3.46,0.7409669737986698,0.48709579605803804,0.8228509485431993,0.10103350196068131,0.7374796269116963,0.5530508238438047
49.277,49.24,3.38,0.7433722040900377,0.49150111111978967,0.8252541873978377,0.09703719464542994,0.7375515921528382,0.553860437239529
49.337,49.29,3.44,0.7458410158260832,0.4959154431451525,0.8276971862245996,0.09311667367744927,0.7376867309390343,0.5547115532687832
49.398,49.35,3.45,0.7483720149157413,0.5003354662901679,0.8301781517012448,0.08927317651807234,0.7378842503885596,0.5556024423069729
49.459,49.4,3.38,0.7509637608233228,0.5047578651322625,0.8326952711935878,0.08550786889716946,0.7381433099910993,0.5565313477621162
49.543,49.46,3.4,0.7536147676171836,0.5091793370629856,0.8352467142923174,0.0818218437261286,0.7384630224790693,0.5574964875177276
49.564,49.51,3.47,0.756323505060309,0.513596594656707,0.837830634357877,0.07821612006038225,0.7388424547452995,0.5584960553994025
49.604,49.57,3.4,0.7590883997421008,0.5180063680126029,0.8404451700725235,0.0746916421127719,0.7392806288064883,0.5595282226637187
49.666,49.62,3.34,0.7619078362506295,0.5224054070675727,0.8430884469985997,0.07124927831957703,0.7397765228118021,0.5605911395080768
49.707,49.67,3.41,0.7647801583846161,0.5267904838780517,0.8457585791419626,0.06788982046155059,0.7403290720959587,0.5616829366000458
49.769,49.73,3.36,0.7677036704043895,0.5311583948688873,0.8484536705194318,0.06461398284270936,0.7409371702761013,0.5628017266246836
49.83,49.78,3.3,0.7706766383210628,0.5355059630474891,0.8511718167290065,0.061422401530012154,0.7415996703916923,0.5639456058482061
49.933,49.84,3.33,0.7736972912231237,0.5398300401814227,0.8539111065214606,0.05831563365751928,0.7423153860865856,0.5651126556963095
49.953,49.9,3.38,0.7767638226396005,0.5441275089374886,0.8566696233717782,0.05529415679895846,0.7430830928323298,0.5663009443453972
49.995,49.95,3.24,0.7798743919389205,0.5483952849801905,0.8594454470487956,0.05235836841266434,0.7439015291916745,0.5675085283249647
50.038,50.01,3.26,0.7830271257625271,0.5526303190274091,0.8622366551813523,0.049508585362682545,0.7447693981211655,0.5687334541294775
50.098,50.06,3.33,0.7862201194922719,0.5568295988611517,0.8650413248192705,0.04674504351951192,0.745685368311626,0.5699737598381881
