Time_Host,Time_Arduino,easingdata,CH1_Oxy,CH1_Deoxy,CH2_Oxy,CH2_Deoxy,CH3_Oxy,CH3_Deoxy
1.418,0.04,0.0,0.12369579233988647,0.0,0.0707796479683224,0.8386856132924108,0.09421794498709753,0.726979688709767
1.438,0.1,0.0,0.12225584137628687,0.008625423278922927,0.07045444275634691,0.8370550613906415,0.09434562997402465,0.7292415122585102
1.458,0.15,0.0,0.12082667926295768,0.017241459911440694,0.07013988369739164,0.8354307437775313,0.0944882906538235,0.7314978302270077
1.479,0.21,0.0,0.11940881922862145,0.025844934833373724,0.06983606125856998,0.8338135460380819,0.09464587005890958,0.7337477762378902
1.499,0.26,0.0,0.11800276121113334,0.03443269106280587,0.06954305246566983,0.8322043535173144,0.09481829190280444,0.7359904912424053
1.519,1.06,0.0,0.11660899130941454,0.043001592596664834,0.06926092067212562,0.8306040504692673,0.0950054602953964,0.7382251243619666
1.539,1.11,0.0,0.11522798125466431,0.05154852726882179,0.0689897153462035,0.8290135192014764,0.09520725947985227,0.7404508337186565
1.642,1.17,0.0,0.11386018790156757,0.060070409565411584,0.06872947187697324,0.8274336392161934,0.09542355359213932,0.7426667872535354
1.663,1.22,0.0,0.1125060527401739,0.06856418339312106,0.06848021139961362,0.825865286349646,0.09565418644410074,0.7448721635316256
1.703,1.28,0.0,0.11116600142908441,0.0770268247962311,0.06824194064057121,0.8243093319106896,0.09589898133101249,0.7470661525324633
1.764,1.33,-0.04,0.10984044335054484,0.0854553446182283,0.06801465178306647,0.8227666418202445,0.0961577408645327,0.7492479564251252
1.806,1.39,-0.08,0.10852977118800931,0.09384679110382722,0.06779832235341181,0.8212380757529749,0.09643024683193134,0.7514167903266615
1.888,1.44,-0.07,0.10723436052671173,0.10219825243727536,0.06759291512857132,0.8197244862827279,0.09671626008244312,0.7535718830428961
1.93,1.5,-0.06,0.10595456947776101,0.11050685921287624,0.06739837806534096,0.8182267180333498,0.09701552044150583,0.7557124777906287
2.012,1.55,-0.07,0.10469073832624591,0.11876978683379702,0.06721464425145933,0.8167456068365831,0.09732774665353429,0.7578378329003701
2.033,1.61,-0.08,0.10344318920377614,0.12698425783545733,0.0670416318788783,0.8152819788988196,0.09765263635377269,0.7599472224988609
2.094,1.66,-0.06,0.10221222578580103,0.13514754413011157,0.06687924423935027,0.8138366499785158,0.09798986606968753,0.7620399371707027
2.136,1.72,-0.06,0.10099813301394674,0.1432569691696051,0.06672736974243015,0.8124104245760506,0.09833909125231105,0.7641152845985014
2.198,1.77,-0.07,0.09980117684352063,0.1513099100236584,0.06658588195594181,0.8110040951377689,0.09869994633790544,0.7661725901809718
2.259,1.83,-0.05,0.09862160401625819,0.1593037993713841,0.06645463966890523,0.8096184412759129,0.09907204484028599,0.768211197628485
2.363,1.88,-0.05,0.09745964185835172,0.167236127404033,0.06633348697686281,0.8082542290061049,0.09945497947411723,0.7702304695355516
2.384,1.94,-0.07,0.09631549810382131,0.17510444363715036,0.06622225338948558,0.8069122100039974,0.09984832230947711,0.7722297879297281
2.426,1.99,-0.07,0.09518936074337704,0.18290635863038773,0.06612075396029114,0.8055931208826338,0.10025162495796427,0.7742085547964203
2.488,2.05,-0.07,0.09408139789904696,0.19063954561320162,0.06602878943827446,0.8042976824919784,0.10066441879059866,0.7761661925790513
2.549,2.1,-0.1,0.09299175772493237,0.1983017420147061,0.06594614644123714,0.8030265992419456,0.10108621518772463,0.7781021446540748
2.631,2.16,-0.12,0.09192056833446294,0.20589075089608688,0.06587259765058529,0.8017805584501634,0.10151650582106884,0.7800158757803484
2.651,2.21,-0.12,0.09086793775448576,0.21340444228419345,0.06580790202733125,0.8005602297156159,0.10195476296803321,0.7819068725224337
2.734,2.27,-0.13,0.08983395390647672,0.22084075440513762,0.06575180504897857,0.7993662643192646,0.1024004398582131,0.7837746436474399
2.755,2.32,-0.14,0.08881868461511724,0.22819769481693122,0.06570403896689814,0.798199294652658,0.10285297105202464,0.7856187204950831
2.797,2.38,-0.12,0.08782217764442225,0.2354733414404139,0.06566432308373779,0.7970599336753994,0.10331177285121508,0.7874386573206785
2.859,2.43,-0.12,0.0868444607615172,0.2426658434879784,0.06563236405037133,0.795948774402089,0.10377624374093067,0.789234031610819
2.919,2.49,-0.12,0.08588554182803822,0.24977342228991203,0.06560785618188633,0.7948663894190569,0.10424576486293682,0.7910044443715422
2.96,2.54,-0.1,0.08494540891898837,0.2567943720184994,0.06559048179211056,0.793813330430961,0.10471970051952852,0.7927495203888443
3.022,2.6,-0.09,0.08402403046877766,0.26372706031030335,0.06557991154617603,0.792790127837197,0.1051973987076282,0.7944689084614459
3.083,2.65,-0.1,0.08312135544411364,0.2705699287872398,0.06557580483061656,0.7917972903380218,0.10567819168253907,0.7961622816057922
3.145,2.71,-0.09,0.08223731354336433,0.27732149347724516,0.06557781014049162,0.7908353045702995,0.10616139655079558,0.7978293372333317
3.226,2.76,-0.08,0.0813718154219637,0.283980345135528,0.06558556548302595,0.7899046347727723,0.10664631589153356,0.7994697973001984
3.287,2.82,-0.1,0.08052475294338744,0.29054514946758914,0.06559869879725587,0.7890057224807542,0.10713223840577862,0.8010834084294788
3.307,2.87,-0.11,0.07969599945520067,0.2970146472553477,0.06561682838916712,0.7881389862501006,0.10761843959302371,0.8026699420063067
3.348,2.93,-0.1,0.07888541008967032,0.3033876543878241,0.06563956338179552,0.7873048214102784,0.10810418245442849,0.8042291942460538
3.45,2.98,-0.12,0.07809282208842529,0.3096630617979284,0.06566650417973655,0.7865035998463006,0.10858871822192286,0.8057609862359046
3.471,3.04,-0.14,0.07731805515061947,0.3158398353069937,0.06569724294747618,0.7857356698092134,0.10907128711243007,0.8072651639500892
3.512,3.09,-0.12,0.07656091180400698,0.32191701537879785,0.0657313641009093,0.7850013557547235,0.10955111910634634,0.8087415982390285
3.573,3.15,-0.11,0.0758211777982965,0.3278937167848903,0.06576844481135562,0.7843009582094643,0.11002743474932632,0.8101901847926298
3.635,3.2,-0.11,0.07509862252011545,0.33376912818311144,0.06580805552132105,0.7836347536643312,0.11049944597633504,0.8116108440779607
3.698,3.26,-0.09,0.07439299942887266,0.33954251161126714,0.06584976047118525,0.7830029944943024,0.11096635695684777,0.8130035212515593
3.739,3.31,-0.07,0.07370404651274857,0.3452132018980486,0.06589311823594157,0.7824059089042027,0.1114273649600247,0.8143681860466885
3.824,3.37,-0.06,0.0730314867639707,0.35078060599345384,0.0659376822710855,0.7818437008999377,0.1118816612386597,0.8157048326358892
3.844,3.42,-0.06,0.0723750286724479,0.35624420222115866,0.06598300146674635,0.7813165502847647,0.11232843193069642,0.8170134794692396
3.928,3.48,-0.03,0.07173436673675944,0.36160353945548074,0.06602862070917402,0.7808246126801996,0.11276685897711508,0.818294169088759
3.988,3.53,-0.03,0.07110918199143738,0.3668582362257413,0.0660740814487259,0.780368019571147,0.11319612105500725,0.8195469679194067
4.009,3.59,-0.04,0.07049914254944577,0.37200797975095984,0.06611892227353161,0.7799468783747936,0.11361539452466635,0.8207719660371515
4.069,3.64,-0.02,0.06990390415873621,0.3770525249079255,0.06616267948803653,0.7795612725327622,0.1140238543895278,0.8219692769145902
4.132,3.7,-0.02,0.06932311077174592,0.38199169313576586,0.0662048876956368,0.7792112616259734,0.11442067526779652,0.82313903714459
4.193,3.75,-0.04,0.06875639512670736,0.3868253712801695,0.06624508038462522,0.7788968815116137,0.11480503237459246,0.8242814061424205
4.234,3.81,-0.03,0.06820337933965506,0.3915535103804199,0.06628279051666561,0.778618144481574,0.11517610251342605,0.8253965658268425
4.296,3.86,-0.02,0.06766367550604502,0.3961761244023721,0.06631755111701448,0.7783750394416965,0.11553306507578552,0.8264847202806311
4.338,3.92,-0.03,0.06713688631094018,0.40069328892045913,0.06634889586571954,0.778167532111147,0.11587510304757893,0.8275460953910218
4.399,3.97,-0.03,0.06662260564675546,0.40510513975176593,0.06637635968903295,0.7779955652411965,0.11620140402112862,0.8285809384705837
4.461,4.03,0.01,0.066120419237594,0.4094118715451518,0.06639947935027675,0.7778590588526859,0.11651116121137162,0.8295895178590229
4.604,4.08,0.01,0.06562990526924427,0.41361373632835957,0.06641779403938641,0.7777579104914357,0.11680357447488435,0.830572122506421
4.625,4.14,0.02,0.06515063502394458,0.4177110420160068,0.06643084596035492,0.7776919955008673,0.11707785133032875,0.8315290615384072
4.644,4.19,0.06,0.06468217351906667,0.4217041508813071,0.06643818091580812,0.7776611673111018,0.11733320797891808,0.8324606638037648
4.665,4.25,0.08,0.0642240801489284,0.425593477994305,0.06643934888797239,0.777665257743806,0.11756887032352432,0.8333672774049538
4.727,4.3,0.07,0.06377590932901282,0.42937948962932715,0.06643390461533503,0.7777040773320465,0.11778407498508912,0.8342492692120179
4.791,4.36,0.09,0.06333721114193006,0.43306270164428123,0.06642140816433628,0.7777774156544328,0.11797807031505479,0.8351070243603255
4.852,4.41,0.1,0.062907531984493,0.43664367783440555,0.06640142549546693,0.7778850416828615,0.11815011740258881,0.8359409457325856
4.934,4.47,0.09,0.062486415215273615,0.4401230282630911,0.06637352902317906,0.7780267041432233,0.118299491075426,0.836751453425605
4.954,4.52,0.09,0.06207340180196112,0.44350140757248985,0.06633729816904423,0.7782021318885036,0.11842548089318534,0.837538984202313
4.996,4.58,0.1,0.0616680309677806,0.4467795132767337,0.06629231990761364,0.7784110342838007,0.11852739213203656,0.8383039909296605
5.06,4.63,0.09,0.06126984083616652,0.44995808404069576,0.06623818930445326,0.7786531016028567,0.11860454675959502,0.8390469420030916
5.12,4.69,0.08,0.06087836907282207,0.45303789794731847,0.06617451004583695,0.7789280054357548,0.11865628439891282,0.8397683207583657
5.204,4.74,0.11,0.0604931535242302,0.45601977075660366,0.06610089495957643,0.7792353991074465,0.11868196328041754,0.8404686248715583
5.246,4.8,0.1,0.06011373285162899,0.45890455415938247,0.06601696652645543,0.77957491810678,0.11868096118063255,0.8411483657480846
5.288,4.85,0.11,0.05973964715942649,0.46169313402896717,0.06592235738172245,0.7799461805256478,0.11865267634650005,0.841808067901574
5.35,4.91,0.13,0.05937043861701101,0.4643864286737318,0.06581671080608459,0.7803487875078491,0.11859652840412474,0.8424482683233948
5.411,4.96,0.14,0.059005652072919114,0.4669853870936029,0.06569968120564368,0.7807823237072227,0.11851195925076738,0.8430695158436118
5.431,5.02,0.14,0.058644835660345784,0.4694909872433726,0.06557093458022922,0.7812463577545907,0.1183984339289409,0.8436723704841436
5.513,5.07,0.16,0.05828754139300667,0.4719042343057153,0.06543014897959934,0.7817404427330583,0.11825544148149504,0.8442574028048844
5.553,5.13,0.18,0.057933325750383353,0.4742261589767661,0.06527701494698976,0.7822641166612738,0.11808249578661928,0.8448251932435493
5.614,5.18,0.17,0.057581750251399076,0.47645781576711566,0.06511123594949413,0.7828169029843574,0.1178791363717409,0.8453763314499816
5.657,5.24,0.16,0.05723238201557597,0.4786002813210623,0.06493252879476182,0.7833983110723031,0.11764492920534188,0.8459114156156443
5.717,5.29,0.18,0.05688479431073303,0.4806546527569396,0.06474062403350735,0.7840078367257465,0.11737946746576189,0.8464310517990019
5.778,5.35,0.17,0.05653856708633072,0.4826220460312165,0.06453526634734313,0.784644962688999,0.11708237228608558,0.8469358532474753
5.839,5.4,0.15,0.05619328749167255,0.484503594328856,0.06431621492146375,0.7853091591702335,0.11675329347423057,0.8474264397166446
5.901,5.46,0.16,0.055848550378308694,0.48630044648212534,0.06408324380172356,0.785999884368618,0.11639191020736346,0.8479034367873413
5.962,5.51,0.17,0.05550395878611472,0.48801376541977853,0.06383614223566327,0.7867165850080643,0.11599793169977657,0.8483674751812391
6.024,5.57,0.16,0.05515912441262465,0.48964472664827857,0.0635747149970639,0.7874586968770597,0.11557109784335731,0.8488191900755022
6.045,5.62,0.18,0.054813668065285745,0.49119451676651227,0.0632987826936328,0.7882256453738432,0.11511117981977581,0.8492592204170232
6.107,5.68,0.2,0.05446722009637611,0.49266433201527254,0.06300818205745153,0.7890168460560496,0.1146179806835179,0.8496882082367633
6.168,5.73,0.2,0.05411942082037652,0.4940553768626621,0.06270276621784004,0.7898317051939048,0.11409133591490894,0.8501067979647045
6.21,5.79,0.2,0.05376992091361367,0.4953688626265118,0.06238240495631374,0.7906696203261063,0.11353111394230862,0.8505156357459343
6.271,5.84,0.22,0.05341838179601141,0.4966060061348594,0.06204698494333018,0.7915299808176146,0.11293721663270927,0.8509153687584028
6.333,5.9,0.21,0.053064475994816486,0.49776802842547463,0.06169640995654686,0.7924121684186781,0.1123095797500293,0.8513066445328943
6.394,5.95,0.2,0.05270788749021185,0.4988561534853199,0.06133060108034386,0.7933155578244797,0.1116481733804454,0.8516901102757695
6.476,6.01,0.22,0.052348312042791334,0.49987160703069805,0.06094949688641852,0.7942395172348189,0.11095300232414788,0.8520664121950469
6.496,6.06,0.22,0.051985457502942485,0.5008156153286716,0.060553053595342535,0.795183408913205,0.11022410645293232,0.8524361948304058
6.559,6.12,0.19,0.051619044102252494,0.5016894040601714,0.0601412452190624,0.7961465897446568,0.10946156103306363,0.8528001003877179
6.6,6.17,0.19,0.0512488047270882,0.502494197225087,0.05971406368438043,0.7971284117914537,0.10866547701287103,0.8531587680787258
6.662,6.23,0.19,0.05087448517449612,0.5032312160895722,0.059271518937463456,0.7981282228460959,0.10783600127455069,0.8535128334664959
6.702,6.28,0.17,0.05049584439053649,0.503901678175792,0.05881363902941297,0.7991453669807579,0.10697331684965763,0.8538629278172825
6.763,6.34,0.16,0.05011265469112488,0.5045067962943423,0.05834047018290745,0.8001791850925639,0.10607764309775473,0.8542096774594541
6.844,6.39,0.19,0.04972470196542597,0.5050477776195629,0.05785207683989619,0.8012290154440571,0.10514923584766624,0.8545537031501372
6.865,6.45,0.18,0.049331785861832844,0.5055258228079301,0.05734854169028961,0.8022941941982729,0.10418838750076422,0.8548956194502154
6.927,6.5,0.18,0.048933719956557334,0.5059421251596624,0.05682996568156361,0.8033740559478761,0.10319542709570727,0.8552360341083091
6.989,6.56,0.21,0.048530331904841906,0.5062978698236424,0.05629646800918329,0.804467934237825,0.10217072033406163,0.8555755474543447
7.052,6.61,0.22,0.048121463574783155,0.5065942330457314,0.05574818608776203,0.8055751620810327,0.10111466956626784,0.8559147518033114
7.156,6.67,0.22,0.047706971163734437,0.5068323814605371,0.05518527550289567,0.8066950724664858,0.10002771373746548,0.8562542308698029
7.177,6.72,0.23,0.04728672529723184,0.5070134714266769,0.054607909943640086,0.8078269988592979,0.09891032829275162,0.8565945591939607
7.219,6.78,0.24,0.0468606111103799,0.5071386484055375,0.05401628111562991,0.8089702756922338,0.0977630250415242,0.8569363015794453
7.302,6.83,0.22,0.04642852831165928,0.5072090463834555,0.05341059863487255,0.8101242388483043,0.09658635198064147,0.8572800125440766
7.323,6.89,0.21,0.04599039122917028,0.507225787337139,0.052791089902290735,0.8112882261341096,0.09538089307620161,0.8576262357838054
7.363,6.94,0.21,0.04554612883938835,0.5071899807420224,0.05215799995912569,0.8124615777436747,0.09414726800380634,0.8579755036507171
7.425,7.0,0.18,0.04509568477856635,0.5071027231231316,0.0515115913233499,0.8136436367125655,0.09288613184720654,0.8583283366458113
7.508,7.05,0.16,0.044639017336958096,0.5069650976479234,0.05085214380727008,0.8148337493620499,0.0915981747552363,0.8586852429273635
7.527,7.11,0.18,0.044176099436051997,0.5067781737604883,0.05017995431651813,0.816031265733032,0.09028412155693116,0.8590467178357121
7.588,7.16,0.18,0.043706918589004336,0.5065430068564403,0.04949533663063019,0.8172355400093952,0.08894473133470544,0.8594132434353388
7.65,7.22,0.17,0.04323147684445674,0.5062606379977374,0.04879862116540365,0.8184459309303057,0.08758079695544153,0.8597852880750984
7.691,7.27,0.19,0.042749790713906506,0.5059320936666206,0.04809015471720638,0.8196618021909398,0.08619314455933536,0.8601633059674193
7.752,7.33,0.2,0.042261891082777274,0.5055583855578136,0.047370300189405766,0.8208825228310423,0.08478263300635384,0.8605477367872318
7.815,7.38,0.24,0.041767823105319915,0.5051405104080838,0.04663943630109441,0.8221074676106915,0.08335015328019452,0.8609390052913436
7.877,7.44,0.25,0.041267646083467086,0.5046794498622376,0.04589795727830573,0.8233360173726653,0.0818966278496947,0.861337520958931
7.918,7.49,0.27,0.04076143332977115,0.5041761703745786,0.04514627252793137,0.8245675593909023,0.08042300998772929,0.8617436776537515
7.979,7.55,0.26,0.04024927201457067,0.5036316231448229,0.04438480629457427,0.8258014877046723,0.07893028304776135,0.8621578533085373
8.021,7.6,0.27,0.03973126299754441,0.503046744087436,0.04361399730059477,0.8270372034382107,0.07741945969835425,0.8625804096318604
8.084,7.66,0.28,0.03920752064382139,0.502422453833363,0.042834298369630174,0.8282741151056814,0.07589158111609205,0.8630116918376048
8.167,7.71,0.26,0.038678172624827575,0.5017596577631439,0.04204617603389386,0.829511638901418,0.07434771613747383,0.8634520283970838
8.23,7.77,0.25,0.03814335970405588,0.5010592460704613,0.04125011012558795,0.8307491989754224,0.07278896037044294,0.8639017308137735
8.251,7.82,0.25,0.037603235507932445,0.5003220938552663,0.040446593352784874,0.8319862276941282,0.07121643526629291,0.8643610934205671
8.292,7.88,0.23,0.03705796628192343,0.4995490612457444,0.03963613086014487,0.8332221658864666,0.06963128715275191,0.864830393199422
8.395,7.93,0.21,0.03650773063199547,0.4987409935484748,0.03881923977483281,0.8344564630753178,0.06803468622908483,0.8653098896232737
8.415,7.99,0.26,0.035952719251517926,0.4978987214261872,0.03799644873797393,0.8356885776945356,0.06642782552407384,0.8657998245201233
8.476,8.04,0.27,0.035393134633676784,0.4970230611025104,0.037168297421953295,0.8369179772918405,0.06481191981775893,0.8663004219592414
8.517,8.1,0.27,0.034829190769467194,0.4961148145930666,0.03633533603383587,0.8381441387179918,0.06318820452786081,0.8668118881594
8.622,8.15,0.26,0.0342611128313413,0.49517476996218507,0.03549812480516928,0.8393665483027143,0.0615579345618894,0.8673344114189406
8.642,8.21,0.28,0.03368913684261262,0.4942037016044184,0.03465723346843213,0.8405847020179337,0.05992238313605759,0.8678681620673204
8.706,8.26,0.27,0.03311350933275197,0.4932023705499434,0.03381324072040705,0.8417981056289203,0.05828284056224419,0.8684132924376506
8.766,8.32,0.26,0.03253448697874266,0.49217152479282195,0.032966733672785554,0.8430062748339956,0.056640613004357146,0.868969936859696
8.807,8.37,0.27,0.03195233623269978,0.4911118996409854,0.03211830729034865,0.8442087353934795,0.05499702120554309,0.8695382116727988
8.867,8.43,0.27,0.031367332936016346,0.4900242180866722,0.0312685638171209,0.8454050232485475,0.05335339918777738,0.8701182152582098
8.968,8.48,0.24,0.030779761920379612,0.4889091911958691,0.030418112190974567,0.8465946846306084,0.051711092925453936,0.870710028090323
8.988,8.54,0.23,0.030189916596083582,0.4877675185151376,0.029567567447245518,0.847777276161735,0.050071458994673,0.8713137128063244
9.03,8.59,0.22,0.029598098528118538,0.48659988849407526,0.028717550111991726,0.8489523649466457,0.04843586319999348,0.8719293142937945
9.091,8.65,0.19,0.02900461700053624,0.4854069789215865,0.02786868558556625,0.8501195286567448,0.04680567918046591,0.8725568597958353
9.152,8.7,0.17,0.028409788569585065,0.4841894573741004,0.027021603517191652,0.8512783556067848,0.04518228699679033,0.8731963590333366
9.194,8.76,0.17,0.02781393660612315,0.48294798167380604,0.02617693717122553,0.8524284448247391,0.04356707170145679,0.8738478043440316
9.256,8.81,0.15,0.02721739082788095,0.4816832003548568,0.0253353227858095,0.8535694061154432,0.041961421893728645,0.8745111708380021
9.337,8.87,0.14,0.026620486822247817,0.480395753135329,0.0244973989245953,0.8547008601184611,0.04036672826132722,0.8751864165692846
9.358,8.92,0.15,0.02602356556036842,0.4790862713925799,0.02366380582223821,0.8558224383605381,0.03878438211067848,0.8758734827232111
9.398,8.98,0.14,0.02542697290342636,0.47775537863958667,0.02283518472434598,0.8569337833029044,0.03721577388759665,0.8765722938190943
9.46,9.03,0.11,0.024831059102051575,0.47640369099988417,0.022012177222576243,0.8580345483836629,0.035662291690303924,0.8772827579278512
9.522,9.09,0.11,0.024236178289812477,0.47503181767886243,0.02119542458558545,0.8591243980554925,0.03412531977671596,0.878004766904141
9.585,9.14,0.11,0.02364268797175579,0.4736403614294074,0.020385567086553227,0.8602030078189308,0.03260623706795492,0.8787381966325886
9.626,9.2,0.08,0.02305094850893669,0.4722299190101542,0.019583243328039047,0.8612700642515393,0.031106415650076654,0.8794829072876588
9.708,9.25,0.06,0.02246132259982713,0.47080108163496076,0.01878908956496238,0.86232526503328,0.02962721927601519,0.8802387436067686
9.728,9.31,0.06,0.02187417475941467,0.469354435412541,0.01800373902652501,0.8633683189684815,0.028170001869763126,0.8810055351762325
9.789,9.36,0.03,0.021289870796749148,0.4678905617754573,0.017227821237918977,0.8643989460047736,0.026736106034818,0.8817830967296458
9.851,9.42,-0.0,0.020708777291683352,0.46641003789780205,0.016461961342686023,0.8654168772493297,0.025326861568928927,0.8825712284583018
9.911,9.47,-0.02,0.02013126107157178,0.4649134371009479,0.01570677942660592,0.8664218549826812,0.02394358398716996,0.8833697163332334
9.993,9.53,-0.04,0.019557688688711456,0.46340132924676175,0.014962889843983468,0.8674136326702871,0.022587573055342695,0.8841783324384437
10.014,9.58,-0.07,0.01898842589931188,0.4618742811176874,0.014230900547171488,0.8683919749719694,0.021260111335664834,0.8849968353148887
10.077,9.64,-0.05,0.018423837144765365,0.4603328567831229,0.013511412420113465,0.8693566577492897,0.01996246274664134,0.8858249703147499
10.138,9.69,-0.05,0.017864285035966484,0.4587776179515404,0.01280501861663365,0.8703074680709236,0.018695871138955527,0.8866624699655483
10.178,9.75,-0.06,0.017310129841409144,0.4572091243078271,0.012112303904161936,0.871244204216087,0.017461558889176925,0.8875090543436592
10.241,9.8,-0.05,0.016761728979776413,0.45562793383536,0.011433844013559125,0.8721666756761108,0.016260725513071776,0.8883644314568024
10.304,9.86,-0.04,0.016219436517743976,0.4540346031223577,0.010770204995703855,0.8730747031543363,0.015094546300323725,0.8892282976350924
10.344,9.91,-0.05,0.01568360267373271,0.45242968765209207,0.01012194258551386,0.8739681185645849,0.013964170972513118,0.8901003379302446
10.446,9.97,-0.06,0.015154573328330407,0.4508137420766243,0.009489601574096458,0.8748467650285258,0.01287072236625469,0.8909802265225417
10.467,10.02,-0.05,0.014632689542024374,0.44918732047392324,0.00887371518975351,0.8757104968722853,0.011815295143449322,0.8918676271351613
10.509,10.08,-0.09,0.014118287080768817,0.4475509765884498,0.00827480448860496,0.8765591796226248,0.010798954530658579,0.8927621934554648
10.571,10.13,-0.13,0.013611695949803633,0.4459052640554797,0.00769337775563617,0.8773926900029139,0.009822735089649681,0.8936635695628424
10.612,10.19,-0.15,0.013113239936073754,0.4442507366095462,0.007129929917010962,0.8782109159289915,0.008887639521175486,0.894571390362723
10.676,10.24,-0.16,0.012623236159568969,0.4425879482774193,0.006584941964521815,0.879013756504824,0.007994637504039438,0.8954852820263819
10.779,10.3,-0.22,0.012141994633893032,0.4409174535560558,0.006058880393059623,0.8798011220177453,0.007144664571443833,0.8964048624362158
10.801,10.35,-0.25,0.01166981783635892,0.4392398075759671,0.005552196651967306,0.8805729339330042,0.00633862102653844,0.8973297416361912
10.822,10.41,-0.27,0.011207000287892505,0.43755556625046704,0.005065326611097672,0.8813291248873582,0.005577370898987601,0.8982595222871815
10.883,10.46,-0.31,0.01075382814300887,0.43586528641127553,0.004598690042338511,0.8820696386814884,0.004861740944254791,0.899193800126886
10.945,10.52,-0.33,0.010310578790095604,0.43416952593096914,0.004152690117302386,0.8827944302710387,0.0041925196871645705,0.900132164433994
11.007,10.57,-0.32,0.009877520462194882,0.432468843832806,0.0037277129218157173,0.8835034657561057,0.003570456511155402,0.9010741984962124
11.07,10.63,-0.34,0.00945491185844023,0.43076380038846945,0.003324126987797177,0.8841967223690105,0.0029962607944989824,0.9020194800817374
11.172,10.68,-0.37,0.009043001776293896,0.42905495720426096,0.0029422828430933404,0.8848741884601495,0.0024706010946452207,0.9029675819137106
11.192,10.74,-0.36,0.008642028754765899,0.42734287729618137,0.0025825125798326154,0.8855358634816842,0.0019941043817593776,0.903918072147153
11.232,10.79,-0.37,0.008252220728881154,0.42562812515418286,0.0022451294418633955,0.8861817579687447,0.001567355322444215,0.9048705148478282
11.314,10.85,-0.4,0.007873794695779597,0.4239112667956727,0.0019304274318538337,0.8868118935177426,0.0011908956145732612,0.9058244704724517
11.334,10.9,-0.4,0.00750695639295292,0.4221928698081729,0.0016386809386413775,0.8874263027612992,0.0008652233740985744,0.9067794963496496
11.374,10.96,-0.41,0.007151899989220875,0.42047350338091505,0.0013701443854324173,0.8880250293392271,0.0005907925746320734,0.9077351471610662
11.435,11.01,-0.45,0.006808807789119093,0.41875373832506363,0.0011250518994674152,0.8886081278649486,0.00036801254052786663,0.9086909754220318
11.538,11.07,-0.48,0.006477849951392427,0.41703414708224845,0.0009036170037750185,0.8891756638866924,0.0001972474941082491,0.9096465319612133
11.558,11.12,-0.49,0.006159184222258971,0.41531530372116315,0.000706032331628642,0.8897277138428134,7.881615757807504e-05,0.9106013663986756
11.6,11.18,-0.52,0.005852955684046614,0.4135977839221497,0.0005324693642878681,0.8902643650106067,1.2991410054665985e-05,0.9115550276217805
11.662,11.23,-0.54,0.005559296519720783,0.4118821649499024,0.0003830781925546006,0.8907857154480427,0.0,0.9125070642583354
11.724,11.29,-0.53,0.005278325793735525,0.4101690256146349,0.00025798730260469434,0.8912918739279019,4.002231318974196e-05,0.9134570251463857
11.807,11.34,-0.53,0.005010149249572278,0.4084589462221993,0.00015730338648140284,0.8917829598638574,0.00013319219620212827,0.9144044598000277
11.847,11.4,-0.54,0.0047548591242962904,0.4067525085136925,8.11111775626112e-05,0.8922591032281251,0.00027959683527399663,0.9153489188706007
11.91,11.45,-0.52,0.004512533980456558,0.4050502955950507,2.9473311241266935e-05,0.8927204444603811,0.00047927669026245456,0.9162899546026197
11.931,11.51,-0.51,0.004283238555672082,0.40335289185704876,2.4302109977321715e-06,0.8931671343677506,0.0007322254833724123,0.917227121283813
11.993,11.56,-0.54,0.004067023630268983,0.40166088288602897,0.0,0.8935993340157551,0.001038390242254579,0.9181599756886291
12.055,11.62,-0.54,0.0038639259133436384,0.3999748553656058,2.2178438335615797e-05,0.8940172146101913,0.0013976713970351503,0.9190880775146184
12.117,11.67,-0.52,0.003673967947620313,0.3982953969695494,6.893888595146448e-05,0.894420957370011,0.0018099229307948818,0.9200109898111418
12.157,11.73,-0.54,0.003497158033445779,0.3966230962460392,0.00014023229135416923,0.894810753391348,0.0022749525829585562,0.9209282793999587
12.28,11.78,-0.55,0.0033334901722223372,0.3949585424934843,0.0002359872060979942,0.8951868035029176,0.002792522104985768,0.9218395172873605
12.301,11.84,-0.53,0.0031829440295408394,0.3933023256280969,0.0003561098250556059,0.8955493181130556,0.003362347567683242,0.9227442790675949
12.341,11.89,-0.55,0.003045484918257736,0.3916550360433264,0.0005004840524350425,0.8958985170486594,0.003984099719390233,0.9236421453173426
12.361,11.95,-0.57,0.002921063801767955,0.3900172644611341,0.0006689715934715924,0.8962346293862412,0.0046574043942183814,0.924532701980971
12.423,12.0,-0.56,0.0028096173177414455,0.3883896017749372,0.000861412071675047,0.8965578932752253,0.00538184296945046,0.9254155407462358
12.486,12.06,-0.54,0.0027110678226040133,0.38677263888391644,0.0010776231714503023,0.8968685557535795,0.006156952871118198,0.9262902594100364
12.547,12.11,-0.55,0.002625323457049524,0.3851669665182721,0.0013174008058427853,0.8971668725558333,0.006982228126687815,0.9271564622338033
12.669,12.17,-0.53,0.0025522782328710495,0.38357317505492544,0.0015805193090992287,0.8974531079135561,0.007857119963696419,0.9280137602880956
12.69,12.22,-0.5,0.0024918121413981787,0.38199185432310695,0.0018667316536927028,0.8977275343484137,0.008781037453119676,0.928861771785998
12.711,12.28,-0.49,0.0024437912838328525,0.3804235933992126,0.002175769691449948,0.897990432457948,0.009753348196213912,0.9297001224049438
12.772,12.33,-0.49,0.0024080680237922366,0.37886898039025907,0.0025073444184347416,0.8982420906942004,0.010773379053559401,0.9305284455966027
12.814,12.39,-0.46,0.0023844811623860186,0.3773286022052124,0.002861146263266974,0.8984828051352187,0.011840416915033639,0.9313463828845028
12.875,12.44,-0.48,0.0023728561361395528,0.3758030443134663,0.0032368453985769864,0.8987128792494397,0.012953709509456316,0.9321535841490365
12.937,12.5,-0.48,0.002373005237951306,0.3742928904899086,0.003634092075295948,0.8989326236529157,0.014112466252659273,0.9329497078995077
13.017,12.55,-0.47,0.002384727861008281,0.37279872254638413,0.004052516979461948,0.899142355859398,0.015315859132731351,0.9337344215328865
13.038,12.61,-0.46,0.0024078107652564596,0.3713211200498143,0.004491731611188763,0.8993424000233138,0.01656302363116605,0.9345074015789882
13.08,12.66,-0.48,0.002442028365769188,0.3698606600275598,0.0049513286854028695,0.8995330866757106,0.01785305967860191,0.9352683339318494
13.141,12.72,-0.49,0.0024871430422207666,0.3684179166607354,0.005430882553888698,0.8997147524532553,0.019185032643800486,0.9360169140671272
13.203,12.77,-0.49,0.0025429054686065223,0.36699346096620233,0.005929949648080609,0.8998877398204812,0.020557974354456998,0.9367528472453764
13.265,12.83,-0.5,0.002609054962300799,0.365587860467955,0.006448068941913165,0.9000523967856049,0.0219708841483756,0.937475848701089
13.306,12.88,-0.49,0.002685319851499647,0.3642016788586133,0.006984762433915969,0.9002090766103799,0.023422729953461546,0.9381856438174275
13.409,12.94,-0.46,0.0027714178600646605,0.36283547565171465,0.0075395356476398315,0.9003581375145847,0.02491244939489422,0.9388819682866357
13.429,12.99,-0.45,0.002867056508772192,0.36148980582547274,0.00811187814943942,0.9004999423758103,0.026438950927763945,0.9395645682561777
13.47,13.05,-0.44,0.0029719335319753027,0.3601652194586405,0.008701264082606618,0.9006348584252437,0.02800111499339606,0.9402332004607088
13.531,13.1,-0.39,0.0030857373087079354,0.3588622613590586,0.009307152716838157,0.9007632569401649,0.02959779519755864,0.940887632340033
13.573,13.16,-0.38,0.0032081473073078343,0.3575814706853947,0.009928989012027815,0.9008855129338671,0.03122781950875325,0.9415276421432406
13.634,13.21,-0.37,0.003338834542696577,0.35632338056248675,0.01056620419539276,0.901002004843717,0.03288999147481281,0.942153019019255
13.716,13.27,-0.34,0.0034774620455079643,0.3550885176906314,0.011218216350967782,0.9011131142180816,0.03458309145607138,0.9427635630940643
13.758,13.32,-0.32,0.003623685342287496,0.353877401949132,0.011884431020535206,0.9012192254028508,0.036305877873420954,0.9433590855349416
13.819,13.38,-0.33,0.0037771529459891574,0.35269054599443395,0.012564241815114247,0.901320725228198,0.0380570884696195,0.9439394086020054
13.861,13.43,-0.32,0.0039375068559717,0.3515284548532336,0.013257031036213077,0.9014180026960381,0.03983544158225738,0.9445043656875232
13.923,13.49,-0.3,0.00410438306665761,0.3503916255110214,0.01396217030613229,0.9015114486684017,0.041639637426821544,0.9450538013434205
13.984,13.54,-0.32,0.004277412083985642,0.34928054649657814,0.014679021206673293,0.9016014555567669,0.04346835938831352,0.9455875712975133
14.025,13.6,-0.32,0.004456219448770515,0.34819569746295675,0.015406935925631242,0.9016884170123057,0.045320275319875904,0.9461055424590168
14.107,13.65,-0.29,0.00464042626607917,0.3471375487654645,0.01614525791044536,0.9017727276169708,0.047194038846869006,0.9466075929139018
14.15,13.71,-0.27,0.004829649739734538,0.3461065610371195,0.016893322528356357,0.9018547825752967,0.04908829067481963,0.9470936119106341
14.191,13.76,-0.27,0.005023503711050614,0.3451031847620274,0.017650457732389442,0.9019349774067428,0.05100165989964224,0.9475634998367943
14.252,13.82,-0.23,0.005221599200885137,0.34412785984711114,0.01841598473244965,0.9020137076383635,0.05293276531852375,0.9480171681870203
14.293,13.87,-0.2,0.005423544954082929,0.34318101519262334,0.01918921867080062,0.9020913684975775,0.05488021673987829,0.9484545395226618
14.354,13.93,-0.2,0.0056289479853878655,0.3422630682618587,0.019969469301206737,0.9021683546047954,0.056842616290816245,0.9488755474234954
14.498,13.98,-0.18,0.0058374141259179835,0.3413744246504992,0.02075604167104457,0.9022450596656874,0.058818559720627606,0.9492801364318323
14.518,14.04,-0.14,0.0060485485693155755,0.34051547765606394,0.021548236805726494,0.9023218761629299,0.06080663769884814,0.949668261989359
14.539,14.09,-0.13,0.006261956416696419,0.3396866078480032,0.02234535239481856,0.9023991950473612,0.06280543710654643,0.9500398903670892
14.58,14.15,-0.12,0.006477243219522497,0.3388881826390629,0.023146683479250973,0.9024774054286119,0.06481354231953895,0.9503949985888478
14.662,14.2,-0.09,0.006694015519514269,0.338120555858637,0.023951523138994114,0.9025568942654435,0.06682953648231103,0.9507335743487519
14.682,14.26,-0.1,0.0069118813847201255,0.33738406732889553,0.024759163180523014,0.9026380460562143,0.06885200277149346,0.9510556159231685
14.743,14.31,-0.11,0.007130450940879847,0.3366790424445,0.025568894823348204,0.9027212425299936,0.07087952564781073,0.9513611320776211
14.783,14.37,-0.09,0.007349336897238786,0.3360057917567211,0.026380009384862322,0.9028068623389173,0.07291069209546784,0.9516501419691197
14.844,14.42,-0.08,0.007568155065974241,0.335364610562779,0.02719179896273582,0.9028952807523949,0.07494409284797691,0.9519226750443731
14.906,14.48,-0.08,0.007786524874380862,0.33475577850124694,0.0280035571140822,0.902986869353784,0.07697832359943878,0.9521787709343531
14.968,14.53,-0.05,0.00800406986893755,0.3341795591543922,0.02881457953060035,0.9030819957401398,0.07901198620029992,0.9524184793456791
15.029,14.59,-0.03,0.00822041821035828,0.3336361996583726,0.0296241647088952,0.903181023225648,0.08104368983661549,0.9526418599492813
15.07,14.64,-0.03,0.008435203158726791,0.3331259303222395,0.03043161461518406,0.9032843105493468,0.08307205219187537,0.9528489822667904
15.132,14.7,-0.01,0.008648063547838343,0.3326489642567126,0.03123623534361401,0.9033922115877763,0.08509570059049197,0.953039925555085
15.215,14.75,0.02,0.008858644247929202,0.3322054970136644,0.032037337767445516,0.9035050750732196,0.0871132731221062,0.953214778689402
15.236,14.81,0.02,0.009066596616066062,0.331795706237174,0.03283423818240184,0.9036232443181997,0.08912341974593019,0.9533736400454027
15.297,14.86,0.02,0.009271578933571802,0.331419751326909,0.03362625894153472,0.90374705694686,0.09112480337440639,0.9535166173805596
15.358,14.92,0.05,0.009473256829958225,0.3310777731145057,0.03441272908100562,0.9038768446337964,0.09311610093552078,0.9536438277152008
15.399,14.97,0.05,0.00967130369291036,0.3307698935535451,0.035192984936231776,0.9040129328508137,0.09509600441316499,0.9537553972135158
15.46,15.03,0.03,0.009865401063916502,0.33049621542366525,0.0359663707478975,0.9041556406219582,0.09706322186499364,0.9538514610647856
15.5,15.08,0.04,0.010055239019164696,0.3302568220493097,0.036732239257376356,0.9043052802870452,0.0990164784172684,0.9539321633650656
15.582,15.14,0.05,0.010240516535342603,0.33005177703356575,0.03748995229114527,0.9044621572738105,0.10095451723621576,0.9539976569995055
15.623,15.19,0.04,0.010420941839992514,0.32988112400750813,0.03823888133379468,0.9046265698787489,0.10287610047543914,0.9540481035254571
15.663,15.25,0.04,0.010596232746084556,0.3297448863954419,0.03897840808924095,0.9047988090566751,0.10478001019892356,0.9540836730565039
15.724,15.3,0.06,0.010766116970473074,0.329643067196449,0.039707925029727906,0.9049791582190653,0.10666504927916004,0.9541045441475227
15.786,15.36,0.06,0.01093033243588664,0.32957564878267953,0.04042683593217645,0.9051678930412604,0.1085300422699093,0.954110903680878
15.849,15.41,0.07,0.011088627556064278,0.32954259271489666,0.04113455640141425,0.905365281278666,0.1103738362531206,0.9541029467538419
15.973,15.47,0.11,0.01124076150360172,0.3295438395758665,0.04183051437980142,0.9055715825921421,0.11219530165952685,0.954080876567343
15.993,15.52,0.12,0.011386504460040955,0.329579308822257,0.04251415064276816,0.9057870483828258,0.11399333306245683,0.9540449043161422
16.013,15.58,0.11,0.011525637847742918,0.3296488986557326,0.043184919279795606,0.9060119216366218,0.11576684994444236,0.9539952490804935
16.075,15.63,0.14,0.011657954543119351,0.3297524859139183,0.043842288160391464,0.9062464367785877,0.11751479743625465,0.9539321377192841
16.137,15.69,0.15,0.011783259070845715,0.32988992598187433,0.044485739384638685,0.906490819537413,0.11923614702806422,0.9538558047645807
16.179,15.74,0.13,0.011901367778716875,0.3300610527246989,0.04511476971793051,0.9067452868201484,0.12092989725247492,0.9537664923174674
16.242,15.8,0.14,0.012012108992839866,0.33026567844185784,0.045728891009544984,0.9070100465973101,0.12259507433922565,0.9536644499450321
16.323,15.85,0.15,0.012115323152900623,0.3305035938438167,0.046327630594755,0.9072852977984165,0.12423073284138958,0.9535499345783431
16.343,15.91,0.13,0.012210862927312875,0.3307745680514774,0.046910531680216194,0.9075712302179453,0.12583595623292368,0.9534232104112272
16.384,15.96,0.12,0.012298593308169922,0.33107834861878693,0.04747715371242065,0.9078680244315814,0.1274098574774292,0.9532845487996361
16.446,16.02,0.15,0.012378391686072195,0.3314146615786736,0.04802707272904372,0.90817585172249,0.12895157956797856,0.9531342281613525
16.508,16.07,0.15,0.01245014790506406,0.33178321151223217,0.04855988169304025,0.908494874017218,0.130460296037846,0.952972533875741
16.549,16.13,0.14,0.01251376429803857,0.33218368164089035,0.04907519080935652,0.9088252438307236,0.13193521144195694,0.9527997581832047
16.631,16.18,0.18,0.012569155703051386,0.33261573394117655,0.04957262782412032,0.9091671042199572,0.13337556180885518,0.9526162000839675
16.714,16.24,0.19,0.01261624946104816,0.3330790092816352,0.05005183830617264,0.909520588745371,0.13478061506299205,0.9524221652357588
16.734,16.29,0.19,0.012654985395562087,0.333573127581386,0.050512485910820804,0.9098858214396889,0.1361496714171604,0.9522179658499503
16.775,16.35,0.21,0.012685315774972759,0.334097687989801,0.05095425262571576,0.9102629167832609,0.13748206373493038,0.9520039205856817
16.836,16.4,0.23,0.012707205257934753,0.33465226908678597,0.05137683899877292,0.9106519796853754,0.1387771578629887,0.9517803544415319
16.898,16.46,0.22,0.012720630822587491,0.33523642910319995,0.05177996434805968,0.9110531054710114,0.14003435293333297,0.9515475986443052
16.94,16.51,0.22,0.01272558168013996,0.33584970616102233,0.052163366953565805,0.9114663798726553,0.14125308163532155,0.9513059905345554
17.002,16.57,0.25,0.012722059173380512,0.33649161853296994,0.05252680423077014,0.9118918790269527,0.1424328104576255,0.9510558734484919
17.044,16.62,0.24,0.012710076660600056,0.3371616649213413,0.052870052885932946,0.9123296694760398,0.14357303990017034,0.9507975965959433
17.106,16.68,0.22,0.012689659385354582,0.3378593247559104,0.05319290905306652,0.9127798081734259,0.1446733046561849,0.9505315149340536
17.17,16.73,0.23,0.012660844332454393,0.3385840585106852,0.05349518841255492,0.9132423424942743,0.1457331737644997,0.9502579890363619
17.212,16.79,0.23,0.012623680070561069,0.33933530803931206,0.05377672629140501,0.91371731024988,0.14675225073224868,0.9499773849568832
17.293,16.84,0.23,0.012578226581788657,0.34011249692884227,0.05403737774512317,0.914204739706025,0.14773017362812246,0.9496900740887747
17.353,16.9,0.22,0.012524555078727738,0.3409150308715076,0.054277017621229495,0.9147046496047413,0.1486666151463046,0.9493964330171428
17.416,16.95,0.24,0.01246274780934661,0.341742298054074,0.054495540604449284,0.915217049188832,0.1495612826412038,0.9490968433655537
17.436,17.01,0.22,0.012392897850265885,0.34259366956427023,0.05469286124365715,0.9157419382283799,0.15041391813308153,0.9487916916358016
17.498,17.06,0.24,0.012315108888925704,0.3434684998137742,0.05486891396068375,0.9162793070484405,0.15122429828466613,0.9484813690405483
17.538,17.12,0.27,0.012229494995155488,0.3443661269772983,0.05502365304112635,0.9168291365571829,0.15199223434883985,0.948166271328503
17.601,17.17,0.27,0.012136180382635902,0.3452858734474048,0.05515705260733682,0.917391398273851,0.15271757208748724,0.947846798601914
17.664,17.23,0.28,0.012035299160734937,0.34622704630475315,0.05526910657378831,0.9179660543560435,0.15340019166160873,0.9475233551262218
17.706,17.28,0.31,0.011926995077210777,0.3471889378035021,0.055359828585037095,0.918553057625965,0.15404000749284075,0.9471963491317849
17.79,17.34,0.3,0.011811421252296934,0.348170825871576,0.055429251936502964,0.9191523515954487,0.15463696809657246,0.9468661926076105
17.81,17.39,0.29,0.011688739904704388,0.34917197462547317,0.055477429478293046,0.9197638704896834,0.1551910558869106,0.9465333010870304
17.871,17.45,0.3,0.011559122070083734,0.35019163489926264,0.0555044335022938,0.920387539269682,0.15570228695379346,0.9461980934252521
17.952,17.5,0.3,0.011422747312491946,0.3512290447873886,0.055510355612763865,0.9210232736535932,0.1561707108125963,0.9458609915687322
18.014,17.56,0.28,0.011279803429404813,0.35228343020087255,0.05549530658067016,0.9216709801369736,0.15659641012658398,0.9455224203163353
18.035,17.61,0.3,0.011130486150802097,0.35335400543648815,0.055459416182010994,0.9223305560121696,0.15697950040256853,0.945182807072287
18.097,17.67,0.31,0.010974998832827295,0.3544399737584857,0.0554028330203545,0.9230018893870101,0.15732012966012118,0.94484258159097
18.16,17.72,0.31,0.010813552146492152,0.35554052799246433,0.05532572433380053,0.9236848592030854,0.15761847807468277,0.9445021757136396
18.222,17.78,0.31,0.010646363761860277,0.3566548511310292,0.055228275786555356,0.9243793352539629,0.1578747575949164,0.9441620230971521
18.284,17.83,0.35,0.010473658028115737,0.35778211695091605,0.05511069124530345,0.9250851782037468,0.15808921153466013,0.9438225589348069
18.325,17.89,0.35,0.010295665649917395,0.3589214906412836,0.05497319254057668,0.9258022396064118,0.15826211413986657,0.9434842196694118
18.408,17.94,0.35,0.010112623360461826,0.360072129442847,0.05481601921335519,0.9265303619263219,0.1583937701309555,0.9431474426986856
18.428,18.0,0.37,0.009924773591714932,0.36123318329746257,0.05463942824717077,0.927269378560276,0.15848451422105764,0.9428126660731114
18.53,18.05,0.38,0.009732364142308837,0.3624037955076968,0.05444369378601426,0.928019113861389,0.15853471061068344,0.9424803281863344
18.55,18.11,0.36,0.009535647843624255,0.3635831034058525,0.05422910683836,0.9287793831650908,0.15854475245940808,0.9421508674581913
18.591,18.16,0.37,0.009334882224583464,0.36477023903188627,0.05399597496760954,0.9295499928175772,0.15851506133521143,0.941824722010459
18.653,18.22,0.37,0.009130329175672417,0.3659643298196353,0.053744621969238744,0.9303307402071205,0.1584460866421587,0.9415023293354207
18.694,18.27,0.35,0.008922254612695704,0.3671644992907589,0.05347538753492147,0.9311214137987226,0.15833830502713872,0.9411841259573759
18.756,18.33,0.33,0.00871092814074645,0.3683698677558025,0.053188626903899146,0.9319217931726538,0.1581922197663961,0.9408705470872755
18.817,18.38,0.34,0.008496622718846889,0.3695795530217942,0.052884710501863684,0.9327316490674764,0.15800836013259295,0.9405620262707302
18.899,18.44,0.33,0.008279614325688996,0.3707926711057806,0.05256402356762013,0.9335507434281676,0.15778728074311937,0.9402589950297127
18.92,18.49,0.34,0.008060181626876679,0.3720083369536989,0.05222696576778389,0.9343788294599616,0.1575295608903445,0.9399618824983331
18.961,18.55,0.36,0.007838605644046837,0.3732256651639552,0.051873950799744495,0.9352156516885162,0.15723580385447317,0.9396711150531131
19.024,18.6,0.36,0.007615169426237579,0.374443770715033,0.051505405983109806,0.9360609460269783,0.15690663619966838,0.9393871159381948
19.085,18.66,0.36,0.007390157723875884,0.37566176969639326,0.05112177183984471,0.9369144398504796,0.15654270705411463,0.9391103048859398
19.146,18.71,0.37,0.00716385666576464,0.3768787800418684,0.050723501663339034,0.9377758520785199,0.1561446873747305,0.9388410977333815
19.188,18.77,0.38,0.006936553439449624,0.3780939222647074,0.050311061076679854,0.9386448932656462,0.15571326919728126,0.9385799060350255
19.312,18.82,0.37,0.006708535975325558,0.3793063201934105,0.04988492758045777,0.9395212657007596,0.15524916487267895,0.938327136672541
19.332,18.88,0.37,0.006480092634786774,0.3805151017075113,0.049445590090490425,0.940404663515341,0.1547531062902959,0.9380831914619421
19.353,18.93,0.37,0.006251511902656877,0.381719399472509,0.04899354846589165,0.9412947728008759,0.15422584408915124,0.937848466758911
19.414,18.99,0.35,0.006023082084063248,0.3829183516732129,0.04852931302795019,0.942191271735764,0.15366814685786287,0.9376233530629503
19.475,19.04,0.33,0.005795091005866534,0.3841111027448228,0.04805340407030329,0.9430938307220088,0.15308080032427307,0.9374082346210801
19.535,19.1,0.34,0.005567825722719541,0.38529680410110323,0.04756635136089032,0.9440021125319806,0.15246460653565952,0.9372034890318054
19.617,19.15,0.32,0.005341572227828058,0.3864746148589853,0.04706869363615413,0.9449157724655252,0.15182038303042547,0.9370094868500677
19.638,19.21,0.3,0.005116615168521734,0.3876437025588281,0.04656097808792927,0.9458344585176396,0.15114896200213188,0.9368265911938753
19.679,19.26,0.31,0.004893237566810987,0.3888032438794032,0.04604375984342347,0.9467578115568469,0.1504511894566959,0.9366551573532634
19.741,19.32,0.32,0.004671720545189883,0.38995242534647123,0.0455176014386785,0.9476854655142872,0.14972792436353796,0.9364955324021994
19.803,19.37,0.3,0.004452343058011861,0.39109044403365434,0.04498307228589003,0.9486170475834184,0.14898003780142602,0.9363480548140147
19.865,19.43,0.31,0.004235381628782257,0.39221650825424254,0.0444407481349683,0.949552178430136,0.14820841209973928,0.9362130540809438
19.906,19.48,0.33,0.0040211100936739805,0.39332983824260387,0.04389121052973123,0.9504904724131125,0.14741393997587104,0.9360908503383544
20.008,19.54,0.32,0.0038097993515071207,0.39442966682396097,0.043335046259143785,0.9514315378141722,0.14659752366949466,0.935981753994291
20.029,19.59,0.31,0.003601717120368393,0.39551524007140915,0.04277284680404375,0.9523749770785696,0.14576007407443148,0.9358860653649937
20.07,19.65,0.33,0.003397127701000603,0.39658581794915987,0.0422052077798254,0.9533203870650948,0.14490250986888195,0.9358040743170978
20.133,19.7,0.32,0.003196291747059065,0.3976406749410817,0.041632728375594674,0.9542673593059552,0.14402575664480496,0.9357360599172343
20.174,19.76,0.3,0.0029994660422930936,0.3986791006636926,0.041056010790362724,0.9552154802763343,0.14313074603725395,0.9356822900897718
20.236,19.81,0.31,0.002806903284661683,0.39970040046283567,0.04047565966689113,0.9561643316734703,0.1422184148544925,0.9356430212834222
20.297,19.87,0.29,0.002618851877351284,0.4007038959933291,0.03989228152383153,0.9571134907050283,0.14128970420972387,0.935618498147409
20.36,19.92,0.26,0.002435555726642338,0.4016889257809267,0.03930648418680811,0.9580625303864975,0.14034555865526596,0.9356089532178625
20.421,19.98,0.25,0.0022572540465674077,0.40265484576594796,0.03871887621907564,0.9590110198473313,0.13938692531998892,0.9356146066150964
20.484,20.03,0.25,0.0020841811703183567,0.4036010298279387,0.03813006635236022,0.9599585246455437,0.1384147530507995,0.9356356657524078
20.547,20.09,0.24,0.00191656636838853,0.40452687029070145,0.037540662918466236,0.960904607090486,0.13742999155890379,0.9356723250570442
20.568,20.14,0.25,0.0017546336734659026,0.4054317784070051,0.03695127328220793,0.9618488265735138,0.13643359057151935,0.9357247657039662
20.63,20.2,0.26,0.0015986017121161857,0.40631518482226264,0.03636250327620317,0.9627907399062524,0.13542649898965645,0.9357931553629909
20.734,20.25,0.25,0.0014486835433069384,0.4071765400164628,0.03577495663805551,0.9637299016661434,0.13440966405255686,0.9358776479598292
20.755,20.31,0.25,0.0013050865038182224,0.40801531472368174,0.035189234450448935,0.964665864548934,0.13338403050937261,0.9359783834514361
20.796,20.36,0.26,0.0011680120605687557,0.40883100032856706,0.03460593458467774,0.9655981797278078,0.13235053979867306,0.9360954876160134
20.837,20.42,0.25,0.0010376556698729641,0.4096231092392612,0.034025651148132184,0.9665263972188963,0.13131012923638624,0.9362290718579277
20.898,20.47,0.25,0.0009142066436358438,0.4103911752362913,0.0334489739362555,0.9674500662529705,0.13026373121279186,0.9363792330277863
20.96,20.53,0.25,0.0007978480224820047,0.4111347537970163,0.03287648788947572,0.9683687356531592,0.1292122723991957,0.9365460532579042
21.021,20.58,0.25,0.0006887564558072358,0.4118534223952769,0.03230877255560789,0.9692819542185687,0.12815667296492603,0.9367295998134025
21.103,20.64,0.22,0.0005871020887483178,0.4125467807759305,0.031746401558230344,0.9701892711136664,0.12709784580530042,0.9369299249591949
21.124,20.69,0.22,0.0004930484560988689,0.4132144512039529,0.03118994207156431,0.9710902362632204,0.1260366957812107,0.937147065843121
21.226,20.75,0.23,0.0004067523832587245,0.4138560786877456,0.030639954302426352,0.9719844007524513,0.1249741189709681,0.9373810443955013
21.246,20.8,0.2,0.00032836389436271954,0.41447133117624974,0.030096990979865103,0.9728713172318901,0.1239110019350317,0.9376318672453791
21.287,20.86,0.17,0.0002580261277384832,0.41505989972950075,0.02956159685311479,0.9737505403262728,0.12284822099421584,0.9378995256537143
21.348,20.91,0.19,0.0001958752587844795,0.41562149866237574,0.02903430819848212,0.9746216270467348,0.12178664152193722,0.9381839954637583
21.389,20.97,0.18,0.00014204043028030253,0.4161558656614204,0.028515652335740896,0.9754841372055264,0.12072711725101944,0.9384852370687963
21.472,21.02,0.17,9.664369007444697e-05,0.41666276187473283,0.028006147154558056,0.9763376338324454,0.11967048959552133,0.9388031953973893
21.512,21.08,0.19,5.979993604400769e-05,0.41714197197494507,0.027506300651431653,0.9771816835921434,0.11861758698800996,0.9391377999161955
21.573,21.13,0.19,3.161686818344482e-05,0.4175933041953919,0.027016610477602017,0.9780158572014124,0.1175692242326698,0.9394889646504013
21.634,21.19,0.17,1.2194947645414114e-05,0.41801659033961774,0.026537563498401733,0.9788397298455094,0.11652620187462934,0.9398565882217639
21.696,21.24,0.19,1.627362510565168e-06,0.4184116857644626,0.026069635364516473,0.9796528815925605,0.11548930558589143,0.940240553904245
21.716,21.3,0.2,0.0,0.4187784693370987,0.02561329009561955,0.9804548978051436,0.11445930556826601,0.9406407296972114
21.776,21.35,0.18,7.391424778301695e-06,0.4191168433665299,0.025168979676817815,0.9812453695482484,0.11343695597372183,0.9410569684161711
21.858,21.41,0.17,2.3872862940110636e-05,0.41942673351019316,0.024737143668313758,0.9820238939929494,0.1124229943425935,0.941489107801014
21.88,21.46,0.18,4.950819125314851e-05,0.41970808865638987,0.024318208828665432,0.9827900748152268,0.11141814106009823,0.941936970641718
21.963,21.52,0.15,8.43539312561533e-05,0.41996088078328647,0.023912588752023574,0.983543522589428,0.11042309883162643,0.9424003649214685
22.024,21.57,0.12,0.00012845924786827198,0.420185104795178,0.02352068351973473,0.984283855175847,0.10943855217725972,0.9428790839771377
22.065,21.63,0.13,0.00018186595222153184,0.4203807783366365,0.02314287936670193,0.9850106981018618,0.1084651669459455,0.9433729066770538
22.128,21.68,0.16,0.0002446085084469867,0.42054794158512454,0.022779548362880948,0.9857236849360287,0.10750358984971699,0.9438815976159718
22.208,21.74,0.15,0.0003167140441112399,0.42068665702267005,0.022431048110258013,0.9864224576544954,0.10655444801830155,0.9444049073271212
22.229,21.79,0.16,0.00039820236393454613,0.42079700918726826,0.022097721455608378,0.9871066669990693,0.10561834857442501,0.9449425725111217
22.271,21.85,0.16,0.0004890859663745375,0.4208791044047345,0.021779896219292525,0.987775972826263,0.10469587823011615,0.9454943162814208
22.353,21.9,0.15,0.0005893700626695336,0.4209330705017653,0.021477884940322493,0.9884300444466152,0.10378760290434062,0.9460598484257338
22.414,21.96,0.14,0.0006990525979993563,0.42095905650099064,0.021191984637919437,0.9890685609535972,0.10289406736232538,0.9466388656828614
22.435,22.01,0.15,0.0008181242745063068,0.42095723229883225,0.020922476589777653,0.9896912115414723,0.10201579487695939,0.947231052034224
22.496,22.07,0.14,0.0009465685759829049,0.42092778832702943,0.020669626127248857,0.9902976958115582,0.10115328691266832,0.9478360790094887
22.558,22.12,0.11,0.0010843617940578302,0.4208709351987486,0.020433682447660695,0.9908877240664187,0.10030702283216213,0.9484536060057106
22.618,22.18,0.12,0.001231473055718586,0.4207869033402377,0.020214878443980427,0.9914610175915687,0.09947745962644931,0.9490832806194501
22.661,22.23,0.11,0.0013878643520358518,0.420675942608979,0.020013430552030042,0.9920173089242966,0.09866503166850056,0.9497247389913501
22.702,22.29,0.08,0.0015534905679999093,0.42053832189923795,0.019829538615451968,0.9925563421091779,0.09787015049091945,0.9503776061626666
22.764,22.34,0.07,0.0017282995134178024,0.4203743287358463,0.01966338576861124,0.9930778729398179,0.09709320458794524,0.9510414964432448
22.827,22.4,0.07,0.0019122319548343122,0.4201842688570209,0.019515138337602947,0.9935816691863472,0.0963345592420702,0.9517160137904321
22.888,22.45,0.04,0.0021052216484373017,0.41996846578699965,0.019384945759513765,0.9940675108081837,0.09559455637550127,0.9524007521984224
22.929,22.51,0.04,0.002307195373900045,0.4197272603992685,0.01927294052005599,0.9945351901516069,0.09487351442663175,0.9530952960975316
22.991,22.56,0.05,0.002518072969106682,0.4194610104711469,0.019179238109653194,0.9949845121317312,0.09417172825162433,0.9537992207629046
23.052,22.62,0.04,0.0027377673657043595,0.41917009023049134,0.01910393699801707,0.9954152943985148,0.09348946905114565,0.954512092732127
23.114,22.67,0.04,0.0029661846254204287,0.4188548898952864,0.019047118627218605,0.9958273674864916,0.09282698432224541,0.955233470231198
23.155,22.73,0.06,0.003203223977086215,0.41851581520689735,0.019008847423217116,0.9962205749480015,0.09218449783534156,0.9559629036083022
23.217,22.78,0.05,0.003448777854339584,0.41815328695773035,0.01898917082576123,0.9965947734698154,0.09156220963626055,0.9566999357747974
23.32,22.84,0.04,0.003702731934042351,0.417767740513968,0.018988119336511827,0.9969498329731543,0.09096029607328038,0.9574441026528032
23.341,22.89,0.05,0.003964965175547948,0.4173596253339024,0.01900570658517269,0.9972856366971774,0.09037890984912995,0.9581949336287455
23.362,22.95,0.05,0.004235349861088705,0.41692940448219673,0.019041929413381738,0.9976020812659697,0.0898181800979041,0.9589519520121799
23.423,23.0,0.02,0.0045137516376993585,0.41647755414018944,0.01909676797612286,0.9978990767389586,0.08927821248685212,0.9597146754992131
23.485,23.06,0.03,0.004800029561214396,0.4160045631121968,0.01917018586043912,0.998176546644576,0.08875908934298692,0.9604826166398737
23.526,23.11,0.02,0.0050940361429449065,0.4155109323276917,0.019262130221235966,0.9984344279969791,0.08826086980444818,0.9612552833088195
23.588,23.17,-0.01,0.005395617399656062,0.4149971743392393,0.019372531933950436,0.9986726712956919,0.08778358999653377,0.9620321791788072
23.692,23.22,-0.04,0.005704612907441101,0.41446381281611444,0.019501305763830974,0.9988912405081344,0.08732726323227888,0.9628128041963748
23.752,23.28,-0.03,0.006020855860047862,0.4139113820335731,0.019648350551529272,0.9990901130350879,0.08689188023741481,0.9635966550591838
23.793,23.33,-0.04,0.006344173132183114,0.4133404263577627,0.01981354941465679,0.9992692796591789,0.08647740939946666,0.9643832256944783
23.814,23.39,-0.06,0.006674385348311279,0.41275149972622216,0.01999676996490403,0.9994287444764698,0.0860837970406641,0.9651720077381052
23.857,23.44,-0.03,0.007011306957480315,0.4121451651238444,0.020197864540261776,0.9995685248112244,0.08571096771425478,0.965962491013545
23.918,23.5,-0.02,0.00735474631473209,0.4115219940540771,0.02041667045183423,0.9996886511139084,0.08535882452374252,0.9667541640103925
23.981,23.55,-0.03,0.007704505769633817,0.41088256600513956,0.020653010244700603,0.9997891668424694,0.08502724946452758,0.9675465143617367
24.024,23.61,-0.02,0.008060381762359074,0.41022746791118864,0.020906691972256995,0.9998701283269811,0.08471610378740402,0.9683390293199207
24.084,23.66,-0.01,0.008422164927575825,0.4095572936086443,0.021177509483450017,0.9999316046178296,0.08442522838337256,0.9691311962301694
24.145,23.72,-0.02,0.008789640206240368,0.40887264328814127,0.02146524272230131,0.9999736773177448,0.08415444418924056,0.9699225030016104
24.208,23.77,-0.02,0.0091625869652953,0.4081741229427427,0.021769658039126397,0.9999964403981018,0.08390355261349541,0.9707124385752377
24.249,23.83,-0.01,0.009540779125221374,0.4074623438131353,0.022090508512895794,1.0,0.08367233598194813,0.9715004933884221
24.311,23.88,-0.04,0.009923985295366186,0.4067379218305856,0.022427534284287436,0.9999844742206295,0.08346055800264761,0.9722861598356269
24.436,23.94,-0.05,0.010311968916938079,0.4060014770584884,0.02278046289910478,0.9999499928853887,0.08326796424955803,0.97306893272504
24.456,23.99,-0.04,0.010704488413510516,0.40525363313338725,0.02314900966182663,0.99989669730617,0.08309428266447062,0.9738483097308838
24.477,24.05,-0.05,0.0111012973488561,0.4044950167063482,0.02353287799909043,0.9998247400261867,0.08293922407658577,0.9746237918411864
24.518,24.1,-0.06,0.011502144591934445,0.4037262568855143,0.023931759832905724,0.9997342845516634,0.0828024827391563,0.9753948838008009
24.58,24.16,-0.05,0.011906774488882227,0.40294798468057463,0.024345335963364474,0.9996255050706755,0.08268373688253529,0.9761610945494219
24.662,24.21,-0.05,0.012314927041874106,0.4021608324497953,0.02477327646057184,0.9994985861594246,0.08258264928292884,0.9769219376542803
24.703,24.27,-0.06,0.012726338094725521,0.40136543335021185,0.025215241065476148,0.9993537224762796,0.08249886784611678,0.9776769317371139
24.765,24.32,-0.05,0.013140739525087652,0.4005624207915815,0.02567087959923969,0.9991911184439822,0.08243202620537514,0.9784256008949431
24.827,24.38,-0.03,0.013557859443050496,0.39975242789473203,0.026139832380770472,0.9990109879205088,0.0823817443328167,0.9791674751141626
24.848,24.43,-0.03,0.01397742239593024,0.3989360869550046,0.026621730652027848,0.9988135538591797,0.08234762916335704,0.979902090677491
24.909,24.49,-0.04,0.014399149578972729,0.3981140289115524,0.027116197010710125,0.9985990479587333,0.08232927523051008,0.9806289905633796
24.972,24.54,-0.02,0.014822759051659843,0.3972868828233147,0.027622845849918705,0.9983677103042027,0.08232626531322121,0.9813477248375416
25.033,24.6,-0.03,0.015247965959271097,0.3964552753525128,0.02814128380437097,0.9981197889995554,0.08233817109295567,0.9820578510362984
25.075,24.65,-0.04,0.015674482759335827,0.39561983025650377,0.028671110202703545,0.9978555397931469,0.08236455382026721,0.9827589345414689
25.137,24.71,-0.03,0.01610201945260874,0.3947811678887878,0.029211917525371396,0.9975752256971201,0.08240496499007634,0.9834505489465586
25.199,24.76,-0.03,0.016530283818211266,0.39393990470991436,0.029763291867622166,0.9972791166019318,0.0824589470248835,0.9841322764140364
25.261,24.82,-0.05,0.016958981652598806,0.3930966528089641,0.030324813407015885,0.9969674888871911,0.08252603396512961,0.9848037080235277
25.303,24.87,-0.05,0.017387817012037662,0.3922520194362069,0.030896056874959277,0.9966406250299691,0.08260575216589594,0.9854644441107988
25.365,24.93,-0.03,0.017816492458316385,0.39140660654743614,0.03147659203172131,0.9962988132116919,0.08269762099910918,0.9861140945974436
25.428,24.98,-0.04,0.018244709307483793,0.3905610103603456,0.032065984144400365,0.995942346924657,0.08280115356038764,0.9867522793112057
25.51,25.04,-0.04,0.018672167881493198,0.38971582092315477,0.03266379446733001,0.9955715245790667,0.08291585737963748,0.9873786282968752
25.53,25.09,-0.02,0.019098567762728363,0.38887162169552253,0.03326958072444342,0.9951866491112977,0.08304123513449299,0.9879927821176733
25.572,25.15,-0.02,0.019523608051488266,0.38802898914161565,0.03388289759316218,0.9947880275939298,0.08317678536569459,0.9885943921469944
25.634,25.2,-0.02,0.019946987626613785,0.3871884923350242,0.03450329718942496,0.9943759708478705,0.08332200319350228,0.9891831208503444
25.675,25.26,-0.0,0.02036840540954518,0.38635069257503096,0.03513032955351527,0.9939507930567578,0.08347638103425044,0.9897586420572853
25.736,25.31,0.01,0.02078756063219573,0.38551614301357234,0.0357635431363822,0.9935128113837209,0.08363940931616472,0.9903206412231911
25.798,25.37,-0.01,0.021204153109101294,0.3846853882920866,0.036402485286162564,0.9930623455905531,0.08381057719357875,0.9908688156806097
25.879,25.42,-0.01,0.02161788351434843,0.38385896418735255,0.03704670273460398,0.9925997176594157,0.08398937325870988,0.9914028748800412
25.899,25.48,-0.0,0.022028453663796556,0.38303739726537844,0.03769574208306549,0.9921252514173196,0.08417528625017213,0.9919225406199633
25.981,25.53,-0.02,0.0224355668030893,0.3822212045424127,0.038349150287750045,0.991639272163745,0.08436780575741477,0.9924275472659613
26.022,25.59,-0.04,0.022838927901878327,0.381410893152238,0.039006475143798194,0.9911421063018784,0.08456642292026892,0.9929176419588599
26.082,25.64,-0.02,0.02323824395453968,0.38060696001910255,0.03966726576784216,0.99063408097404,0.08477063112276499,0.9933925848117781
26.144,25.7,-0.03,0.023633224287437908,0.3798098915359501,0.04033107307858185,0.9901155237019656,0.08497992668035025,0.9938521490960343
26.228,25.75,-0.04,0.02402358087250301,0.37902016324800153,0.04099745027489716,0.9895867620326598,0.0851938095195924,0.9942961214158021
26.248,25.81,-0.02,0.02440902864659321,0.37823823954214625,0.04166595331094904,0.989048123190604,0.0854117838494143,0.9947243018713623
26.331,25.86,0.0,0.024789285835900413,0.37746457334286654,0.04233614136765645,0.9884999337371378,0.08563335882287457,0.9951365042107294
26.352,25.92,-0.01,0.025164074284536198,0.37669960581555567,0.0430075773198801,0.9879425192378591,0.0858580491884975,0.9955325559693733
26.392,25.97,0.02,0.025533119786383486,0.37594376607811547,0.04367982819860931,0.9873762039388987,0.08608537593016254,0.9959122985977283
26.454,26.03,0.04,0.025896152419292735,0.3751974709216977,0.0443524656474447,0.9868013104529163,0.08631486689459243,0.9962755875761687
26.517,26.08,0.03,0.02625290688073476,0.3744611245413768,0.045025066372697986,0.986218159455617,0.08654605740552074,0.9966222925171283
26.622,26.14,0.03,0.026603122824070225,0.3737351182774604,0.04569721258647221,0.9856270693935469,0.08677849086366522,0.9969522972540676
26.641,26.19,0.05,0.02694654519462419,0.37301983036809244,0.0463684924421235,0.9850283562039188,0.08701171933168304,0.9972654999170123
26.683,26.25,0.04,0.02728292456474254,0.37231562571381877,0.047038500461534655,0.9844223330472373,0.08724530410332451,0.9975618129944164
26.746,26.3,0.03,0.02761201746695458,0.3716228556548556,0.047706837953646025,0.9838093100535235,0.08747881625603103,0.9978411633811504
26.789,26.36,0.05,0.027933586724297767,0.37094185776188054,0.04837311342369638,0.983189594082961,0.08771183718623811,0.9981034924124541
26.85,26.41,0.04,0.028247401776810205,0.3702729556412099,0.0490369429726288,0.9825634885017386,0.08794395912665233,0.9983487558837356
26.912,26.47,0.02,0.028553239003184586,0.3696164587551955,0.04969795068611419,0.9819312929737939,0.08817478564477389,0.9985769240561054
26.992,26.52,0.04,0.02885088203660717,0.36897266225858355,0.050355769012635436,0.9812933032690406,0.08840393212193606,0.998787981647561
27.012,26.58,0.06,0.029140122073873138,0.368341846851428,0.05101003913006892,0.9806498110884989,0.08863102621213348,0.998981927809731
27.054,26.63,0.06,0.02942075817696213,0.3677242786489782,0.05166041130020582,0.9800011039065577,0.08885570827990943,0.9991587760900987
27.116,26.69,0.08,0.029692597566352886,0.3671202090688024,0.05230654521066526,0.9793474648304163,0.08907763181658189,0.9993185543796331
27.177,26.74,0.11,0.029955455905439504,0.3665298747352971,0.05294811030366682,0.9786891724766514,0.08929646383411566,0.9994613048457707
27.239,26.8,0.11,0.030209157575474876,0.3659534974016841,0.05358478609116158,0.978026500864808,0.08951188523599557,0.9995870838507125
27.339,26.85,0.11,0.030453535940501177,0.3653912838896027,0.05421626245587083,0.9773597193279158,0.08972359116451874,0.999695961855034
27.359,26.91,0.15,0.03068843360174833,0.36484342604643816,0.05484223993784304,0.976689092439829,0.08993129132399659,0.999788023306627
27.4,26.96,0.15,0.030913702641022247,0.3643101007205195,0.05546243000620316,0.9760148799592743,0.09013471027943618,0.999863366515003
27.462,27.02,0.13,0.031129204852681017,0.36379146975423304,0.05607655531582746,0.9753373367904129,0.09033358773034447,0.9999221035110026
27.502,27.07,0.14,0.031334811963899326,0.3632876799949665,0.05668434994872841,0.9746567129596282,0.09052767875937397,0.9999643598919544
27.583,27.13,0.15,0.03153040584302438,0.36279886332364997,0.057285559639981797,0.9739732536081458,0.09071675405559362,0.9999902746523351
27.623,27.18,0.12,0.03171587869589894,0.3623251367005578,0.05787994198806622,0.9732871990000156,0.09090060011221923,1.0
27.727,27.24,0.12,0.03189113325004444,0.3618666022280168,0.05846726664950254,0.9725987845449755,0.09107901939866585,0.9999937011580956
27.747,27.29,0.13,0.03205608292656731,0.36142334722971453,0.0590473155176765,0.9719082408357657,0.09125183050680526,0.9999715561528127
27.788,27.35,0.12,0.03221065199960322,0.3609954443463716,0.059619882885714466,0.9712157936995328,0.09141886827132226,0.9999337555871723
27.83,27.4,0.12,0.032354775743074854,0.36058295164758225,0.060184775593265676,0.9705216642630057,0.09157998386406611,0.9998805024010634
27.891,27.46,0.15,0.032488400564530735,0.3601859127596191,0.06074181315702781,0.9698260690311309,0.09173504486229318,0.9998120116177448
27.955,27.51,0.15,0.03261148412587063,0.3598043570089162,0.06129082788484292,0.9691292199788032,0.09188393529070575,0.9997285100769907
28.015,27.57,0.15,0.03272399545084299,0.3594382995808114,0.061831664973194,0.9684313246552246,0.0920265556372142,0.9996302361550047
28.077,27.62,0.18,0.03282591501931203,0.35908774169295005,0.06236418258795422,0.967732586300286,0.09216282284239571,0.9995174394711757
28.097,27.68,0.18,0.03291723484841988,0.3587526707825637,0.06288825192828391,0.9670332039722107,0.09229267026268269,0.9993903805817036
28.159,27.73,0.18,0.03299795856088628,0.3584330607066674,0.06340375727362647,0.9663333726855383,0.09241604760738069,0.9992493306601151
28.22,27.79,0.2,0.03306810144075892,0.3581288719541369,0.06391059601380622,0.9656332835584399,0.09253292084968638,0.9990945711647101
28.283,27.84,0.21,0.03312769047694116,0.35784005186864076,0.06440867866227246,0.9649331239683491,0.09264327211194631,0.998926393493023
28.346,27.9,0.2,0.033176764394797505,0.35756653488148743,0.0648979288525726,0.9642330777149539,0.09274709952546863,0.998745098623419
28.427,27.95,0.19,0.03321537367609814,0.3573082427535484,0.06537828331817506,0.9635333251896737,0.09284441706527063,0.9985509967439858
28.447,28.01,0.2,0.033243580567535326,0.3570650848255017,0.06584969185579713,0.9628340435508197,0.09293525436021356,0.9983444068689015
28.508,28.06,0.18,0.0332614590780315,0.3568369582756908,0.06631211727242994,0.9621354069036842,0.09301965647903379,0.998125656442458
28.57,28.12,0.17,0.03326909496505756,0.3566237483849132,0.06676553531629001,0.9614375864847944,0.09309768369281793,0.9978950809309297
28.632,28.17,0.18,0.03326658571019415,0.35642532880742994,0.0672099345919688,0.960740750849512,0.09316941121448735,0.9976530234024671
28.654,28.23,0.16,0.03325404048421696,0.35624156184739153,0.06764531646010018,0.960045066062033,0.09323492891586418,0.9973998340952008
28.714,28.28,0.15,0.03323158010207165,0.3560722987397133,0.0680716949219136,0.9593506958866647,0.09329434102288632,0.9971358699737444
28.818,28.34,0.17,0.03319933696820233,0.35591737993425604,0.06848909648908268,0.9586578019790731,0.09334776578953492,0.9968614942743255
28.838,28.39,0.17,0.03315745501278085,0.355776635382043,0.06889756003931483,0.9579665440760493,0.09339533515103766,0.9965770760388639
28.879,28.45,0.17,0.03310608961944,0.3556498848221971,0.06929713665816477,0.9572770801822963,0.09343719435691857,0.9962829896384277
28.921,28.5,0.17,0.03304540754514263,0.3555369380682956,0.069687889467591,0.9565895667527469,0.09347350158448507,0.9959796142866267
28.982,28.56,0.18,0.03297558683284348,0.35543759529287233,0.07006989344180949,0.9559041588690181,0.09350442753337453,0.9956673335435952
29.043,28.61,0.17,0.032896816717626856,0.35535164730881824,0.07044323521103289,0.9552210104086923,0.09353015500182112,0.9953465348112864
29.084,28.67,0.16,0.03280929752702327,0.35527887584645007,0.07080801285371002,0.9545402742062301,0.09355087844533974,0.9950176088208442
29.185,28.72,0.17,0.032713240576207996,0.35521905382504937,0.07116433567789131,0.9538621022044284,0.09356680351855785,0.9946809491128492
29.206,28.78,0.16,0.03260886805876515,0.3551719456177142,0.0715123239923402,0.9531866455954443,0.09357814660095208,0.9943369515112556
29.268,28.83,0.14,0.03249641293366428,0.35513730730841336,0.07185210886799835,0.9525140549505039,0.09358513430726685,0.99398601359184
29.309,28.89,0.14,0.03237611880904182,0.3551148869401923,0.07218383189039437,0.9518444803374746,0.0935880029834017,0.9936285341459924
29.371,28.94,0.15,0.03224823982331885,0.3551044247535425,0.07250764490356863,0.9511780714255407,0.09358699818855701,0.9932649126406696
29.433,29.0,0.14,0.032113040524126994,0.35510565341400446,0.07282370974606614,0.9505149775762616,0.09358237416442157,0.9928955486753245
29.558,29.05,0.14,0.031970795745463694,0.3551182982281212,0.07313219797951934,0.9498553479203607,0.09357439329217782,0.9925208414366309
29.58,29.11,0.17,0.03182179048345698,0.3551420773469062,0.07343329061030905,0.9491993314196857,0.0935633255381022,0.9921411891518086
29.601,29.16,0.17,0.031666319771082634,0.3551767019560592,0.0737271778047713,0.9485470769138772,0.09354944788855363,0.9917569885413484
29.642,29.22,0.16,0.03150468855212995,0.3552218764522687,0.0740140585984093,0.9478987331513963,0.09353304377517269,0.991368634271942
29.703,29.27,0.18,0.03133721155465666,0.35527729860507096,0.07429414059957248,0.9472544488046627,0.09351440249116078,0.9909765184104009
29.744,29.33,0.17,0.031164213164114198,0.35534265970386386,0.07456763968806945,0.9466143724691668,0.09349381859956286,0.9905810298793297
29.806,29.38,0.16,0.03098602729625508,0.35541764468979964,0.07483477970919117,0.9459786526465093,0.09347159133453425,0.9901825539152737
29.868,29.44,0.16,0.030802997269851803,0.35550193227242494,0.07509579216362977,0.9453474377113883,0.09344802399661789,0.989781471530035
29.929,29.49,0.16,0.030615475679167944,0.35559519503109066,0.07535091589379342,0.9447208758626082,0.09342342334309536,0.989378158975845
29.991,29.55,0.13,0.03042382426603222,0.3556970995013225,0.07560039676703308,0.9440991150581981,0.09339809897449429,0.9889729872150917
30.031,29.6,0.11,0.03022841379126979,0.3558073062465163,0.07584448735630013,0.9434823029347762,0.09337236271834115,0.9885663213953502
30.073,29.66,0.1,0.030029623905151393,0.3559254699154946,0.07608344661873533,0.9428705867113818,0.09334652801123963,0.9881585203304803
30.156,29.71,0.07,0.029827843016444602,0.3560512392865974,0.07631753957264914,0.9422641130781122,0.0933209092803293,0.9877499359885821
30.197,29.77,0.06,0.02962346815959275,0.35618425729909414,0.07654703697329597,0.9416630280700339,0.0932958213251299,0.9873409129876046
30.322,29.82,0.08,0.02941690485950433,0.35632416107278586,0.07677221498778203,0.9410674769269456,0.09327157870071533,0.9869317880993932
30.342,29.88,0.07,0.029208566993425767,0.35647058191670045,0.07699335486940062,0.9404776039395767,0.09324849510309292,0.9865228897629299
30.362,29.93,0.06,0.028998876649414577,0.3566231453277402,0.07721074263166879,0.9398935522827289,0.09322688275760696,0.9861145376074814
30.403,29.99,0.08,0.02878826398102385,0.3567814709800331,0.07742466872233587,0.9393154638357396,0.09320705181114519,0.9857070419863238
30.465,30.04,0.09,0.028577167057909737,0.3569451727056442,0.07763542769764287,0.9387434789905663,0.09318930972890886,0.9853007035216679
30.527,30.1,0.08,0.02836603171212327,0.3571138584673079,0.07784331789711542,0.9381777364477812,0.09317396069650347,0.9848958126613652
30.588,30.15,0.09,0.02815531137982266,0.35728713032398146,0.07804864111917637,0.9376183730008458,0.09316130502812008,0.9844926492479338
30.65,30.21,0.09,0.027945466938066117,0.3574645843902551,0.07825170229786954,0.9370655233091477,0.09315163858160563,0.9840914821003874
30.71,30.26,0.07,0.02773696653625475,0.35764581079091634,0.07845280918099898,0.9365193196604139,0.0931452521812511,0.9836925686093175
30.751,30.32,0.06,0.0275302854217123,0.35783039361220853,0.07865227200999952,0.9359798917232464,0.0931424310491497,0.9832961543456717
30.792,30.37,0.07,0.027325905758835655,0.35801791085149615,0.07885040320186186,0.9354473662906414,0.09314345424598588,0.9829024726836951
30.853,30.43,0.05,0.027124316441253012,0.35820793436711695,0.07904751703344522,0.9349218670153994,0.09314859412210409,0.9825117444385372
30.915,30.48,0.02,0.02692601289649141,0.35840002983014374,0.07924392932852375,0.934403514138302,0.09315811577967797,0.9821241775190531
30.956,30.54,0.02,0.026731496882754387,0.3585937566796595,0.07943995714791384,0.9338924242098787,0.09317227654676288,0.9817399665963288
31.017,30.59,0.01,0.026541276277499377,0.3587886680830293,0.0796359184830115,0.9333887098065315,0.09319132546396942,0.9813592927884187
31.079,30.65,0.01,0.026355864857556505,0.35898431090257005,0.07983213195302935,0.9328924792418155,0.09321550278444027,0.9809823233617421
31.141,30.7,0.02,0.0261757820705575,0.359180225669972,0.08002891650616452,0.9324038362737306,0.09324503948775052,0.980609211449542
31.182,30.76,0.03,0.02600155279747105,0.35937594656977395,0.08022659112487382,0.9319228798089864,0.09328015680829527,0.9802400957877928
31.264,30.81,0.03,0.025833707106075587,0.3595710014331542,0.08042547453539521,0.9314497036052957,0.09332106577869329,0.9798751004689251
31.284,30.87,0.03,0.025672779995240598,0.35976491174326536,0.08062588492164581,0.9309843959728382,0.09336796678872558,0.9795143347137603
31.388,30.92,0.05,0.02551931112995139,0.3599571926532886,0.08082813964364513,0.9305270394760573,0.09342104916033704,0.9791578926620572
31.429,30.98,0.04,0.025373844567114473,0.3601473530182594,0.08103255496065756,0.9300777106369281,0.09348049073924691,0.9788058531821275
31.45,31.03,0.07,0.02523692847229489,0.3603348954415516,0.081239445759297,0.9296364796407498,0.0935464575037308,0.9784582797000034
31.511,31.09,0.09,0.025109114827612748,0.3605193163367577,0.08144912528687115,0.9292034100454845,0.093619103191158,0.9781152200486734
31.615,31.14,0.08,0.02499095913104667,0.36070010600560926,0.08166190489026101,0.928778558495638,0.09369856894290045,0.9777767063378325
31.656,31.2,0.06,0.024883020087382385,0.3608767487325386,0.08187809376065336,0.9283619744416178,0.0937849829682787,0.9774427548444654
31.676,31.25,0.05,0.024785859291048623,0.3610487228964344,0.0820979986844823,0.9279536998653071,0.09387846022826175,0.9771133659243675
31.758,31.31,0.04,0.0247000409011289,0.36121550110004463,0.08232192380098428,0.9275537690123317,0.09397910213967255,0.9767885239445457
31.778,31.36,0.03,0.024626131308916555,0.36137655031734356,0.08255017036680252,0.9271622081312739,0.09408699630064622,0.9764681972363491
31.839,31.42,0.03,0.024564698798455166,0.3615313320590394,0.08278303652807359,0.9267790352199743,0.0942022162380503,0.9761523380691799
31.902,31.47,0.05,0.0245163132005441,0.36167930255631864,0.08302081710039973,0.9264042597790448,0.09432482117752435,0.97584088264466
31.944,31.53,0.04,0.02448154554068119,0.3618199129629032,0.08326380335706794,0.9260378825727485,0.09445485583674773,0.9755337511111454
32.005,31.58,0.04,0.02446096768136923,0.3619526095755385,0.0835122828258316,0.9256798953974524,0.09459235024251028,0.9752308475984734
32.067,31.64,0.06,0.024455151959153786,0.36207683407309726,0.08376653909452962,0.9253302808579287,0.09473731957214702,0.974932060272788
32.129,31.69,0.05,0.024464670816707657,0.36219202377454524,0.08402685162579522,0.924989012151838,0.09488976401989925,0.9746372614112361
32.17,31.75,0.04,0.024490096430236637,0.36229761191605697,0.08429349558109438,0.9246560528627545,0.09504966868877271,0.974346307496276
32.23,31.8,0.05,0.024532000332444553,0.36239302794760186,0.08456674165432859,0.9243313567621417,0.0952170035084746,0.9740590393292816
32.292,31.86,0.05,0.024590953031260913,0.36247769784934375,0.08484685591523988,0.9240148676206912,0.09539172318002082,0.9737752821630954
32.354,31.91,0.03,0.02466752362450806,0.36255104446820685,0.08513409966287029,0.9237065190294269,0.09557376714760536,0.9734948458531659
32.396,31.97,0.02,0.024762279410690927,0.36261248787491396,0.0854287292893452,0.9234062342309255,0.09576305959831849,0.9732175250269227
32.478,32.02,0.02,0.02487578549615898,0.36266144574165904,0.08573099615426684,0.9231139259609343,0.0959595094902842,0.9729430992710589
32.499,32.08,-0.01,0.02500860439901582,0.36269733374032453,0.08604114647002112,0.9228294963005607,0.09616301060975968,0.9726713333364274
32.581,32.13,-0.04,0.025161295650293368,0.36271956596085914,0.08635942119830546,0.9225528365390872,0.09637344165769192,0.972401977360279
32.622,32.19,-0.03,0.02533441539301488,0.3627275553491605,0.08668605595817504,0.922283827047351,0.09659066636616344,0.9721347671055914
32.665,32.24,-0.04,0.025528515979819786,0.36272071416361806,0.08702128094587284,0.9220223371615239,0.09681453364508011,0.97186942421724
32.725,32.3,-0.06,0.025744145569819077,0.36269845444936066,0.08736532086665856,0.9217682250770655,0.0970448777593653,0.9716056564947566
32.766,32.35,-0.04,0.02598184772532454,0.3626601885291915,0.08771839487879024,0.9215213377525705,0.09728151853683642,0.9713431581814116
32.889,32.41,-0.04,0.026242161009078276,0.3626053295101478,0.08808071654976034,0.92128151082321,0.09752426160686582,0.9710816102693208
32.909,32.46,-0.06,0.026525618582598633,0.3625332918045889,0.08845249382485244,0.921048568523438,0.09777289866986533,0.9708206808202738
32.951,32.52,-0.06,0.02683274780623414,0.3624434916647348,0.08883392900805315,0.9208223236186914,0.09802720779758459,0.97056002530196
33.013,32.57,-0.07,0.027164069841467273,0.3623353477296545,0.0892252187553236,0.9206025773458915,0.09828695376416817,0.9702992869392667
33.074,32.63,-0.08,0.02752009925594041,0.3622082815838374,0.08962655408020638,0.920389119362691,0.09855188840786877,0.9700380970803314
33.114,32.68,-0.09,0.0279013436315933,0.3620617183266736,0.09003812037171494,0.9201817277055385,0.09882175102325727,0.9697760755770335
33.156,32.74,-0.08,0.02830830317621164,0.3618950871523968,0.09046009742441678,0.9199801687567766,0.0990962687837071,0.9695128311796238
33.236,32.79,-0.11,0.02874147033859441,0.3617078219402806,0.0908926594805755,0.919784197221152,0.0993751571938658,0.9692479619451755
33.278,32.85,-0.14,0.02920132942746239,0.3614993618550743,0.09133597528415868,0.9195935561122636,0.09965812057175594,0.9689810556595112
33.359,32.9,-0.15,0.029688356234179793,0.3612691519577651,0.0917902081464604,0.9194079767495733,0.09994485256006798,0.9687116902722129
33.379,32.96,-0.18,0.030203017659383907,0.361016643826693,0.09225551602303442,0.9192271787666519,0.10023503666611085,0.9684394343442715
33.441,33.01,-0.2,0.03074577134373284,0.36074129618881173,0.09273205160159581,0.9190508701312561,0.10052834682976171,0.9681638475079148
33.502,33.07,-0.18,0.03131706530316219,0.3604425755605337,0.09321996240050981,0.9188787471777132,0.10082444801861218,0.9678844809381779
33.582,33.12,-0.17,0.031917337569219516,0.3601199568972453,0.09371939087744094,0.9187104946519912,0.101122996849358,0.967600877835824
33.603,33.18,-0.18,0.032547015835151,0.3597729242503622,0.09423047454767844,0.9185457857697873,0.10142364223434264,0.9673125739212608
33.666,33.23,-0.18,0.03320651710842321,0.3594009714307515,0.09475334611159018,0.9183842822880298,0.10172602605206016,0.9670190979390908
33.708,33.29,-0.15,0.033896247370303265,0.35900360267744236,0.09528813359060018,0.9182256345902811,0.10202978384034789,0.9667199721729023
33.77,33.34,-0.16,0.03461660124302071,0.3585803333307193,0.09583496047104482,0.9180694817866315,0.10233454551094653,0.966414712969867
33.831,33.4,-0.16,0.03536796166489106,0.358130690508938,0.09639394585523814,0.9179154518287452,0.10263993608406091,0.9661028312746935
33.957,33.45,-0.13,0.03615069957359685,0.3576542137886952,0.09696520461905322,0.9177631616407872,0.10294557644151492,0.965783833172461
33.998,33.51,-0.13,0.036965173597646034,0.35715045588825584,0.0975488475753098,0.9176122172669924,0.10325108409706016,0.9654572204398475
34.018,33.56,-0.13,0.03781172975592203,0.3566189833542789,0.09814498164224057,0.9174622140366291,0.10355607398236484,0.9651224911042481
34.059,33.62,-0.12,0.03869070116522475,0.35605937725187736,0.09875371001629836,0.9173127367470595,0.10386015924718282,0.9647791400102749
34.099,33.67,-0.12,0.03960240775574357,0.3554712338579367,0.09937513234855708,0.9171633598655291,0.10416295207218117,0.9644266593931297
34.16,33.73,-0.12,0.04054715599445613,0.35485416535747194,0.10000934492395776,0.9170136477502299,0.1044640644928827,0.9640645394583425
34.2,33.78,-0.1,0.04152523861650089,0.3542078005426406,0.10065644084264815,0.9168631548910755,0.1047631092331507,0.9636922689674003
34.262,33.84,-0.08,0.0425369343646446,0.3535317855138218,0.10131651020266419,0.916711426170505,0.10505970054661101,0.9633093358288181
34.322,33.89,-0.08,0.043582507737056325,0.35282578438192674,0.10198964028319737,0.9165579971444893,0.10535345506437845,0.9629152276942083
34.384,33.95,-0.07,0.04466220874367417,0.3520894799708767,0.10267591572766899,0.9164023943438037,0.10564399264743987,0.9625094325588718
34.445,34.0,-0.04,0.04577627267148366,0.35132257451900895,0.10337541872579538,0.9162441355955574,0.10593093724204694,0.9620914393663645
34.505,34.06,-0.03,0.04692491985903584,0.3505247903780388,0.10408822919381241,0.9160827303648927,0.10621391773648206,0.9616607386164494
34.567,34.11,-0.02,0.04810835548054191,0.3496958707080827,0.10481442495207127,0.91591768011665,0.10649256881757645,0.9612168229758354
34.588,34.17,0.0,0.04932676933989904,0.3488355801671377,0.10555408189933206,0.9157484786966418,0.10676653182538214,0.9607591878911408
34.691,34.22,0.02,0.05058033567502095,0.3479437055933311,0.10630727418322808,0.9155746127320473,0.10703545560443266,0.9602873322035735
34.713,34.28,0.03,0.05186921297285397,0.34702005667821434,0.10707407436649384,0.9153955620503726,0.10729899735006614,0.9598007587648955
34.753,34.33,0.05,0.05319354379545019,0.34606446662939,0.10785455358861139,0.9152108001164503,0.10755682344832525,0.9592989750543295
34.814,34.39,0.07,0.05455345461744348,0.3450767928208073,0.10864878172254974,0.9150197944870319,0.10780861030799592,0.9587814937961416
34.876,34.44,0.1,0.055949055675226664,0.34405691742915856,0.10945682752628041,0.9148220072826286,0.10805404518339667,0.95824783357768
34.917,34.5,0.09,0.057380440828060215,0.3430047480549239,0.11027875878875829,0.9146168956763253,0.10829282698658553,0.9576975194676494
34.978,34.55,0.07,0.058847687431269065,0.3419202183267331,0.11111464247005855,0.9144039123993482,0.10852466708771387,0.9571300836343297
35.061,34.61,0.05,0.06035085622163029,0.3408032884878005,0.11196454483535559,0.9141825062631816,0.10874929010231946,0.9565450659632856
35.082,34.66,0.05,0.061889991215018016,0.3396539459632424,0.11282853158241052,0.9139521226980141,0.10896643466439071,0.955942014673943
35.143,34.72,0.07,0.06346511961634398,0.33847220590710525,0.11370666796220429,0.9137122043072641,0.10917585418403052,0.9553204869342674
35.205,34.77,0.1,0.06507625174181096,0.33725811172793835,0.11459901889232348,0.9134621914378848,0.10937731758850477,0.9546800494727078
35.267,34.83,0.1,0.06672338095348371,0.3360117355917299,0.11550564906269123,0.9132015227660443,0.10957061004541703,0.9540202791865617
35.307,34.88,0.11,0.06840648360617642,0.3347331789010284,0.11642662303323174,0.9129296358977069,0.10975553366674011,0.9533407637459012
35.368,34.94,0.14,0.07012551900665412,0.3334225727490848,0.11736200532307138,0.9126459679836015,0.10993190819246564,0.9526411021921853
35.47,34.99,0.14,0.07188042938514433,0.3320800783478929,0.11831186049092296,0.9123499563480497,0.11009957165268688,0.9519209055306757
35.491,35.05,0.15,0.0736711398791471,0.3307058874290677,0.11927625320637401,0.9120410391311176,0.11025838100698988,0.9511797973157787
35.532,35.1,0.18,0.07549755852951764,0.32930022261658937,0.12025524831189002,0.9117186559435481,0.1104082127600881,0.9504174142284703
35.615,35.16,0.17,0.07735957628878586,0.32786333777051885,0.12124891087541977,0.9113822485339093,0.11054896355269792,0.9496334066449805
35.636,35.21,0.16,0.07925706704167977,0.32639551830085045,0.12225730623354145,0.9110312614673489,0.11068055072671396,0.9488274391959473
35.698,35.27,0.19,0.08118988763783702,0.32489708145068535,0.1232805000251285,0.9106651428152559,0.1108029128638069,0.9479991913152399
35.781,35.32,0.19,0.08315787793672333,0.32336837654788225,0.12431855821558556,0.9102833448549713,0.11091601029662404,0.9471483577776642
35.802,35.38,0.19,0.08516086086481359,0.32180978522428244,0.12537154711182702,0.9098853247784615,0.11101982559181683,0.9462746492247651
35.864,35.43,0.2,0.08719864248511044,0.3202217216015429,0.12643953336831562,0.9094705454086458,0.11111436400415746,0.9453777926779806
35.906,35.49,0.22,0.08927101207906779,0.3186046324425731,0.12752258398458946,0.9090384759218875,0.11119965390104468,0.9444575320384131
35.968,35.54,0.21,0.09137774224096622,0.3169589972675519,0.1286207662947579,0.9085885925750676,0.11127574715674032,0.943513628572497
36.031,35.6,0.21,0.09351858898476584,0.31528532843350204,0.12973414794945778,0.9081203794356228,0.1113427195157221,0.942545861382828
36.073,35.65,0.24,0.09569329186345253,0.31358417117642445,0.13086279689075098,0.9076333291129322,0.11140067092458567,0.9415540278633979
36.156,35.71,0.23,0.09790157410089151,0.3118561036150598,0.13200678132044688,0.9071269434894609,0.11144972583197844,0.9405379441384482
36.197,35.76,0.23,0.10014314273618938,0.31010173671546043,0.13316616966233233,0.9066007344501035,0.11149003345609927,0.9394974454841252
36.237,35.82,0.26,0.102417688780532,0.308321714215713,0.13434103051879231,0.9060542246082232,0.11152176801935164,0.9384323867320928
36.299,35.87,0.26,0.10472488738642437,0.3065167125103058,0.13553143262230627,0.9054869480269477,0.11154512894979574,0.9373426426542243
36.361,35.93,0.25,0.10706439802922646,0.30468744049376106,0.13673744478230826,0.9048984509343052,0.11156034104910136,0.9362281083274706
36.402,35.98,0.26,0.10943586470086267,0.30283463936324007,0.13795913582790165,0.9042882924307898,0.11156765462676281,0.9350886994779894
36.463,36.04,0.26,0.1118389161155761,0.3009590823798927,0.13919657454691278,0.903656045187968,0.1115673456003972,0.9339243528036002
36.566,36.09,0.23,0.11427316592758976,0.2990615745887777,0.14044982962175773,0.9030012961367399,0.11155971556200293,0.9327350262736199
36.587,36.15,0.22,0.11673821296050985,0.29714295249725436,0.14171896956257693,0.9023236471439062,0.11154509181009824,0.9315206994051383
36.628,36.2,0.21,0.11923364144827028,0.2952040837118135,0.1430040626380662,0.9016227156757513,0.11152382734768285,0.9302813735147996
36.69,36.26,0.2,0.1217590212873942,0.29324586653334245,0.14430517680439198,0.9008981354473866,0.11149630084596372,0.9290170719451902
36.771,36.31,0.19,0.12431390830033465,0.29126922951081524,0.14562237963252675,0.9001495570566632,0.11146291657375683,0.9277278402649788
36.791,36.37,0.21,0.1268978445096456,0.28927513095338686,0.14695573823427313,0.8993766486014887,0.1114241042924347,0.926413746441994
36.915,36.42,0.22,0.1295103584227128,0.28726455840087206,0.14830531918718876,0.8985790962793886,0.11138031911625665,0.9250748809884503
36.935,36.48,0.21,0.1321509653267492,0.2852385280526075,0.14967118845858332,0.8977566049681048,0.11133204133790613,0.9237113570775345
36.955,36.53,0.23,0.1348191675937443,0.28319808415471137,0.15105341132873773,0.896908898785969,0.11127977621907628,0.9223233106305836
37.017,36.59,0.25,0.13751445499505796,0.28114429834576915,0.15245205231348846,0.8960357216307537,0.11122405374598632,0.9209109003741057
37.063,36.64,0.25,0.14023630502537454,0.2790782689609762,0.15386717508632441,0.8951368376956849,0.11116542834976549,0.9194743078659683
37.125,36.7,0.26,0.14298418323576734,0.2770011202947759,0.15529884240014538,0.8942120319613328,0.11110447859170468,0.918013737490152
37.186,36.75,0.28,0.14575754357565412,0.2749140018220555,0.1567471160088333,0.8932611106621559,0.11104180681344848,0.9165294164195658
37.268,36.81,0.27,0.14855582874344378,0.27281808737800617,0.15821205658879034,0.8922839017265668,0.11097803875227927,0.9150215945464794
37.289,36.86,0.25,0.15137847054567102,0.2707145742968251,0.15969372366059653,0.8912802551894854,0.11091382312172174,0.9134905443802019
37.351,36.92,0.27,0.15422489026439756,0.2686046825095185,0.16119217551093368,0.8902500435764246,0.11084983115776441,0.9119365609116781
37.391,36.97,0.25,0.15709449903264075,0.26648965360114074,0.16270746911491785,0.8891931622581981,0.11078675613104615,0.9103599614447399
37.454,37.03,0.24,0.1599866982175832,0.2643707498278494,0.16423966005897286,0.8881095297753175,0.11072531282538527,0.908761085393807
37.516,37.08,0.25,0.16290087981131499,0.2622492530941907,0.16578880246435873,0.8869990881311133,0.11066623698304676,0.9071402940478795
37.558,37.14,0.26,0.16583642682885072,0.260126463891069,0.16735494891143693,0.8858618030525722,0.11061028471715728,0.9054979703007068
37.641,37.19,0.26,0.16879271371315074,0.258003700194912,0.16893815036472232,0.8846976642178753,0.11055823189169259,0.903834518347069
37.662,37.25,0.27,0.17176910674686025,0.2558822963286291,0.17053845609874,0.883506685449667,0.11051087346948497,0.9021503633451967
37.724,37.3,0.29,0.17476496447047163,0.25376360178507673,0.1721559136246844,0.8822889048732131,0.11046902282873643,0.9004459510454698
37.785,37.36,0.29,0.17777963810661415,0.25164898001389274,0.1737905686178634,0.881044385038774,0.11043351104857575,0.8987217473856647
37.827,37.41,0.3,0.1808124719901769,0.24953980717274105,0.17544246484590037,0.8797732130077098,0.11040518616426666,0.8969782380531329
37.909,37.47,0.32,0.18386280400397162,0.24743747084419712,0.1771116440976635,0.8784755004020098,0.11038491239275358,0.8952159280143851
38.012,37.52,0.31,0.18692996601964054,0.24534336871969964,0.17879814611288217,0.8771513834170982,0.11037356932931444,0.8934353410126131
38.032,37.58,0.29,0.19001328434350057,0.24325890725218297,0.18050200851240158,0.875801022797894,0.11037205111617061,0.8916370190337277
38.072,37.63,0.3,0.19311208016699907,0.24118550027918886,0.18222326672900935,0.8744246037781923,0.11038126558397704,0.8898215217415141
38.135,37.69,0.29,0.19622567002145616,0.23912456761839523,0.1839619539387596,0.8730223359834721,0.11040213336717279,0.8879894258825284
38.196,37.74,0.25,0.1993533662367976,0.23707753363758774,0.18571810099271188,0.8715944532971951,0.11043558699421206,0.8861413246613982
38.217,37.8,0.25,0.20249447740403198,0.23504582580115513,0.1874917363489902,0.8701412136906165,0.11048256995371364,0.8842778270872456
38.299,37.85,0.26,0.2056483088412775,0.23303087319523424,0.18928288600504395,0.8686628990160807,0.11054403573757139,0.8823995572920285
38.361,37.91,0.26,0.2088141630631738,0.23103410503371968,0.19109157342995606,0.8671598147637767,0.1106209468620569,0.8805071538216979
38.381,37.96,0.27,0.21199134025349903,0.22905694914750963,0.19291781949660416,0.8656322897819685,0.11071427386793413,0.8786012689011824
38.462,38.02,0.3,0.21517913874077396,0.22710083045957333,0.19476164241344365,0.8640806759607857,0.11082499430061074,0.876682567674325
38.503,38.07,0.3,0.2183768554766212,0.22516716944861537,0.19662305765566765,0.8625053478797003,0.11095409167138286,0.8747517274200068
38.545,38.13,0.31,0.22158378651667257,0.22325738060425254,0.1985020778955094,0.8609067024188194,0.11110255440088847,0.8728094367458091
38.607,38.18,0.34,0.224799227503862,0.22137287087673554,0.2003987129314714,0.8592851583341435,0.11127137474596535,0.8708563947606447
38.668,38.24,0.36,0.2280224741539737,0.2195150381243942,0.20231296961629183,0.85764115579696,0.11146154771120699,0.8688933102278963
38.751,38.29,0.35,0.23125282274331477,0.21768526956217443,0.20424485178348392,0.8559751558975993,0.11167406994661841,0.8669209007006687
38.772,38.35,0.36,0.23448957059835085,0.21588494021488291,0.20619436017231824,0.8542876401138256,0.11190993863289189,0.8649398916408553
38.833,38.4,0.35,0.23773201658709203,0.2141154113790363,0.20816149235115,0.852579109744214,0.1121701503559411,0.8629510155238125
38.873,38.46,0.35,0.24097946161195458,0.2123780290974809,0.21014624263904044,0.8508500853069652,0.1124556999724385,0.8609550109305502
38.935,38.51,0.31,0.24423120910375498,0.21067412265115615,0.21214860202567162,0.8491011059047637,0.11276757946818161,0.8589526216294598
38.997,38.57,0.29,0.24748656551642903,0.20900500307244516,0.214168558089613,0.8473327285564825,0.11310677681116753,0.8569445956496764
39.057,38.62,0.27,0.2507448408220147,0.20737196168446262,0.21620609491506032,0.8455455274967483,0.11347427480127707,0.8549316843481419
39.119,38.68,0.25,0.2540053490053913,0.20577626867039292,0.218261193007224,0.8437400934445711,0.11387104991845569,0.8529146414723483
39.161,38.73,0.26,0.25726740855822344,0.20421917167666243,0.22033382920658948,0.8419170328423784,0.11429807117122949,0.8508942222206042
39.243,38.79,0.27,0.2605303429715242,0.2027018944533312,0.22242397660231344,0.8400769670668914,0.11475629894733468,0.8488711823015452
39.264,38.84,0.25,0.2637934812262366,0.20122563553463926,0.22453160444506348,0.8382205316133414,0.11524668386819216,0.8468462769944868
39.327,38.9,0.26,0.2670561582812523,0.19979156696214284,0.22665667805964848,0.8363483752545524,0.11577016564894423,0.8448202602121468
39.388,38.95,0.27,0.2703177155583404,0.1984008330523505,0.22879915875783594,0.8344611591764325,0.11632767196578409,0.8427938835672076
39.471,39.01,0.25,0.2735775014235407,0.19705454921022128,0.23095900375180342,0.8325595560913566,0.11692011733233805,0.8407678954441812
39.492,39.06,0.23,0.27683487166467413,0.1957538007893775,0.23313616606872475,0.8306442493308611,0.1175484019868872,0.83874304007804
39.552,39.12,0.23,0.2800891899646968,0.1944996419994634,0.23533059446702612,0.8287159319190492,0.11821341079223713,0.8367200566410807
39.594,39.17,0.2,0.2833398283706844,0.19329309486077845,0.23754223335483793,0.8267753056282072,0.11891601215005215,0.8346996783394633
39.657,39.23,0.16,0.28658616775827106,0.19213514820612526,0.23977102271111092,0.824823080018393,0.1196570569314549,0.8326826315208421
39.718,39.28,0.15,0.28982759829137894,0.1910267567297113,0.24201689800977447,0.8228599714630754,0.12043737742565415,0.8306696347944664
39.759,39.34,0.12,0.2930635198770759,0.189968840082886,0.2442797901472339,0.8208867021631095,0.12125778630829762,0.8286613981650757
39.84,39.39,0.09,0.2962933426153785,0.18896228201645748,0.24655962537345155,0.8189039991513593,0.12211907563115336,0.8266586221818567
39.861,39.45,0.09,0.29951648724378277,0.1880079295693004,0.24885632522681322,0.8169125932901864,0.1230220158346115,0.8246619971036645
39.922,39.5,0.09,0.302732385576262,0.18710659230294793,0.25116980647294196,0.8149132182639448,0.12396735478437843,0.8226722020816166
39.985,39.56,0.09,0.30594048093642245,0.1862590415818504,0.2534999810475831,0.8129066095685427,0.12495581683362296,0.8206899043600859
40.027,39.61,0.09,0.3091402285844628,0.18546600989898068,0.2558467560036626,0.8108935035001065,0.1259881019117424,0.818715758497035
40.09,39.67,0.11,0.3123310961375415,0.18472819024647957,0.258210033462606,0.8088746361447775,0.12706488464085244,0.8167504056045664
40.152,39.72,0.1,0.31551256398312716,0.1840462355310521,0.26058971057001,0.8068507423716735,0.12818681348107222,0.814794472610482
40.215,39.78,0.1,0.3186841256848782,0.18342075803385563,0.2629856794557674,0.8048225548310344,0.12935450990566108,0.8128485715415652
40.256,39.83,0.12,0.3218452883805744,0.18285232891464173,0.2653978271987628,0.8027908029595507,0.1305685676070588,0.8109132988292064
40.319,39.89,0.12,0.3249955731716089,0.18234147775991752,0.26782603579627373,0.8007562119948151,0.13182955173487676,0.808989234637893
40.382,39.94,0.1,0.328134515503544,0.18188869217486717,0.2702701821382342,0.7987195020007515,0.13313799816687505,0.8070769422170047
40.445,40.0,0.09,0.3312616655372353,0.18149441741873143,0.27273013798652873,0.7966813869058174,0.1344944128139469,0.8051769672762561
40.508,40.05,0.08,0.3343765885100312,0.18115905608329533,0.2752057699594739,0.7946425735557342,0.13589927096011342,0.8032898373850373
40.593,40.11,0.04,0.3374788650865461,0.18088296781409982,0.27769693952163366,0.7926037607824834,0.1373530166384986,0.8014160613958128
40.612,40.16,0.02,0.34056809169847196,0.1806664690739905,0.28020350297907853,0.7905656384912977,0.13885606204419254,0.799556128891681
40.654,40.22,0.03,0.34364388087282666,0.18050983294865305,0.28272531148015634,0.7885288867673796,0.14040878698482254,0.7977105096581613
40.696,40.27,0.0,0.34670586154795785,0.18041328899383394,0.285262211021788,0.7864941750040414,0.14201153836953073,0.7958796531792508
40.759,40.33,0.0,0.3497536793765484,0.1803770231239899,0.28781404246124787,0.7844621610539113,0.1436646297369264,0.7940639881577987
40.821,40.38,0.03,0.35278699701481,0.18040117754214305,0.29038064153333887,0.7824334904047742,0.14536834082245204,0.7922639220602563
40.884,40.44,0.03,0.3558054943970105,0.18048585071075204,0.2929618388728388,0.7804087953815418,0.14712291716549408,0.79047984068591
40.947,40.49,0.04,0.3588088689944529,0.1806310973634399,0.2955574600420677,0.7783886943758042,0.14892856975648786,0.7887121077607385
40.968,40.55,0.05,0.3617968360580162,0.18083692855743927,0.29816732556341,0.7763737911043841,0.15078547472421433,0.7869610645560731
41.031,40.6,0.07,0.36476912884340035,0.18110331176659564,0.30079125095662984,0.7743646738982994,0.1526937730634596,0.785227029532232
41.093,40.66,0.06,0.367725498818297,0.18143017101469897,0.3034290467808462,0.7723619150234567,0.15465357040319008,0.7835102980073007
41.135,40.71,0.07,0.37066571585080266,0.18181738704883882,0.306080518681084,0.7703660700343089,0.1566649368153859,0.781811141851228
41.198,40.77,0.08,0.37358956837846236,0.18226479755244968,0.3087454674393552,0.7683776771616218,0.15872790666466088,0.7801298092054062
41.261,40.82,0.05,0.37649686355735895,0.18277219739775985,0.31142368903024886,0.7663972567354655,0.1608424784987793,0.7784665242278905
41.303,40.88,0.03,0.37938742739062525,0.18333933893746607,0.31411497468100125,0.7644253106445223,0.16300861498014493,0.7768214868644012
41.366,40.93,0.05,0.38226110483570286,0.18396593233557396,0.31681911093598747,0.7624623218327923,0.16522624285828427,0.7751948726452117
41.429,40.99,0.05,0.3851177598896325,0.18465164593741223,0.3195358797255373,0.7605087538346684,0.16749525298326806,0.7735868325079882
41.47,41.04,0.05,0.38795727565164123,0.18539610667882908,0.3222650584389429,0.7585650503491795,0.16981550035991538,0.7719974926465971
41.533,41.1,0.08,0.39077955436230366,0.18619890053454008,0.3250064200014973,0.7566316348539965,0.17218680424252944,0.7704269543858439
41.575,41.15,0.09,0.39358451741860734,0.1870595730054923,0.3277597329553999,0.7547089102595665,0.17460894826983872,0.768875294082049
41.699,41.21,0.09,0.39637210536439604,0.1879776296449016,0.3305247615443985,0.7527972586034748,0.17708168063976884,0.767342563049339
41.719,41.26,0.11,0.39914227785588413,0.18895253662232278,0.33330126580211505,0.7508970407848135,0.17960471432364455,0.7658287875115244
41.74,41.32,0.14,0.40189501360219865,0.1899837213247777,0.3360890016440963,0.7490085963380267,0.18217772731940746,0.7643339685794565
41.801,41.37,0.13,0.4046303102811595,0.19107057299366292,0.33888772096372133,0.7471322432454249,0.18480036294343036,0.7628580822537817
41.863,41.43,0.14,0.4073481844306982,0.19221244339594917,0.34169717173216424,0.7452682777873869,0.18747223016050088,0.7614010794530309
41.925,41.48,0.15,0.41004867131642414,0.19340864752809314,0.3445170981026283,0.7434169744292057,0.19019290395153926,0.759962886066984
42.047,41.54,0.13,0.41273182477588394,0.19465846435107148,0.34734724051905713,0.7415785857435321,0.1929619257185995,0.7585434030352367
42.068,41.59,0.11,0.4153977170400756,0.1959611375549683,0.35018733582949496,0.7397533423673905,0.19577880372666892,0.7571425064508593
42.089,41.65,0.12,0.41804643853277557,0.19731587635157316,0.3530371174042191,0.7379414529927605,0.19864301358172823,0.755760047689003
42.15,41.7,0.12,0.4206780976482265,0.19872185629347378,0.35589631525870324,0.7361431043897193,0.20155399874445581,0.7543958535602718
42.191,41.76,0.1,0.4232928205077217,0.20017822011814948,0.35876465618140196,0.7343584614611446,0.20451117107886035,0.7530497264886628
42.252,41.81,0.12,0.4258907506955887,0.20168407861561158,0.36164186386625324,0.7325876673280001,0.20751391143501172,0.7517214447138573
42.313,41.87,0.15,0.42847204897503743,0.20323851151819555,0.36452765904970935,0.7308308434442872,0.2105615702649282,0.7504107625176454
42.416,41.92,0.16,0.43103689298428743,0.2048405684112038,0.3674217596520302,0.7290880897408113,0.21365346827057977,0.749117410474251
42.436,41.98,0.18,0.4335854769133553,0.20648926966320505,0.3703238809225277,0.7273594847969708,0.21678889708289129,0.747841095724334
42.478,42.03,0.21,0.436118011161878,0.20818360737487823,0.37323373558842454,0.7256450860398241,0.21996711997058332,0.7465815022724293
42.519,42.09,0.23,0.4386347219783992,0.20992254634529364,0.3761510340069901,0.7239449299697133,0.2231873725776693,0.7453382913075526
42.581,42.14,0.23,0.44113585108165787,0.2117050250544444,0.3790754843206299,0.7222590324116757,0.22644886368842207,0.7441111015466556
42.641,42.2,0.25,0.44362165526454606,0.21352995666070496,0.3820067926146404,0.7205873887917956,0.2297507760186327,0.7428995496005636
42.703,42.25,0.28,0.44609240598155697,0.21539623001172112,0.3849446630773947,0.718929974437488,0.2330922670319922,0.7417032303619914
42.785,42.31,0.27,0.4485483889206506,0.21730271066710652,0.3878887981627922,0.7172867449005429,0.2364724697804284,0.7405217174152144
42.806,42.36,0.27,0.4509899035604972,0.21924824193129597,0.39083889875484723,0.715657636301649,0.23989049376722307,0.7393545634669687
42.847,42.42,0.27,0.45341726271400107,0.2212316458950157,0.39379466433430604,0.7140425656950812,0.24334542583171268,0.7382013007981534
42.89,42.47,0.27,0.4558307920588939,0.22325172448401534,0.39675579314715387,0.7124414314522802,0.24683633105434746,0.7370614417359145
42.95,42.53,0.28,0.4582308296560561,0.22530726051392258,0.3997219823748285,0.7108541136631075,0.2503622536808226,0.7359344791456696
43.01,42.58,0.31,0.46061772545608365,0.22739701875029528,0.4026929283058826,0.7092804745536331,0.2539222180639227,0.7348198869426215
43.072,42.64,0.32,0.4629918407944913,0.2295197469731406,0.4056683265087631,0.7077203589193691,0.2575152296216368,0.7337171206222584
43.135,42.69,0.34,0.4653535478758412,0.23167417704533924,0.4086478720053061,0.7061735945728973,0.26114027581003185,0.7326256178092746
43.176,42.75,0.38,0.4677032292470008,0.2338590259845573,0.4116312594444831,0.7046399928049445,0.2647963271093242,0.7315447988242796
43.238,42.8,0.41,0.4700412772596946,0.23607299703834692,0.4146181832758767,0.703119348858186,0.26848233802157423,0.730474067267615
43.299,42.86,0.42,0.47236809352249615,0.23831478076224605,0.4176083379223185,0.7016114424133681,0.27219724807843265,0.7294128106195784
43.34,42.91,0.46,0.4746840883423906,0.2405830561007969,0.4206014179510973,0.7001160380876456,0.2759399828573955,0.7283604008563639
43.402,42.97,0.49,0.47698968015605964,0.2428764914714962,0.42359711824316065,0.6986328859452136,0.2797094550050616,0.7273161950810502
43.505,43.02,0.5,0.47928529495109035,0.24519374585172113,0.4265951341598016,0.6971617220203251,0.2835045652659325,0.7262795361689997
43.525,43.08,0.5,0.48157136567743014,0.24753346986860425,0.42959516170641676,0.695702268852635,0.2873242035153297,0.7252497534270661
43.566,43.13,0.52,0.4838483316495858,0.24989430689166164,0.4325968976930458,0.6942542360345467,0.291167249795044,0.7242261632660242
43.608,43.19,0.52,0.48611663794026577,0.2522748941277313,0.4356000398915156,0.6928173207699092,0.29503257535034805,0.7232080698856317
43.668,43.24,0.51,0.4883767347663782,0.25467386371751993,0.4386042871891058,0.6913912084430778,0.29891904366701205,0.7221947659717131
43.73,43.3,0.52,0.4906290768684412,0.25708984383285605,0.44160933973869415,0.6899755731971108,0.3028255115069346,0.7211855334046352
43.771,43.35,0.53,0.49287412288452426,0.2595214597736518,0.44461489910531565,0.6885700785197316,0.3067508299409661,0.7201796439785274
43.834,43.41,0.54,0.49511233471982585,0.26196733506358116,0.4476206684090228,0.687174377835653,0.31069384537743616,0.7191763601305736
43.895,43.46,0.57,0.497344176912923,0.2644260925435622,0.4506263524638655,0.6857881151038768,0.31465340058482905,0.7181749356797115
43.937,43.52,0.62,0.4995701159996415,0.2668963554622599,0.45363165791276866,0.6844109254186502,0.3186283357069901,0.7171746165740497
43.998,43.57,0.65,0.5017906198754017,0.2693767485629744,0.45663629335806216,0.6830424356128478,0.3226174892692118,0.7161746416463346
44.06,43.63,0.68,0.5040061571568251,0.27186589916644105,0.45963996948742347,0.6816822648626671,0.3266196991735479,0.7151742433767978
44.101,43.68,0.73,0.5062171965433244,0.27436243824922896,0.4626423991950036,0.6803300252926487,0.33063380368174444,0.7141726486627372
44.163,43.74,0.76,0.5084242061793592,0.2768650015175617,0.465643297697533,0.6789853225801378,0.334658642384246,0.713169079594183
44.265,43.79,0.8,0.5106276530180129,0.2793722304764922,0.46864238264523433,0.6776477565583577,0.33869305715383147,0.7121627542349918
44.285,43.85,0.85,0.5128280021865238,0.2818827734944344,0.47163937422741137,0.6763169218173147,0.3427358930825373,0.7111528874087003
44.326,43.9,0.88,0.515025716354395,0.2843952868630875,0.47463399527261885,0.674992408301773,0.3467859994006413,0.7101386914884531
44.388,43.96,0.89,0.5172212551046984,0.2869084358527759,0.47762597134335694,0.6736738019056042,0.3508422303765938,0.7091193771903127
44.451,44.01,0.91,0.519415074309184,0.2894208957631981,0.48061503082525747,0.6723606850618893,0.35490344619690434,0.7080941543692553
44.514,44.07,0.92,0.5216076255078057,0.29193135296951545,0.4836009050107482,0.6710526373282607,0.35896851382509914,0.7070622328171424
44.618,44.12,0.93,0.5237993552932999,0.29443850596360954,0.4865833281772021,0.6697492359670396,0.3630363078389534,0.7060228230619746
44.638,44.18,0.95,0.5259907047015162,0.2969410663901595,0.48956203765959944,0.6684500565197106,0.3671057112452609,0.7049751371677284
44.659,44.23,0.99,0.5281821086082916,0.29943776007695966,0.4925367739177331,0.6671546733751986,0.37117561627144197,0.7039183895340912
44.7,44.29,1.02,0.5303739951337507,0.30192732805866923,0.4955072805979803,0.6658626603312994,0.3752449251333164,0.7028517976953871
44.761,44.34,1.05,0.5325667850549725,0.3044085275930235,0.4984733045896422,0.664573591148515,0.3793125507784093,0.7017745831179661
44.823,44.4,1.1,0.534760891227961,0.3068801331684467,0.5014345960758513,0.6632870400955063,0.3833774176042147,0.7006859719953086
44.885,44.45,1.13,0.536956718019828,0.3093409375019512,0.5043909085790581,0.6620025824853681,0.38743846215093913,0.699585196040059
44.927,44.51,1.15,0.5391546607520248,0.31178975252618235,0.5073419990011505,0.6607197952019735,0.3914946337683612,0.6984714932721989
44.988,44.56,1.18,0.541355105155384,0.31422541036446433,0.5102876276583109,0.6594382572157044,0.3955448952565764,0.6973441088025573
45.05,44.62,1.22,0.5435584268376823,0.31664676429271726,0.5132275583107699,0.6581575500879925,0.39958822348053236,0.6962022956108826
45.091,44.67,1.23,0.5457649907644259,0.31905268968713824,0.5161615581876767,0.6568772584642305,0.40362360995839347,0.6950453153177393
45.154,44.73,1.24,0.5479751507535687,0.3214420849565662,0.5190893980073499,0.6555969705547615,0.4076500614238982,0.6938724389495353
45.215,44.78,1.26,0.5501892489848657,0.3238138724585048,0.5220108519932354,0.6543162786038078,0.41166660036298647,0.6926829476960328
45.257,44.84,1.25,0.5524076155245401,0.32616699939783617,0.5249256978859373,0.6530347793463128,0.41567226552507236,0.6914761336597047
45.36,44.89,1.23,0.5546305678659011,0.328500438707323,0.5278337169517145,0.6517520744527542,0.41966611240941143,0.6902513005963071
45.381,44.95,1.24,0.5568584104864821,0.3308131899090471,0.5307346939878183,0.6504677709620487,0.423647213727056,0.6890077646460048
45.422,45.0,1.26,0.5590914344222019,0.33310427995596986,0.5336284173249913,0.6491814817027299,0.4276146598389089,0.6877448550543596
45.505,45.06,1.26,0.5613299168589663,0.3353727640528164,0.5365146788273887,0.6478928257026106,0.43156755917037115,0.6864619148824628
45.526,45.11,1.28,0.5635741207420577,0.33761772645550864,0.5393932738901035,0.6466014285871672,0.43550503860305834,0.6851583017054925
45.589,45.17,1.31,0.5658242944035933,0.3398382812483963,0.5422640014344383,0.6453069229669436,0.4394262438440513,0.6838333882989859
45.648,45.22,1.32,0.5680806712082876,0.3420335730985794,0.5451266639010287,0.6440089488143462,0.4433303397731568,0.68248656331214
45.71,45.28,1.33,0.5703434692177052,0.3442027779866858,0.5479810672409361,0.6427071538303141,0.4472165107686825,0.681117231927487
45.772,45.33,1.36,0.5726128908731302,0.34634510391356915,0.5508270209048396,0.641401193801475,0.45108396101227993,0.679724816506328
45.834,45.39,1.36,0.5748891226971394,0.34845979158248375,0.5536643378304887,0.6400907329484964,0.4549319147734558,0.6783087572193339
45.894,45.44,1.36,0.5771723350139395,0.3505461150563158,0.5564928344286179,0.6387754442663658,0.45875961667440784,0.6768685126617539
45.936,45.5,1.38,0.5794626816885917,0.35260338238934386,0.5593123305675785,0.6374550098572409,0.462566331935886,0.6754035604526807
45.999,45.55,1.38,0.5817602998853921,0.3546309362327478,0.5621226495570116,0.6361291212562873,0.46635134660482047,0.6739133978178397
46.101,45.61,1.36,0.584065309845845,0.35662815441276624,0.5649236181309403,0.634797479750636,0.47011396776448133,0.6723975421553707
46.163,45.66,1.36,0.5863778146868055,0.3585944504801511,0.5677150664306813,0.6334597966913699,0.47385352372793677,0.6708555315840908
46.184,45.72,1.36,0.5886979002194038,0.3605292742294432,0.5704968279879586,0.6321157937983386,0.4775693642155663,0.6692869254737122
46.204,45.77,1.35,0.5910256347893384,0.36243211218659943,0.5732687397085467,0.6307652034575755,0.481260860517337,0.6676913049565082
46.246,45.83,1.35,0.5933610691390334,0.36430248806356214,0.5760306418567156,0.6294077690110975,0.48492740564049536,0.6660682734199151
46.307,45.88,1.39,0.595704236292098,0.36613996317841646,0.5787823780406913,0.6280432450388562,0.48856841444325705,0.6644174569795592
46.369,45.94,1.4,0.5980551514604913,0.3679441368397834,0.5815237951993275,0.6266713976325338,0.4921833237550199,0.6627385049322033
46.452,45.99,1.41,0.6004138119748135,0.3697146466940651,0.5842547435901908,0.6252920046607545,0.4957715924835809,0.661031090188122
46.472,46.05,1.44,0.6027801972381429,0.371451169034171,0.586975076779281,0.6239048560251961,0.4993327017098183,0.6592949096824265
46.533,46.1,1.45,0.6051542687038057,0.373153419068426,0.5896846516326235,0.6225097539070322,0.5028661547703057,0.6575296847648466
46.574,46.16,1.45,0.6075359698774073,0.37482115114848963,0.592383328309978,0.6211065130031534,0.5063714773283416,0.6557351615674585
46.636,46.21,1.47,0.6099252263434021,0.3764541589552607,0.5950709702609158,0.6196949607516352,0.5098482174339052,0.6539111113498283
46.698,46.27,1.48,0.612321945816412,0.37805227564188537,0.5977474442235363,0.6182749375459535,0.5132959455730673,0.6520573308210236
46.739,46.32,1.46,0.6147260182174623,0.37961537393312833,0.600412620226116,0.6168462969374509,0.5167142547074108,0.6501736424379473
46.842,46.38,1.46,0.6171373157752386,0.3811433661805188,0.6030663715920125,0.6154089058255708,0.5201027603040065,0.6482598946794481
46.863,46.43,1.46,0.6195556931523816,0.38263620437284507,0.6057085749481464,0.6139626446354064,0.5234611003564789,0.6463159622956689
46.905,46.49,1.43,0.6219809875967692,0.38409388010170686,0.6083391102373693,0.6125074074821409,0.5267889353976454,0.6443417465321029
46.968,46.54,1.43,0.6244130191176551,0.38551642448195017,0.6109578607349709,0.611043102322,0.5300859485041419,0.6423371753278369
47.029,46.6,1.47,0.6268515906864461,0.3869039080269168,0.6135647130695004,0.6095696510893793,0.5333518452933504,0.6403022034874704
47.071,46.65,1.47,0.6292964884618071,0.38825644047854074,0.6161595572479696,0.6080869898198566,0.5365863539128408,0.6382368128261738
47.193,46.71,1.47,0.6317474820387007,0.3895741705924063,0.6187422866854163,0.6065950687588265,0.539789225022449,0.636141012287318
47.214,46.76,1.51,0.6342043247209087,0.39085728587793533,0.6213127982387224,0.6050938524555076,0.5429602317690417,0.6340148380320588
47.275,46.82,1.54,0.6366667538165486,0.3921060122939125,0.6238709922445353,0.6035833198420764,0.5460991697539862,0.6318583535002528
47.296,46.87,1.56,0.6391344909560874,0.3933206138995994,0.6264167725611449,0.6020634642976828,0.5492058569933215,0.6296716494421211
47.358,46.93,1.58,0.6416072424323461,0.3945013924617464,0.6289500466141823,0.6005342936971407,0.552280133870631,0.6274548439201754
47.44,46.98,1.61,0.6440846995620113,0.3956486870178524,0.6314707254460415,0.5989958304441392,0.555321863082644,0.6252080822810218
47.48,47.04,1.61,0.646566539068214,0.39676287339604654,0.6339787237689726,0.5974481114888535,0.5583309295776329,0.6229315370967483
47.564,47.09,1.6,0.6490524234837667,0.3978443636920046,0.6364739600218333,0.5958911883298458,0.5613072404867148,0.6206254080756852
47.585,47.15,1.64,0.6515420015746627,0.3988936057033738,0.6389563564305312,0.5943251270001275,0.5642507250481933,0.618289921942397
47.625,47.2,1.64,0.654034908783436,0.3999110823222336,0.6414258390722065,0.5927500080372171,0.5671613345250854,0.6159253322868212
47.686,47.26,1.62,0.6565307676920041,0.40089731088610303,0.6438823379432322,0.5911659264369336,0.5700390421159711,0.6135319193824968
47.727,47.31,1.61,0.6590291885036484,0.40185284248794995,0.6463257870310996,0.5895729915905552,0.572883842859283,0.6111099899738128
47.788,47.37,1.62,0.6615297695437957,0.4027782612455952,0.6487561243902382,0.5879713272049006,0.5756957535311195,0.6086598770321707
47.849,47.42,1.62,0.6640320977792676,0.40367418353088774,0.6511732922217756,0.5863610712048544,0.5784748125365998,0.6061819394809486
47.932,47.48,1.65,0.6665357493556038,0.40454125715905226,0.653577236957179,0.5847423756178814,0.5812210797946991,0.6036765618891935
47.952,47.53,1.68,0.6690402901520004,0.40538016053869175,0.6559679093456654,0.5831154064401068,0.5839346366164079,0.6011441541340372
48.014,47.59,1.7,0.6715452763533301,0.406191601783053,0.6583452645452241,0.581480343483589,0.5866155855760035,0.5985851510319087
48.076,47.64,1.72,0.6740502550386236,0.4069763177833489,0.6607092622170713,0.5798373802044584,0.5892640503751856,0.5960000119386926
48.116,47.7,1.77,0.6765547647853013,0.40773507324515296,0.6630598666233595,0.5781867235116415,0.5918801756998417,0.5933892203190555
48.178,47.75,1.78,0.6790583362883675,0.4084686596890918,0.6653970467279734,0.5765285935559332,0.5944641270692447,0.5907532832852326
48.24,47.81,1.8,0.6815604929937301,0.40917789441721236,0.667720776300253,0.5748632234992338,0.5970160906775357,0.5880927311056336
48.281,47.86,1.82,0.6840607517447764,0.40986361944650634,0.6700310340214721,0.573190859263851,0.5995362732274131,0.5854081166836885
48.342,47.92,1.84,0.6865586234413081,0.41052670041117384,0.6723278035938741,0.5715117592618723,0.6020249017560045,0.582700015007409
48.404,47.97,1.83,0.6890536137098876,0.4111680254353148,0.6746110738520414,0.5698261941047069,0.604482223452952,0.579969022570214
48.467,48.03,1.83,0.6915452235845946,0.4117885039778591,0.6768808388763721,0.5681344462929955,0.6069085054707677,0.5772157567636439
48.509,48.08,1.83,0.6940329501971485,0.41238906565163475,0.6791370981084262,0.566436809887168,0.6093040347275358,0.5744408552426733
48.592,48.14,1.82,0.696516287475351,0.4129706590185007,0.681379856467918,0.5647335901589696,0.611669117702017,0.571644975264402
48.655,48.19,1.81,0.6989947268488018,0.41353425036246383,0.6836091244711225,0.5630251032242611,0.6140040802211819,0.5688287930009815
48.676,48.25,1.84,0.7014677579608158,0.4140808224427329,0.6858249183504397,0.561311675657407,0.6163092672401342,0.565993002827684
48.717,48.3,1.84,0.7039348693853713,0.41461137322875263,0.6880272601748066,0.5595936440875593,0.6185850426143175,0.5631383165870621
48.798,48.36,1.88,0.7063955493478123,0.41512691461938594,0.6902161779705878,0.5578713547771674,0.6208317888638207,0.5602654628301793
48.86,48.41,1.91,0.7088492864479052,0.4156284711485352,0.6923917058425059,0.5561451631830335,0.6230499069295551,0.557375186035922
48.902,48.47,1.93,0.7112955703837638,0.41611707867958503,0.6945538840941405,0.5544154335002147,0.6252398159210446,0.5544682458094389
48.964,48.52,1.94,0.7137338926751149,0.4165937830911157,0.6967027593475043,0.552682538189043,0.6274019528555982,0.5515454160607697
49.026,48.58,1.96,0.7161637473843746,0.4170596389563846,0.6988383846612192,0.5509468574855245,0.6295367723886766,0.5486074841647441
49.047,48.63,1.99,0.7185846318340208,0.41751570821911627,0.7009608196468481,0.5492087788953665,0.6316447465353298,0.5456552501032682
49.108,48.69,1.99,0.7209960473187789,0.4179630588681866,0.7030701305829851,0.5474686966718866,0.6337263643826322,0.5426895255911826
49.169,48.74,2.0,0.7233974998111735,0.41840276361386974,0.7051663905267536,0.545727011278106,0.6357821317930843,0.5397111331869616
49.23,48.8,2.02,0.7257885006589887,0.4188358985684344,0.7072496794223885,0.5439841288334221,0.6378125710989814,0.5367209053895782
49.29,48.85,2.01,0.7281685672731681,0.41926354193400434,0.7093200842065845,0.54224046054538,0.639818220787777,0.5337196837228803
49.392,48.91,2.0,0.7305372238046621,0.41968677270070437,0.7113776989102985,0.5404964221271414,0.6417996351784812,0.5307083178088124
49.413,48.96,2.01,0.7328940018086905,0.4201066693581932,0.713422624756671,0.5387524332013194,0.6437573840891374,0.5276876644307777
49.453,49.02,2.02,0.7352384408948416,0.4205243086237361,0.7154549702547008,0.5370089166909024,0.6456920524954002,0.5246585865883934
49.514,49.07,2.02,0.7375700893613765,0.42094076419001175,0.7174748512882498,0.5352662981980649,0.6476042401802053,0.5216219525448585
49.575,49.13,2.04,0.7398885048120406,0.4213571054958695,0.7194823911998932,0.5335250053717391,0.649494561374476,0.5185786348681402
49.615,49.18,2.07,0.7421932547536806,0.4217743965232378,0.7214777208690819,0.5317854672649193,0.6513636443887754,0.515529509467182
49.678,49.24,2.08,0.7444839171730105,0.4221936946232754,0.7234609787840498,0.5300481136827868,0.6532121312358028,0.5124754546243794
49.802,49.29,2.1,0.7467600810910127,0.422616049374629,0.7254323111068702,0.5283133745229558,0.6550406772436405,0.5094173500256045
49.822,49.35,2.13,0.7490213470936911,0.4230425014763294,0.7273918717310539,0.5265816791093759,0.6568499506596811,0.5063560757891196
49.842,49.4,2.14,0.751267327838164,0.4234740816774804,0.7293398223311084,0.524853455521532,0.6586406322452166,0.5032925114947288
49.903,49.46,2.14,0.7534976485333751,0.4239118097454945,0.7312763324035504,0.5231291299204742,0.660413414860704,0.5002275352144969
49.987,49.51,2.16,0.7557119473949758,0.42435669347424676,0.7332015792989522,0.521409125873002,0.6621690030417858,0.49716202254631686
50.007,49.57,2.17,0.7579098760741437,0.4248097277331883,0.7351157482446707,0.5196938636751302,0.6639081125661807,0.49409684565154327
50.05,49.62,2.15,0.7600911000602352,0.42527189355817385,0.7370190323579482,0.5179837596758937,0.6656314700115968,0.49103287229788123
50.132,49.68,2.15,0.7622552990572233,0.4257441572845052,0.7389116326490643,0.5162792256025913,0.6673398123048345,0.48797096490871156
