Time_Host,Time_Arduino,easingdata,CH1_Oxy,CH1_Deoxy,CH2_Oxy,CH2_Deoxy,CH3_Oxy,CH3_Deoxy
1.357,0.04,0.0,0.7961710962598747,0.6645536864881535,0.8353246452574352,0.5938390272766527,0.5588199258546501,0.33403021599831373
1.377,0.1,0.0,0.7998946305750549,0.6645288062064362,0.84130756405535,0.5961650435927939,0.5660879329102432,0.3471859883205765
1.398,0.16,0.0,0.8036454202997363,0.664514050579595,0.8472309456394599,0.5984521502321913,0.5733767369889546,0.3602999267250985
1.419,0.21,0.0,0.8074214559685736,0.6645099403595651,0.8530908619310951,0.6006997049488474,0.5806833764833966,0.37336697263073454
1.44,0.27,0.0,0.8112206870488106,0.6645169976071712,0.8588834151949784,0.6029071105803825,0.5880048688921335,0.3863821146329548
1.461,1.06,0.0,0.8150410236280087,0.6645357449731993,0.8646047425267847,0.6050738156069602,0.595338213445698,0.39934039310179514
1.482,1.11,0.0,0.8188803381615289,0.6645667049593346,0.8702510203149938,0.6071993146290229,0.6026803937575912,0.41223690469467095
1.523,1.17,0.0,0.822736467276785,0.6646103991601033,0.87581846866714,0.6092831487628799,0.6100283804961345,0.42506680677748593
1.584,1.22,0.0,0.8266072136311075,0.6646673474870599,0.8813033557903812,0.6113249059533806,0.6173791340729289,0.4378253217475919
1.687,1.28,0.0,0.8304903478198713,0.664738067376554,0.8867020023161544,0.6133242212030996,0.624729607343566,0.45050774125227516
1.708,1.33,0.38,0.8343836103313483,0.6648230729825201,0.8920107855585021,0.6152807767176557,0.6320767483161116,0.4631094302965423
1.77,1.39,0.36,0.83828471354455,0.6649228743558566,0.8972261436954946,0.6171943019670066,0.6394175028627829,0.47562583123405483
1.812,1.44,0.41,0.842191343766149,0.66503797661213,0.9023445798631143,0.6190645736628091,0.6467488174301952,0.4880524676350985
1.853,1.5,0.75,0.8461011633025087,0.6651688790895126,0.907362666151194,0.6208914156521723,0.6540676417436031,0.5003849480255242
1.914,1.55,0.84,0.8500118125629721,0.6653160744989488,0.9122770474915892,0.6226746987282747,0.6613709315006833,0.5126189694907942
1.976,1.61,0.89,0.8539209121907426,0.6654800480685911,0.9170844454295455,0.6244143403584632,0.668655651050561,0.5247503211396776
2.059,1.66,0.91,0.8578260652177992,0.6656612766846224,0.9217816617699304,0.6261103043307451,0.6759187760539634,0.5367748874226882
2.08,1.72,1.11,0.861724859240305,0.6658602280307301,0.926365582090661,0.6277626003199668,0.6831572961205724,0.5486886513009226
2.142,1.77,1.09,0.865614868611008,0.6660773597286079,0.9308331791163359,0.629371283375322,0.6903682174198228,0.5604876972615538
2.184,1.83,1.12,0.8694936566451803,0.666313118481909,0.9351815159457298,0.6309364533310883,0.6975485652615053,0.5721682141768947
2.247,1.88,1.49,0.8733587778366767,0.6665679392260615,0.9394077491274382,0.6324582541427093,0.7046953866426211,0.583726498004609
2.309,1.94,1.43,0.8772077800807467,0.6668422442862876,0.9435091315785518,0.6339368731504844,0.7118057527570155,0.5951589543272071
2.35,1.99,1.46,0.8810382069002584,0.6671364425460657,0.9474830153418614,0.6353725402732501,0.7188767614644314,0.6064621007294022
2.473,2.05,1.77,0.8848475996720025,0.6674509286282224,0.9513268541777542,0.6367655271345416,0.7259055397157523,0.6176325690122376
2.493,2.1,1.82,0.888633499849818,0.6677860820907807,0.9550382059877989,0.6381161461237707,0.7328892459313852,0.6286671072432252
2.534,2.16,1.85,0.8923934511814033,0.6681422666396247,0.9586147350679278,0.6394247493949777,0.7398250723298846,0.6395625816420804
2.596,2.21,1.98,0.8961250019158028,0.6685198293600108,0.9620542141898967,0.6406917278058644,0.7467102472041035,0.6503159783020179
2.658,2.27,2.18,0.8998257069986483,0.6689190999689835,0.9653545265103524,0.6419175098000672,0.7535420371423384,0.660924404746904
2.699,2.32,2.14,0.9034931302523477,0.6693403900907615,0.9685136673074298,0.6431025602358631,0.7603177491921216,0.6713850913248788
2.779,2.38,2.15,0.9071248465385238,0.669783992557142,0.9715297455452964,0.6442473791646977,0.7670347329644864,0.6816953924393644
2.799,2.43,2.47,0.9107184439000746,0.6702501807349324,0.9744009852674,0.6453525005631299,0.7736903826766945,0.6918527876186509
2.841,2.49,2.33,0.9142715256802811,0.6707392078823776,0.9771257268194323,0.646418491021975,0.7802821391315713,0.7018548824254991
2.903,2.54,2.29,0.917781712616406,0.6712513065364902,0.9797024279032123,0.6474459483965919,0.7868074916317317,0.7116994092084409
2.964,2.6,2.55,0.921246644905218,0.6717866879331615,0.982129664462916,0.6484355004223988,0.7932639798271082,0.7213842276966721
3.025,2.65,2.59,0.9246639842378899,0.6723455414618513,0.9844061314053809,0.6493878032997284,0.7996491954942939,0.7309073254406467
3.088,2.71,2.61,0.9280314158017657,0.6729280341565134,0.9865306431565539,0.6503035402520653,0.805960784246304,0.7402668181006841
3.149,2.76,2.72,0.9313466502465395,0.6735343102242589,0.9885021340564263,0.6511834200616409,0.8121964471714329,0.7494609495861253
3.191,2.82,2.91,0.9346074256124292,0.674164490613144,0.9903196585950279,0.6520281755863223,0.8183539424000218,0.7584880920477539
3.233,2.87,2.88,0.9378115092180638,0.6748186726203537,0.9919823914923424,0.6528385622616489,0.824431086598085,0.767346745726371
3.314,2.93,2.91,0.9409566995059685,0.6754969295419385,0.9934896276252627,0.6536153565917823,0.8304257563869101,0.7760355386605832
3.354,2.98,3.26,0.9440408278437222,0.6761993103651679,0.994840781804936,0.6543593546330564,0.8363358896879096,0.7845532262570303
3.417,3.04,3.14,0.9470617602790475,0.6769258395044712,0.9960353884080165,0.6550713704737545,0.8421594869921731,0.7928986907264044
3.519,3.09,3.09,0.9500173992472862,0.677676516581859,0.9970731008654861,0.6557522347137089,0.8478946125543431,0.8010709403887525
3.54,3.15,3.31,0.9529056852298678,0.6784513162526854,0.9979536910128233,0.6564027929473226,0.853539395510614,0.8090691088516567
3.582,3.2,3.3,0.9557245983625936,0.6792501880775311,0.9986770483054975,0.6570239042535668,0.8590920309208198,0.8168924540649944
3.643,3.26,3.3,0.9584721599928063,0.6800730564408433,0.999243178903974,0.6576164396963965,0.8645507807346982,0.8245403572561236
3.745,3.31,3.36,0.9611464341847132,0.6809198205167798,0.9996522046325266,0.658181280838927,0.8699139746825144,0.8320123217494798
3.765,3.37,3.58,0.9637455291722538,0.6817903542825706,0.9999043618161667,0.6587193182746698,0.8751800110903217,0.8393079716746926
3.785,3.42,3.51,0.9662675987590365,0.6826845065795465,1.0,0.6592314501790622,0.8803473576202433,0.8464270505673662
3.888,3.48,3.49,0.9687108436649877,0.6836021012218371,0.9999395805553271,0.6597185808844542,0.8854145519362716,0.8533694198666908
3.908,3.53,3.82,0.9710735128194736,0.6845429371525908,0.9997236751767853,0.6601816194816356,0.8903802022962136,0.8601350573140434
3.949,3.59,3.68,0.9733539046007699,0.6855067886474304,0.9993529642748107,0.6606214784508889,0.8952429880705508,0.866724055256716
4.011,3.64,3.6,0.9755503680218388,0.6864934055647519,0.9988282352676718,0.661039072325468,0.9000016601891184,0.8731366188609245
4.053,3.7,3.79,0.9776613038624153,0.6875025136424051,0.9981503807772848,0.6614353163903295,0.904655041516647,0.8793730642382619
4.112,3.75,3.77,0.9796851657474662,0.688533814840211,0.9973203967330804,0.6618111254187936,0.9092020271583277,0.885433816489746
4.175,3.81,3.74,0.981620461172212,0.6895869877275933,0.9963393803883263,0.6621674124495012,0.9136415846966386,0.8913194076716452
4.256,3.86,3.72,0.9834657524740206,0.6906616879154018,0.9952085282534379,0.6625050876056313,0.9179727543607263,0.8970304746873011
4.276,3.92,3.85,0.985219657751581,0.691757548530809,0.9939291339509083,0.6628250569579432,0.9221946491296716,0.9025677571091972
4.378,3.97,3.71,0.9868808517318789,0.6928741807339754,0.9925025859965859,0.6631282214328259,0.9263064547710196,0.9079320949355135
4.399,4.03,3.63,0.9884480665855946,0.6940111742749974,0.9909303655120714,0.663415475766243,0.9303074298159614,0.9131244262853955
4.462,4.08,3.95,0.9899200926915592,0.695168098089517,0.9892140438729699,0.6636877075042404,0.9341969054725642,0.9181457850371354
4.524,4.14,3.83,0.9912957793508865,0.696344500931261,0.9873552802976736,0.6639457960504862,0.9379742854784247,0.9229972984134411
4.625,4.19,3.77,0.9925740354513279,0.6975399120397104,0.9853558193812664,0.6641906117611738,0.941639045894112,0.9276801845179684
4.646,4.25,3.95,0.9937538300823373,0.698753841841115,0.9832174885790691,0.6644230150875376,0.9451907348387802,0.9321957498272746
4.667,4.3,3.97,0.9948341931013238,0.699985782681082,0.9809421956443852,0.6646438557661322,0.9486289721693855,0.9365453866422863
4.729,4.36,3.95,0.9958142156516923,0.7012352095869477,0.9785319260251316,0.6648539720568595,0.9519534491049859,0.9407305705033213
4.771,4.41,3.96,0.9966930506333846,0.7025015810581021,0.9759887402241276,0.6650541900285611,0.9551639277976548,0.9447528575726434
4.831,4.47,4.13,0.9974699131267319,0.7037843398824466,0.9733147711278314,0.6652453228918834,0.9582602408515921,0.948613881988464
4.892,4.52,4.0,0.9981440807705675,0.7050829139771417,0.9705122213083496,0.6654281703789897,0.9612422907920819,0.9523153531942123
5.036,4.58,3.89,0.998714894095678,0.7063967172517649,0.9675833603035959,0.6656035181695574,0.9641100494859917,0.9558590532468015
5.056,4.63,4.16,0.9991817568148024,0.7077251504919536,0.9645305218805648,0.6657721373623319,0.9668635575155503,0.9592468341075275
5.077,4.69,4.02,0.9995441360704601,0.7090676022615593,0.9613561012868239,0.6659347839913317,0.9695029235071579,0.9624806149191419
5.118,4.74,3.95,0.9998015626419461,0.7104234498213005,0.9580625524954917,0.6660921985856053,0.972028323416969,0.9655623792725724
5.179,4.8,4.11,0.9999536311127966,0.7117920600619323,0.9546523854490072,0.666245105771335,0.9744399997749766,0.9684941724666762
5.219,4.85,4.15,1.0,0.7131727904499715,0.9511281633069978,0.6663942139149965,0.9767382608893187,0.9712780987642787
5.28,4.91,4.1,0.9999403918462781,0.7145649899839871,0.9474924997035189,0.6665402148061632,0.9789234800125155,0.9739163186476156
5.362,4.96,4.08,0.9997745932768304,0.7159680001594165,0.9437480560188674,0.6666837833784477,0.9809960944713564,0.9764110460761981
5.383,5.02,4.26,0.9995024550219898,0.7173811559398586,0.9398975386710405,0.6668255774670373,0.9829566047621746,0.978764545750005
5.444,5.07,4.12,0.9991238919073507,0.7188037867327688,0.9359436964317883,0.666966237601267,0.9848055736132894,0.9809791303808186
5.487,5.13,3.99,0.9986388828130165,0.7202352173674368,0.9318893177720445,0.6671063868306729,0.9865436250164077,0.9830571579744335
5.549,5.18,4.28,0.9980474706037004,0.7216747690731002,0.9277372282413344,0.6672466305829627,0.9881714432287878,0.985001029126383
5.611,5.24,4.15,0.9973497620314606,0.7231217604550214,0.9234902878855841,0.6673875565523008,0.989689771747953,0.9868131843337733
5.652,5.29,4.05,0.9965459276128646,0.7245755084663635,0.9191513887075641,0.667529734616254,0.9910994122606993,0.9884961013257667
5.736,5.35,4.13,0.995636201482285,0.7260353293737966,0.9147234521739543,0.6676737167797836,0.9924012235681172,0.9900522924152161
5.756,5.4,4.14,0.9946208812229166,0.7275005397148657,0.9102094267727483,0.6678200371447232,0.9935961204883235,0.9914843018738155
5.817,5.46,4.06,0.993500327677011,0.7289704572452124,0.9056122856244672,0.6679692119032038,0.9946850727385549,0.9927947033329975
5.877,5.51,4.08,0.992274964736692,0.73044440187376,0.9009350241503549,0.6681217393535092,0.9956691037982182,0.99398609721266
5.938,5.57,4.3,0.9909452791165115,0.7319216965840503,0.8961806578003584,0.6682780999369127,0.9965492897544305,0.9950611081796653
6.001,5.62,4.15,0.9895118201086953,0.7334016683399945,0.8913522198433204,0.6684387562941215,0.9973267581315381,0.9960223826378928
6.083,5.68,3.99,0.9879751993218404,0.734883648974379,0.8864527592214388,0.6686041533400076,0.9980026867060828,0.9968725862514362
6.104,5.73,4.27,0.9863360904037081,0.7363669760585366,0.8814853384707083,0.6687747183553799,0.9985783023086787,0.9976144015023474
6.164,5.79,4.19,0.9845952287486741,0.7378509937516695,0.8764530317087494,0.6689508610946074,0.9990548796142552,0.9982505252841702
6.226,5.84,4.09,0.9827534111903042,0.7393350536283869,0.8713589226911204,0.6691329739079874,0.9994337399220844,0.9987836665324257
6.287,5.9,4.11,0.9808114956793408,0.7408185154831838,0.8662061029367978,0.6693214318779237,0.9997162499269641,0.9992165438931515
6.327,5.95,4.14,0.9787704009471815,0.7423007481107416,0.8609976699230988,0.6695165929681761,0.9999038204829034,0.9995518834304971
6.389,6.01,4.0,0.9766311061548034,0.7437811300610286,0.8557367253499493,0.6697187981855903,0.9999979053606085,0.9997924163742643
6.451,6.06,3.91,0.9743946505269518,0.7452590503682404,0.8504263734730345,0.6699283717538407,1.0,0.9999408769082256
6.471,6.12,4.13,0.9720621329712373,0.7467339092527253,0.8450697195049809,0.6701456212988542,0.9999116402588781,1.0
6.533,6.17,3.93,0.9696347116815524,0.7482051187951588,0.8396698680833191,0.6703708380456836,0.9997344011587426,0.9999725192731982
6.593,6.23,3.83,0.9671136037249964,0.7496721035823292,0.8342299218036314,0.6706042970266363,0.9994698956286399,0.9998611649224782
6.655,6.28,4.08,0.9645000846112768,0.7511343013240044,0.828752979816014,0.670846257300451,0.9991197732478015,0.9996686616720674
6.696,6.34,4.03,0.9617954878434355,0.7525911634404224,0.8232421364828612,0.6710969621822267,0.9986857189877276,0.9993977267782442
6.758,6.39,3.95,0.9590012044486493,0.7540421556200704,0.8177004800959117,0.6713566394837079,0.9981694519542782,0.9990510680762802
6.819,6.45,3.98,0.9561186824876782,0.7554867583476551,0.8121310916503586,0.6716255017635597,0.9975727241302651,0.9986313820723527
6.879,6.5,4.07,0.9531494265413497,0.7569244674024866,0.8065370436736282,0.671903746587406,0.9968973191190006,0.9981413520809285
6.921,6.56,3.95,0.9500949971723488,0.7583547943277433,0.8009213991062811,0.6721915567975325,0.9961450508892284,0.997583646408101
6.982,6.61,3.92,0.9469570103605537,0.7597772668712155,0.7952872102323884,0.672489100792215,0.9953177625218079,0.9969609165813889
7.043,6.67,4.18,0.9437371369101822,0.7611914293981714,0.7896375176566989,0.6727965328146349,0.9944173249584681,0.9962757956265328
7.105,6.72,3.99,0.9404371018270843,0.762596843276959,0.7839753493259444,0.6731139932512504,0.9934456357528973,0.995530896391856
7.207,6.78,3.82,0.9370586836646135,0.763993087237903,0.7783037195916667,0.6734416089393825,0.9924046178243744,0.9947288099207413
7.228,6.83,3.98,0.9336037138365814,0.765379757706031,0.7726256283119407,0.6737794934837054,0.9912962182141256,0.9938721038727396
7.269,6.89,3.92,0.9300740758958868,0.766756469108114,0.7669440599893552,0.6741277475812567,0.9901224068445228,0.9929633209937806
7.309,6.94,3.86,0.9264717047775007,0.768122854154426,0.7612619829425873,0.674486459354508,0.9888851752811428,0.9920049776359746
7.35,7.0,3.9,0.9227985860044914,0.7694785640955586,0.7555823485087897,0.6748557046920056,0.9875865354975795,0.9909995623275698
7.41,7.05,4.06,0.9190567548557419,0.7708232689546048,0.7499080902738685,0.6752355475961188,0.9862285186427927,0.9899495343936656
7.471,7.11,3.95,0.9152482954940437,0.7721566577349936,0.7442421233276301,0.6756260405374412,0.984813173810705,0.9888573226283107
7.595,7.16,3.89,0.911375340053355,0.7734784386042028,0.7385873435407447,0.6760272248153728,0.9833425668117104,0.98772532401862
7.617,7.22,4.22,0.907440067684145,0.7747883390535452,0.7329466268604768,0.6764391309243754,0.9818187789457404,0.9865559025215249
7.636,7.27,4.07,0.9034447035559136,0.7760861060341872,0.7273228286222095,0.6768617789253231,0.9802439057765423,0.9853513878937318
7.697,7.33,4.03,0.8993915178161084,0.7773715060695683,0.7217187828738768,0.6772951788213109,0.9786200559068197,0.9841140745754147
7.738,7.38,4.2,0.8952828245047548,0.7786443253444556,0.7161373017105246,0.6777393309372627,0.9769493497539266,0.982846220628089
7.8,7.44,4.13,0.8911209804242397,0.7799043697709258,0.7105811746163934,0.6781942263026448,0.9752339183258455,0.981550046726984
7.862,7.49,4.08,0.8869083839638527,0.7811514650315459,0.7050531678121615,0.6786598470364589,0.9734759019972083,0.9802277352081167
7.924,7.55,4.04,0.8826474738788269,0.7823854565999786,0.6995560236051855,0.6791361667335494,0.9716774492851427,0.9788814291701862
7.985,7.6,4.22,0.8783407280236875,0.7836062097392144,0.6940924597407144,0.6796231508511473,0.9698407156246999,0.9775132316313073
8.026,7.66,4.09,0.8739906620398257,0.7848136094775734,0.6886651687521663,0.6801207570944651,0.9679678621436303,0.9761252047405197
8.069,7.71,4.0,0.8695998279973152,0.7860075605625397,0.6832768173086072,0.6806289358000793,0.9660610544362113,0.9747193690439271
8.129,7.77,4.37,0.8651708129910928,0.7871879873924128,0.6779300455575751,0.6811476303158186,0.9641224613358328,0.973297702805249
8.192,7.82,4.25,0.8607062376917378,0.7883548339256942,0.672627466461429,0.6816767773758623,0.962154253686028,0.9718621413805129
8.294,7.88,4.2,0.8562087548512336,0.7895080635680922,0.6673716651254769,0.6822163074697859,0.9601586031096628,0.9704145766466099
8.335,7.93,4.37,0.8516810477642484,0.7906476590370523,0.6621651981162618,0.6827661452043584,0.9581376807760509,0.9689568564833877
8.355,7.99,4.44,0.8471258286857108,0.7917736222037322,0.6570105927686193,0.6833262096569385,0.9560936561658598,0.9674907843088685
8.417,8.04,4.4,0.8425458372057816,0.7928859739122714,0.6519103464804139,0.683896414719266,0.9540286958337799,0.9660181186670589
8.458,8.1,4.37,0.8379438385836356,0.7939847537761104,0.646866925994114,0.6844766694304073,0.951944962169016,0.9645405728677261
8.519,8.15,4.56,0.8333226220417378,0.7950700199510523,0.6418827666644961,0.6850668782976339,0.9498446121537891,0.9630598146774048
8.58,8.21,4.4,0.8286849990224933,0.7961418488847292,0.6369602717118754,0.6856669416040709,0.9477297961201403,0.9615774660607797
8.662,8.26,4.23,0.8240338014093298,0.7972003350421055,0.632101811460341,0.6862767557020079,0.9456026565054328,0.9600951029714796
8.683,8.32,4.49,0.8193718797143441,0.7982455906066661,0.6273097225605409,0.6868962132908446,0.9434653266070101,0.9586142551912333
8.744,8.37,4.36,0.8147021012346832,0.7992777451569473,0.6225863071966724,0.6875252036786842,0.9413199293365098,0.9571364062162855
8.785,8.43,4.29,0.8100273481798062,0.8002969453181149,0.617933832277423,0.6881636130266124,0.939168575974318,0.9556629931899748
8.846,8.48,4.42,0.8053505157716389,0.8013033543884014,0.6133545286106596,0.6888113245747903,0.937013364924655,0.9541954068803697
8.927,8.54,4.49,0.8006745103194747,0.802297151940362,0.608850590061758,0.6894682188495529,0.9348563804717808,0.9527349917017958
8.949,8.59,4.41,0.7960022472713919,0.8032785333970149,0.6044241726957016,0.6901341738506968,0.9326996915378651,0.9512830457790052
9.031,8.65,4.39,0.7913366492439199,0.8042477095830236,0.6000773939033445,0.6908090652181147,0.9305453504431077,0.9498408210526635
9.092,8.7,4.61,0.7866806440316436,0.8052049062512354,0.5958123315124049,0.6914927663770211,0.928395391668792,0.9484095234247805
9.134,8.76,4.45,0.7820371625984486,0.8061503635850431,0.5916310228838428,0.6921851486611797,0.9262518306240535,0.9469903129426442
9.195,8.81,4.3,0.7774091370521111,0.807084335677187,0.5875354639942739,0.6928860814137519,0.9241166624172411,0.9455843040197763
9.257,8.87,4.53,0.7727994986039698,0.8080070899857474,0.5835276085050806,0.6935954320655914,0.9219918606328396,0.9441925656923749
9.299,8.92,4.43,0.768211175515447,0.808918906768207,0.5796093668189263,0.6943130661909785,0.9198793761149969,0.9428161219096906
9.401,8.98,4.32,0.7636470910332072,0.8098200784945773,0.5757826051244133,0.695038847540954,0.9177811357587297,0.9414559518568325
9.422,9.03,4.31,0.7591101613146425,0.8107109092407576,0.5720491444295439,0.6957726380546814,0.9156990413099145,0.9401129903085694
9.483,9.09,4.35,0.7546032933452314,0.8115917140634906,0.568410759584516,0.6965142978495702,0.9136349681751985,0.9387881280127314
9.504,9.14,4.2,0.7501293828491986,0.8124628183584082,0.5648691782943137,0.6972636851911229,0.9115907642429844,0.9374822121018562
9.565,9.2,4.1,0.7456913121947959,0.8133245572027531,0.5614260801215171,0.6980206564436477,0.9095682487166317,0.936196046531773
9.627,9.25,4.33,0.7412919482953957,0.8141772746844526,0.5580830954797162,0.6987850660031653,0.9075692109609877,0.9349303925458531
9.689,9.31,4.12,0.7369341405074668,0.8150213232192851,0.5548418046178785,0.6995567662140216,0.9055954093633295,0.9336859691636488
9.77,9.36,3.98,0.7326207185264056,0.815857062857901,0.5517037365959898,0.7003356072708944,0.9036485702097552,0.9324634536926187
9.791,9.42,4.16,0.7283544902811161,0.8166848605844653,0.5486703682523039,0.7011214371080086,0.9017303865780508,0.9312634822615946
9.833,9.47,4.1,0.7241382398282252,0.8175050896086639,0.545743123162645,0.7019141012774455,0.8998425172480418,0.9300866503746513
9.916,9.53,4.03,0.7199747252468761,0.8183181286527798,0.5429233705923618,0.7027134428184324,0.8979865856304051,0.9289335134841088
9.957,9.58,4.01,0.7158666765350488,0.8191243612355725,0.5402124244416151,0.7035193021195809,0.8961641787149086,0.9278045875815183
10.018,9.64,4.12,0.7118167935083664,0.8199241749547629,0.5376115421847204,0.7043315167761425,0.8943768460390409,0.926700349805572
10.08,9.69,3.98,0.7078277437023973,0.8207179607699618,0.5351219238043774,0.7051499214444042,0.8926260986780188,0.9256212390659676
10.162,9.75,3.88,0.7039021602795715,0.8215061122878652,0.5327447107217421,0.7059743476953115,0.8909134082571758,0.9245676566823509
10.183,9.8,4.13,0.7000426399419436,0.822289025051482,0.5304809847234166,0.7068046238693495,0.8892402059877484,0.9235399670375694
10.224,9.86,3.92,0.6962517408511704,0.8230670958350806,0.5283317668865499,0.7076405749346287,0.8876078817270889,0.9225384982445523
10.266,9.91,3.75,0.6925319805571791,0.8238407219464524,0.5262980165033441,0.7084820223500388,0.8860177830643342,0.9215635428262253
10.327,9.97,3.88,0.6888858339370567,0.8246103005380675,0.5243806300063988,0.7093287839352479,0.8844712144325644,0.9206153584079372
10.389,10.02,3.79,0.685315731145755,0.8253762279286511,0.5225804398965467,0.7101806737491733,0.8829694362484694,0.9196941684219336
10.452,10.08,3.71,0.6818240555802924,0.8261388989366106,0.5208982136750949,0.7110375019783237,0.8815136640804915,0.918800162823503
10.515,10.13,3.66,0.6784131418591766,0.8268987062266138,0.519334652782536,0.7118990748362445,0.880105067846338,0.917933498818518
10.556,10.19,3.82,0.6750852738187635,0.8276560396704883,0.5178903915458375,0.7127651944751999,0.8787447710406844,0.9170943016021428
10.617,10.24,3.68,0.6718426825283116,0.8284112857234635,0.5165659961364709,0.7136356589111207,0.8774338499938459,0.9162826651084776
10.678,10.3,3.56,0.6686875443255539,0.8291648268165822,0.5153619635414181,0.7145102619627165,0.8761733331621409,0.9154986527708744
10.759,10.35,3.88,0.6656219788747024,0.8299170407659651,0.5142787205494976,0.7153887932055025,0.8749642004506647,0.9147422982926308
10.78,10.41,3.72,0.6626480472489198,0.8306683001994711,0.513316622755509,0.7162710379413473,0.8738073825691812,0.9140136064277485
10.883,10.46,3.61,0.6597677500394137,0.8314189720012248,0.5124759535848541,0.7171567771840159,0.8727037604218524,0.9133125537714794
10.903,10.52,3.77,0.6569830254933887,0.8321694167744473,0.5117569233414503,0.7180457876611133,0.871654164531556,0.9126390895604035
10.966,10.57,3.75,0.6542957476832147,0.8329199883230048,0.5111596682819639,0.7189378418327291,0.870659374499587,0.9119931364817621
10.985,10.63,3.66,0.6517077247093592,0.8336710331519629,0.5106842497196256,0.7198327079269092,0.8697201185015749,0.9113745914917291
11.047,10.68,3.61,0.6492206969398043,0.8344228899873127,0.5103306531610989,0.7207301499918913,0.868837072820473,0.9107833266422791
11.109,10.74,3.75,0.6468363352887954,0.8351758893149636,0.5100987874800293,0.7216299279648651,0.8680108614174965,0.9102191899162657
11.15,10.79,3.62,0.6445562395378835,0.8359303529390298,0.5099884841310943,0.7225317977568133,0.867242055541914,0.9096820060702828
11.252,10.85,3.48,0.6423819367023696,0.8366865935593374,0.5099994964085376,0.7234355113527596,0.8665311733805858,0.9091715774848499
11.273,10.9,3.71,0.640314879446355,0.8374449143679633,0.5101314987532908,0.7243408169265589,0.8658786797481399,0.9086876850213895
11.314,10.96,3.53,0.6383564445496913,0.8382056086644936,0.5103840861128496,0.7252474589691897,0.8652849858186619,0.9082300888853441
11.397,11.01,3.43,0.636507931430111,0.8389689594895897,0.5107567733580944,0.7261551784294022,0.8647504488997492,0.9077985294946487
11.438,11.07,3.54,0.6347705607237083,0.8397352392764481,0.5112489947611955,0.7270637128655583,0.8642753722497492,0.907392728352634
11.5,11.12,3.57,0.6331454729267881,0.8405047095197546,0.5118601035387107,0.7279727966074881,0.8638600049389721,0.9070123889243074
11.541,11.18,3.5,0.6316337271020148,0.8412776204617156,0.51258937146399,0.7288821609271336,0.8635045417556363,0.9066571975148696
11.604,11.23,3.42,0.6302362996517099,0.8420542107947161,0.5134359885528861,0.7297915342167116,0.8632091231572716,0.9063268241492944
11.665,11.29,3.6,0.6289540831610294,0.8428347073801952,0.5143990628265095,0.730700642173225,0.8629738352683141,0.9060209234517692
11.726,11.34,3.44,0.627787885313614,0.8436193249833973,0.5154776201543919,0.7316092079882958,0.8627987099246324,0.9057391355237734
11.767,11.4,3.27,0.6267384278821735,0.8444082660237243,0.5166706041810697,0.7325169525424333,0.8626837247657247,0.9054810868195736
11.828,11.45,3.49,0.6258063457963277,0.8452017203404933,0.5179768763388296,0.7334235946029455,0.8626288033753172,0.9052463910179226
11.889,11.51,3.38,0.6249921862899198,0.8459998649739637,0.5193952159492002,0.7343288510247326,0.8626338154710529,0.9050346498887959
11.971,11.56,3.26,0.6242964081299124,0.8468028639615536,0.5209243204156292,0.735232436953208,0.8626985771439166,0.9048454541540878
11.991,11.62,3.24,0.6237193809287823,0.8476108681492766,0.5225628055095572,0.7361340660286801,0.8628228511479749,0.9046783843412792
12.032,11.67,3.25,0.6232613845421031,0.8484240150185586,0.5243092057518276,0.7370334505916444,0.8630063472409651,0.9045330116291275
12.094,11.73,3.08,0.6229226085527853,0.8492424285286806,0.5261619748911216,0.7379303018885184,0.8632487225761964,0.9044088986844362
12.156,11.78,2.97,0.6227031518432148,0.8500662189751407,0.528119486480837,0.7388243302774321,0.863549582146121,0.904305600489013
12.217,11.84,3.17,0.6226030222562513,0.8508954828643025,0.5301800345554929,0.7397152454338054,0.863908479277802,0.9042226651559693
12.297,11.89,2.93,0.6226221363457765,0.8517303028047346,0.5323418344073976,0.7406027565555631,0.8643249161803573,0.9041596347345594
12.339,11.95,2.81,0.6227603192172195,0.8525707474156571,0.5346030234639745,0.7414865725679319,0.8647983445443072,0.9041160460027865
12.359,12.0,3.01,0.6230173044582562,0.8534168712529105,0.5369616622658397,0.7423664023278302,0.8653281661926112,0.9040914312470022
12.421,12.06,2.94,0.6233927341596966,0.8542687147528494,0.5394157355455067,0.7432419548278858,0.865913733783048,0.9040853190277325
12.482,12.11,2.84,0.6238861590264366,0.8551263041945641,0.5419631534064056,0.7441129394001341,0.8665543515614448,0.9040972349310199
12.543,12.17,2.85,0.624497038578139,0.8559896516809284,0.5446017526016387,0.7449790659195631,0.8672492761651541,0.9041267023046642
12.585,12.22,2.95,0.625224741439098,0.8568587551390909,0.5473292979116041,0.7458400450078223,0.8679977174760767,0.9041732429788057
12.708,12.28,2.82,0.6260685457166196,0.8577335983410806,0.5501434836193714,0.746695588237518,0.8687988395224581,0.9042363779703744
12.728,12.33,2.74,0.6270276394672061,0.8586141509451499,0.5530419350824931,0.7475454083375284,0.8696517614285896,0.9043156281710178
12.749,12.39,2.99,0.6281011212498314,0.8595003685583753,0.5560222103997222,0.7483892193997665,0.8705555584114683,0.9044105150182241
12.812,12.44,2.8,0.6292880007656099,0.8603921928209187,0.5590818021709104,0.749226737087788,0.8715092628233764,0.9045205611494449
12.872,12.5,2.65,0.63058719958316,0.8612895515122424,0.5622181393481434,0.7500576788476376,0.8725118652392573,0.9046452910391167
12.912,12.55,2.79,0.6319975519489162,0.8621923586795087,0.5654285891759508,0.7508817641213836,0.8735623155876854,0.9047842316185443
12.974,12.61,2.72,0.6335178056815833,0.8631005147883339,0.5687104592182746,0.7516987145637969,0.8746595243241255,0.9049369128786531
13.076,12.66,2.68,0.6351466231498781,0.8640139068959352,0.5720609994698038,0.7525082542625445,0.8758023636450514,0.9051028684556753
13.096,12.72,2.68,0.636882582332571,0.864932408846578,0.5754774045491525,0.753310109962131,0.8769896687413457,0.9052816361999
13.137,12.77,2.85,0.6387241779596757,0.8658558814891221,0.5789568159712006,0.7541040112916879,0.8782202390892683,0.9054727587276423
13.198,12.83,2.74,0.6406698227334757,0.866784172916341,0.5824963244957688,0.7548896909965687,0.8794928397771758,0.9056757839565392
13.239,12.88,2.67,0.6427178486279601,0.8677171187255703,0.5860929725496644,0.755666885173573,0.8808062028660848,0.9058902656242368
13.32,12.94,3.0,0.6448665082651595,0.8686545423001397,0.5897437567189638,0.7564353335095642,0.8821590287821254,0.9061157637904689
13.382,12.99,2.89,0.6471139763668294,0.8695962551109682,0.5934456303082212,0.7571947795232165,0.8835499877388755,0.906351845322514
13.444,13.05,2.82,0.64945835127991,0.8705420570376486,0.5971955059630993,0.7579449708096577,0.8849777211875518,0.9065980843640143
13.465,13.1,2.99,0.6518976565741381,0.871491736708365,0.6009902583527815,0.7586856592877994,0.8864408432930125,0.9068540627871319
13.526,13.16,3.01,0.6544298427101897,0.8724450718579689,0.6048267269085258,0.7594166014501063,0.8879379424335495,0.907119370627936
13.586,13.21,2.98,0.6570527887767948,0.8734018297034513,0.6087017186148457,0.7601375586144002,0.8894675827224477,0.9073936065048489
13.647,13.27,2.96,0.6597643042953414,0.8743617673359154,0.6126120108498753,0.7608482971771532,0.8910283055492829,0.9076763780199267
13.708,13.32,3.15,0.6625621310905233,0.8753246321280629,0.61655435427147,0.7615485888676294,0.8926186311389321,0.907967302142724
13.809,13.38,3.0,0.665443945225662,0.8762901621560851,0.6205254757455972,0.7622382110021518,0.8942370601262668,0.9082660055764405
13.829,13.43,2.87,0.6684073590013645,0.8772580866347368,0.6245220813135564,0.7629169467376427,0.895882075144488,0.9085721251060412
13.849,13.49,3.17,0.6714499230161721,0.878228126364262,0.6285408591945313,0.7635845853234873,0.8975521424250275,0.9088853079280168
13.911,13.54,3.09,0.6745691282877744,0.8791999941877455,0.6325784828199076,0.7642409223506585,0.8992457134068973,0.9092052119614539
13.953,13.6,3.03,0.6777624084332478,0.8801733954573976,0.6366316138956888,0.7648857599969741,0.9009612263532936,0.9095315061401125
14.014,13.65,3.21,0.6810271419065946,0.881148028508269,0.6406969054892178,0.7655189072673567,0.9026971079732192,0.9098638706852143
14.076,13.71,3.3,0.6843606542917141,0.8821235851379322,0.6447710051363522,0.7661401802279729,0.9044517750458725,0.9102019973586206
14.119,13.76,3.28,0.6877602206488915,0.8830997510906329,0.648850557965302,0.7667494022330448,0.9062236360455604,0.910545589696044
14.18,13.82,3.28,0.6912230679128648,0.8840762065444282,0.652932209833361,0.7673464041430846,0.9080110927649261,0.9108943632199467
14.241,13.87,3.56,0.6947463773404468,0.8850526265998823,0.6570126104726929,0.7679310245333651,0.9098125419343395,0.9112480456317655
14.283,13.93,3.45,0.6983272870055799,0.886028681768985,0.6610884166412107,0.768503109891552,0.9116263768353715,0.9116063769830908
14.345,13.98,3.34,0.7019628943395857,0.8870040384630529,0.6651562952744392,0.7690625148035565,0.9134509889063567,0.9119691098253875
14.406,14.04,3.6,0.7056502587142645,0.887978359478468,0.6692129266341612,0.7696091021267994,0.9152847693381206,0.9123360093378291
14.447,14.09,3.58,0.709386404065409,0.8889513044792087,0.6732550074496221,0.7701427431501628,0.9171261106580273,0.9127068534327878
14.549,14.15,3.5,0.7131683215541984,0.8899225304752161,0.6772792540470862,0.7706633177400051,0.9189734083005247,0.913081432838589
14.57,14.2,3.49,0.7169929722637316,0.8908916922958,0.681282405463448,0.7711707144717947,0.9208250621624046,0.9134595511592037
14.612,14.26,3.55,0.7208572899277106,0.891858443057457,0.685261226539472,0.7716648307471561,0.9226794781410148,0.91384102491058
14.673,14.31,3.44,0.7247581836880631,0.8928224346255821,0.6892125109880918,0.7721455728963363,0.9245350696536767,0.9142256835333412
14.735,14.37,3.42,0.7286925408780851,0.8937833180696154,0.6931330844330176,0.7726128562663703,0.926390259136524,0.9146133693816559
14.797,14.42,3.73,0.7326572298274514,0.8947407441112248,0.6970198074126663,0.773066605295514,0.9282434795209189,0.9150039376881901
14.86,14.48,3.6,0.7366491026852423,0.8956943635651708,0.7008695783442562,0.7735067535747643,0.9300931756855312,0.9153972565051761
14.922,14.53,3.51,0.7406649982569803,0.8966438277725489,0.704679336442821,0.7739332438974129,0.9319378058821418,0.9157932066217427
14.942,14.59,3.75,0.7447017448515487,0.8975887890261834,0.7084460645899446,0.7743460282976113,0.933775843133246,0.9161916814577533
15.003,14.64,3.77,0.7487561631338471,0.8985289009880315,0.7121667921472075,0.7747450680788204,0.9356057765995847,0.9165925869344737
15.065,14.7,3.77,0.7528250689790642,0.8994638190984944,0.715838597709581,0.7751303338328561,0.9374261129157598,0.9169958413225268
15.127,14.75,3.84,0.7569052763244732,0.9003932009776013,0.7194586117941661,0.7755018054501363,0.9392353774921506,0.9174013750677179
15.169,14.81,4.02,0.7609936000146474,0.9013167068180993,0.7230240194597765,0.7758594721217249,0.9410321157814038,0.9178091305953916
15.272,14.86,3.92,0.765086858636066,0.9022339997705114,0.7265320628530179,0.7762033323337278,0.9428148945078841,0.9182190620939992
15.293,14.92,3.87,0.7691818773372018,0.9031447463201954,0.7299800436767444,0.7765333938545204,0.9445823028585618,0.9186311352785799
15.334,14.97,4.17,0.7732754906303149,0.9040486166563779,0.7333653255770082,0.7768496737152045,0.9463329536339259,0.9190453271348737
15.416,15.03,4.01,0.7773645451713428,0.9049452850330555,0.7366853364448956,0.7771521981836105,0.9480654843575936,0.9194616256447988
15.437,15.08,3.92,0.7814459025144038,0.9058344301215878,0.7399375706298994,0.7774410027320843,0.9497785583433586,0.919880029494055
15.5,15.14,4.12,0.785516441837503,0.9067157353548052,0.743119591061705,0.777716131999277,0.9514708657184757,0.9203005477626133
15.562,15.19,4.15,0.7895730626360977,0.9075888892624366,0.7462290312775799,0.7779776397460445,0.9531411244020447,0.9207231995988198
15.644,15.25,4.14,0.7936126873813053,0.9084535857975943,0.7492635973528855,0.7782255888053958,0.9547880810373728,0.9211480138778223
15.664,15.3,4.18,0.7976322641396493,0.9093095246539534,0.752221069732524,0.7784600510262802,0.9564105118772382,0.9215750288450274
15.725,15.36,4.41,0.8016287691513934,0.910156411573188,0.7550993049613864,0.7786811072109229,0.9580072236210421,0.9220042917453122
15.786,15.41,4.33,0.8055992093647584,0.9109939586421394,0.7578962373122227,0.7788888470453126,0.9595770542029282,0.9224358584387155
15.828,15.47,4.25,0.8095406249236102,0.911821884579108,0.7606098803097613,0.7790833690223109,0.9611188735300805,0.9228697930033499
15.891,15.52,4.63,0.8134500916064974,0.9126399150085995,0.7632383281503365,0.7792647803567117,0.9626315841705261,0.9233061673262665
15.933,15.58,4.53,0.8173247232151845,0.9134477827238205,0.7657797570167109,0.7794331968914409,0.964114121989918,0.9237450606830078
16.016,15.63,4.48,0.8211616739110661,0.9142452279361969,0.7682324262881602,0.779588742994015,0.9655654567368962,0.9241865593066143
16.076,15.69,4.64,0.824958140498015,0.9150319985112493,0.7705946796461945,0.7797315514424243,0.9669845925767652,0.9246307559468521
16.118,15.74,4.67,0.8287113646504047,0.9158078501902318,0.7728649460765769,0.7798617632996818,0.968370568573399,0.9250777494203677
16.159,15.8,4.58,0.832418635085279,0.9165725467969459,0.7750417407686319,0.7799795277762755,0.9697224591194243,0.9255276441523863
16.219,15.85,4.55,0.8360772896778276,0.9173258604291251,0.7771236659130758,0.7800850020797394,0.9710393743148561,0.9259805497104999
16.279,15.91,4.76,0.839684717519416,0.9180675716338101,0.7791094113997022,0.780178351250598,0.9723204602944647,0.926436580331039
16.382,15.96,4.64,0.8432383609174317,0.9187974695661573,0.7809977554162959,0.7802597479840054,0.9735648995042369,0.9268958544384888
16.402,16.02,4.59,0.8467357173361814,0.9195153521311498,0.7827875649501217,0.780329372436461,0.9747719109273396,0.9273584941583963
16.462,16.07,4.92,0.8501743412780064,0.9202210261077367,0.7844777961933261,0.7803874120170456,0.9759407502600768,0.9278246248241921
16.523,16.13,4.91,0.8535518461037446,0.9209143072549943,0.7860674948536231,0.7804340611626617,0.9770707100383937,0.9282943744782994
16.544,16.18,4.84,0.8568659057916288,0.9215950204000054,0.7875557963716747,0.7804695210968318,0.9781611197156094,0.9287678733678482
16.605,16.24,4.88,0.8601142566336004,0.9222629995073556,0.7889419260465309,0.7804939995718143,0.9792113456922016,0.9292452534352056
16.666,16.29,4.95,0.8632946988678935,0.9229180877303738,0.790225199070423,0.7805077105940406,0.9802207912986591,0.9297266478033985
16.747,16.35,4.82,0.8664050982467026,0.923560137444432,0.7914050204742269,0.7805108741330705,0.9811888967325892,0.9302121902563877
16.768,16.4,4.76,0.869443387537756,0.9241890102627582,0.7924808849849594,0.7805037158144399,0.9821151389513724,0.9307020147141135
16.829,16.46,5.02,0.8724075679586264,0.9248045770353722,0.7934523767967081,0.7804864665969846,0.9829990315217357,0.9311962547022681
16.87,16.51,4.79,0.8752957105426611,0.9254067178318818,0.7943191692564272,0.78045936243546,0.9838401244276562,0.9316950428167838
16.932,16.57,4.63,0.8781059574354557,0.9259953219089696,0.7950810244660791,0.7804226439294484,0.9846380038380366,0.9321985101831004
16.993,16.62,4.78,0.8808365231208405,0.9265702876634848,0.7957377928026789,0.7803765559596844,0.9853922918356347,0.9327067859103104
17.034,16.68,4.7,0.8834856955753804,0.9271315225721218,0.796289412357949,0.7803213473129921,0.9861026461087429,0.9332199965403342
17.115,16.73,4.62,0.8860518373504285,0.9276789431187038,0.7967359082994563,0.7802572702970721,0.9867687596070734,0.9337382654923809
17.157,16.79,4.63,0.8885333865806914,0.9282124747101704,0.7970773921551164,0.7801845803464982,0.9873903601632532,0.9342617125030827
17.218,16.84,4.75,0.8909288579181628,0.9287320515824532,0.7973140610229154,0.7801035356214299,0.9879672100812865,0.9347904530627817
17.28,16.9,4.62,0.8932368433902411,0.9292376166974681,0.797446196707664,0.7800143966006198,0.9884991056933212,0.9353245978485412
17.321,16.95,4.54,0.8954560131809038,0.9297291216324148,0.7974741647866148,0.7799174256702834,0.9889858768860476,0.9358642521545321
17.383,17.01,4.82,0.8975851163339277,0.9302065264625178,0.7973984136057622,0.7798128867103766,0.9894273865980612,0.936409515320534
17.505,17.06,4.64,0.899622981377342,0.9306697996382657,0.7972194732086998,0.7797010446797769,0.989823530289554,0.9369604801593524
17.525,17.12,4.48,0.9015685168685181,0.9311189178581263,0.7969379541999495,0.779582165201839,0.9901742353856986,0.9375172323840276
17.546,17.17,4.65,0.9034207118595141,0.9315538659376652,0.7965545465447658,0.7794565141518053,0.99047946069512,0.9380798500357608
17.587,17.23,4.58,0.9051786362825331,0.9319746366759348,0.7960700183075874,0.7793243572475365,0.9907391958048698,0.9386484029135255
17.648,17.28,4.51,0.9068414412556357,0.9323812307198854,0.7954852143315447,0.7791859596449209,0.990953460453285,0.9392229520064256
17.71,17.34,4.49,0.9084083593090325,0.9327736564274447,0.7948010548615698,0.7790415855392104,0.9911223038820901,0.9398035489299622
17.772,17.39,4.62,0.9098787045324117,0.9331519297298667,0.7940185341137423,0.7788914977734426,0.9912458041690543,0.9403902353674415
17.856,17.45,4.44,0.9112518726438873,0.933516073993873,0.7931387187935889,0.7787359574549767,0.9913240675425006,0.9409830425177589
17.876,17.5,4.28,0.9125273409812852,0.9338661198840306,0.7921627465661686,0.7785752235810196,0.9913572276789376,0.9415819905507732
17.916,17.56,4.61,0.9137046684165646,0.9342021052257417,0.7910918244808542,0.778409552673856,0.9913454449850505,0.9421870880714209
17.98,17.61,4.47,0.9147834951942205,0.9345240748691462,0.7899272273537764,0.7782391984263558,0.9912889058652484,0.9427983315936853
18.042,17.67,4.38,0.915763542694531,0.9348320805541741,0.7886702961109181,0.7780644113581971,0.9911878219759052,0.943415705025509
18.082,17.72,4.55,0.9166446131225223,0.9351261807769568,0.7873224360948535,0.7778854384831654,0.9910424294674048,0.9440391791657232
18.143,17.78,4.57,0.9174265891236136,0.9354064406577457,0.7858851153382188,0.7777025229877789,0.990852988215114,0.9446687112139628
18.225,17.83,4.52,0.9181094333271144,0.9356729318103794,0.7843598628071948,0.7775159039213138,0.9906197810404246,0.9453042442944488
18.246,17.89,4.49,0.9186931878189651,0.9359257322132224,0.7827482666184292,0.777325815897166,0.9903431129230401,0.9459457069944275
18.308,17.94,4.7,0.9191779735453182,0.9361649260814457,0.7810519722328866,0.7771324888054332,0.9900233102057239,0.9465930129179733
18.368,18.0,4.54,0.9195639896487586,0.9363906037404536,0.779272680630115,0.776936147536605,0.9896607197927788,0.94724606025576
18.448,18.05,4.4,0.9198515127391823,0.9366028615001861,0.7774121464663543,0.776737011716268,0.9892557083435778,0.9479047313713271
18.467,18.11,4.67,0.9200408961015168,0.936801801529974,0.7754721762198108,0.7765352954507786,0.9888086614624975,0.9485688924042779
18.529,18.16,4.55,0.920132568842636,0.9369875317335701,0.773454626326328,0.7763312070838866,0.9883199828866447,0.9492383928907876
18.592,18.22,4.43,0.920127034979914,0.9371601656239682,0.771361401308559,0.7761249489643539,0.987790093672754,0.9499130654017908
18.653,18.27,4.5,0.9200248724738173,0.9373198221977126,0.7691944519015377,0.775916717224773,0.9872194313846319,0.9505927251991992
18.694,18.33,4.51,0.9198267322068043,0.9374666258085325,0.766955773177322,0.775706701571973,0.9866084492825239,0.9512771699104233
18.756,18.38,4.35,0.9195333369106984,0.9376007060402205,0.7646474026712317,0.7754950850894803,0.9859576155157769,0.9519661792213537
18.838,18.44,4.29,0.9191454800445794,0.9377221975787016,0.7622714185120225,0.775282044052544,0.985267412320114,0.9526595145878727
18.859,18.49,4.51,0.918664024625073,0.9378312400832789,0.759829937558105,0.7750677477563026,0.9845383352208035,0.9533569189658697
18.96,18.55,4.32,0.9180899020107283,0.9379279780570804,0.7573251135416345,0.7748523583577304,0.9837708922429264,0.9540581165596819
18.981,18.6,4.19,0.9174241106420457,0.938012560716741,0.7547591352220584,0.7746360307320318,0.9829656031298803,0.9547628125888442
19.023,18.66,4.39,0.9166677147385991,0.9380851418613863,0.7521342245505216,0.7744189123441358,0.9821229985712057,0.9554706930730139
19.084,18.71,4.31,0.9158218429546836,0.938145879741031,0.749452634846483,0.7742011431358741,0.9812436194407724,0.9561814246349457
19.145,18.77,4.21,0.9148876869949074,0.9381949369245638,0.7467166489878689,0.773982855429364,0.9803280160463097,0.9568946543214764
19.206,18.82,4.21,0.9138665001910771,0.9382324801676388,0.7439285776159852,0.7737641738471472,0.9793767473912021,0.9576100094425832
19.248,18.88,4.28,0.9127595960416092,0.9382586802809881,0.74109075735624,0.7735452152497202,0.978390380449434,0.9583270974286613
19.331,18.93,4.13,0.9115683467146595,0.9382737119998064,0.7382055490555975,0.7733260886911353,0.977369489454519,0.9590455057062256
19.352,18.99,4.04,0.9102941815161366,0.9382777538549503,0.7352753360375518,0.7731068953933689,0.9763146552031841,0.959764801592344
19.413,19.04,4.29,0.9089385853237579,0.9382709880467675,0.7323025223752547,0.7728877287401827,0.9752264643745162,0.9604845322081694
19.455,19.1,4.16,0.9075030969883167,0.9382536003223867,0.7292895311832687,0.7726686742912081,0.9741055088652044,0.961204224412029
19.517,19.15,3.98,0.9059893077033435,0.9382257798573019,0.7262388029282467,0.7724498098169732,0.9729523851414338,0.9619233847525549
19.58,19.21,4.11,0.9043988593443183,0.9381877191420745,0.7231527937586978,0.7722312053555683,0.9717676936079545,0.9626414994423704
19.621,19.26,4.03,0.9027334427785669,0.9381396138749413,0.7200339738539666,0.7720129232915427,0.9705520379947871,0.9633580343528151
19.682,19.32,3.96,0.9009947961469577,0.9380816628610315,0.7168848257925904,0.7717950184574551,0.9693060247619798,0.9640724350302333
19.743,19.37,3.95,0.8991847031184298,0.9380140679188198,0.7137078429401771,0.771577538258352,0.968030262522713,0.9647841267344085
19.784,19.43,4.12,0.8973049911182844,0.9379370337943832,0.7105055278568521,0.7713605228193308,0.966725361484956,0.9654925144997668
19.845,19.48,4.0,0.8953575295311442,0.9378507680839445,0.7072803907242361,0.7711440051562357,0.9653919329117978,0.9661969832199909
19.907,19.54,3.91,0.8933442278795459,0.9377554811650542,0.7040349477918292,0.7709280113693956,0.9640305886005,0.9668968977566834
19.948,19.59,4.2,0.8912670339792416,0.9376513861366422,0.7007717198425828,0.7707125608602201,0.962641940380307,0.9675916030727049
20.052,19.65,4.02,0.8891279320724355,0.937538698768034,0.6974932306773545,0.7704976665703752,0.9612265996290277,0.9682804243907841
20.073,19.7,3.94,0.8869289409403264,0.9374176374569387,0.694202005617851,0.770283335243207,0.9597851768084018,0.9689626673779744
20.135,19.76,4.1,0.8846721119964348,0.9372884231963692,0.6909005700275853,0.770069567707069,0.9583182810182587,0.9696376183564895
20.197,19.81,4.05,0.8823595273623371,0.9371512795504139,0.6875914478504082,0.7698563591801548,0.9568265195694889,0.970304544541381
20.259,19.87,3.99,0.8799932979276089,0.9370064326386731,0.6842771601662744,0.7696436995962951,0.9553104975758124,0.970962694305451
20.3,19.92,3.92,0.8775755613959003,0.9368541111290702,0.6809602237639563,0.7694315739510565,0.9537708175643176,0.9716112974717463
20.424,19.98,4.07,0.8751084803191107,0.9366945462386821,0.6776431497303779,0.7692199626674155,0.9522080791047107,0.9722495656338962
20.443,20.03,3.9,0.8725942401216534,0.9365279717421761,0.6743284420562186,0.7690088419801927,0.9506228784571925,0.9728766925044751
20.464,20.09,3.76,0.8700350471168178,0.9363546239873489,0.6710185962574353,0.768798184338326,0.9490158082388181,0.9734918542914898
20.505,20.14,4.06,0.8674331265172055,0.9361747419171944,0.667716098012314,0.7685879588239635,0.947387457108144,0.9740942101030059
20.567,20.2,3.92,0.8647907204411552,0.9359885670978315,0.664423421813608,0.7683781315872719,0.9457384094678893,0.9746829023798452
20.61,20.25,3.85,0.8621100859170077,0.9357963437515653,0.6611430296352275,0.7681686662957932,0.9440692451852694,0.9752570573562178
20.673,20.31,4.01,0.8593934928869579,0.935598318794348,0.6578773696128851,0.7679595245971323,0.9423805393296153,0.9758157855480678
20.735,20.36,4.03,0.8566432222122448,0.9353947418768966,0.6546288747381793,0.7677506665936539,0.9406728619268849,0.9763581822687957
20.796,20.42,3.96,0.8538615636815345,0.9351858654286607,0.6513999615657893,0.7675420513276796,0.9389467777306817,0.9768833281719188
20.838,20.47,3.94,0.8510508140245073,0.9349719447037418,0.6481930289336169,0.767333637275515,0.9372028460094037,0.9773902898201753
20.899,20.53,4.14,0.8482132749327518,0.9347532378278344,0.6450104566958017,0.7671253828485545,0.9354416203491835,0.9778781202805306
20.941,20.58,4.01,0.845351251090169,0.9345300058452127,0.6418546044686061,0.7669172468996642,0.9336636484723061,0.9783458597445055
21.002,20.64,3.86,0.8424670482151797,0.9343025127647621,0.6387278103892583,0.7667091892329913,0.9318694720708252,0.9787925361732138
21.064,20.69,4.14,0.839562971117079,0.9340710256040183,0.6356323898879552,0.7665011711153171,0.9300596266551284,0.9792171659664496
21.145,20.75,4.0,0.8366413217689608,0.9338358144301554,0.6325706344733565,0.7662931557870418,0.9282346414172141,0.9796187546551152
21.166,20.8,3.91,0.8337043973996735,0.9335971523968161,0.6295448105319876,0.7660851089708923,0.9263950391084448,0.979996297616271
21.229,20.86,3.98,0.8307544886072097,0.9333553157757337,0.6265571581419112,0.7658769993765792,0.924541335931539,0.9803487808100704
21.269,20.91,4.0,0.8277938774957948,0.9331105839821718,0.6236098899009328,0.7656687991997605,0.9226740414465568,0.9806751815377769
21.33,20.97,3.88,0.8248248358387928,0.9328632395932748,0.6207051897695335,0.765460484613745,0.9207936584906393,0.9809744692199872
21.393,21.02,3.81,0.8218496232693306,0.9326135683584831,0.6178452119286244,0.7652520362524224,0.9189006831112294,0.9812456061941074
21.434,21.08,4.03,0.8188704855002221,0.9323618592012921,0.6150320796520408,0.7650434396830258,0.9169956045124796,0.9814875485300679
21.536,21.13,3.87,0.8158896525744342,0.9321084042117707,0.6122678841934831,0.764834685867489,0.9150789050145157,0.9816992468631819
21.556,21.19,3.74,0.8129093371470263,0.9318534986293744,0.6095546836874065,0.7646257716113005,0.9131510600251865,0.9818796472430048
21.638,21.24,3.96,0.8099317327992679,0.9315974408156982,0.6068945020632356,0.764416699998853,0.9112125380239188,0.9820276919970162
21.658,21.3,3.9,0.8069590123855518,0.9313405322168956,0.6042893279722754,0.7642074808143212,0.909263800557276,0.9821423206079298
21.722,21.35,3.81,0.8039933264136652,0.9310830773155743,0.6017411137267423,0.7639981309471323,0.9073053022458073,0.9822224706035112
21.762,21.41,3.84,0.8010368014588761,0.9308253835721458,0.599251774250289,0.763788674781234,0.9053374908017588,0.9822670784578496
21.825,21.46,3.92,0.7980915386121473,0.930567761355828,0.5968231860393302,0.7635791445675838,0.9033608070572389,0.9822750805030813
21.93,21.52,3.79,0.7951596119626827,0.9303105238656638,0.5944571861344387,0.7633695807794495,0.9013756850024366,0.9822454138505982
21.95,21.57,3.7,0.7922430671149464,0.9300539870420517,0.5921555711010905,0.7631600324502532,0.8993825518335007,0.9821770173208362
21.992,21.63,3.92,0.789343919740205,0.9297984694693809,0.589920096019033,0.7629505574938215,0.89738182800967,0.9820688323808
22.055,21.68,3.7,0.7864641541625834,0.9295442922704529,0.5877524734795592,0.7627412230070275,0.8953739273192372,0.9819198040885343
22.096,21.74,3.55,0.7836057219795534,0.9292917789934156,0.585654372589954,0.7625321055549323,0.8933592569538936,0.9817288820437865
22.159,21.79,3.69,0.7807705407166822,0.9290412554920167,0.5836274179843515,0.7623232914386673,0.8913382175909693,0.9814950213441397
22.261,21.85,3.59,0.7779604925163962,0.9287930498000236,0.5816731888402811,0.7621148769463896,0.889311203483023,0.9812171835459157
22.302,21.9,3.49,0.7751774228604558,0.9285474920006649,0.5797932179002224,0.7619069685877078,0.8872786025541556,0.980894337629195
22.323,21.96,3.49,0.7724231393256964,0.9283049140919463,0.5779889904974245,0.7616996833120869,0.88524079650231,0.9805254609663767
22.385,22.01,3.61,0.7696994103724156,0.9280656498487269,0.576261943585118,0.7614931487118934,0.8831981609067323,0.980109540293744
22.425,22.07,3.5,0.7670079641646523,0.9278300346823863,0.5746134647681739,0.7612875032108021,0.8811510653396887,0.9796455726855496
22.487,22.12,3.42,0.7643504874215514,0.9275984054988401,0.5730448913362637,0.7610828962382515,0.8790998734814707,0.9791325665302074
22.548,22.18,3.73,0.7617286242990096,0.9273711005555721,0.5715575092976272,0.7608794883905435,0.8770449432376854,0.9785695425082556
22.63,22.23,3.56,0.7591439753008525,0.9271484593182735,0.5701525524126455,0.7606774515790736,0.8749866268578245,0.977955534571813
22.65,22.29,3.47,0.756598096218864,0.926930822317624,0.5688312012265191,0.760476969166115,0.8729252710541113,0.9772895909253049
22.753,22.34,3.62,0.7540924971010227,0.9267185310067734,0.5675945821004511,0.7602782360885866,0.8708612171196644,0.9765707750072482
22.774,22.4,3.6,0.7516286412474112,0.9265119276200485,0.5664437662409337,0.7600814589702126,0.8687948010450602,0.9757981664728681
22.815,22.45,3.56,0.7492079442334466,0.9263113550333245,0.5653797687270079,0.7598868562223803,0.8667263536324039,0.9749708621773152
22.876,22.51,3.52,0.7468317729602573,0.9261171566263557,0.5644035475356134,0.7596946581338884,0.8646562006060244,0.9740879771592733
22.917,22.56,3.65,0.7445014447321818,0.9259296761472512,0.5635160025653718,0.7595051069496775,0.8625846627189414,0.9731486456247129
23.02,22.62,3.49,0.7422182263615111,0.9257492575791554,0.5627179746593978,0.759318456938518,0.8605120558542735,0.9721520219304758
23.04,22.67,3.38,0.7399833333007159,0.9255762450090786,0.5620102446279611,0.7591349744495088,0.858438691120774,0.9710972815672869
23.082,22.73,3.68,0.7377979288024666,0.9254109824987193,0.5613935322719881,0.7589549379571573,0.856364874941689,0.9699836221416898
23.143,22.78,3.54,0.7356631231077759,0.925253813957041,0.56086849540853,0.758778638094723,0.8542909091361157,0.9688102643563115
23.225,22.84,3.45,0.7335799726625711,0.925105083014287,0.5604357288994538,0.75860637767544,0.8522170909920281,0.9675764529877873
23.246,22.89,3.62,0.7315494793629524,0.9249651328971089,0.5600957636847498,0.7584384717011794,0.8501437133301537,0.9662814578615689
23.306,22.95,3.62,0.7295725898293937,0.9248343063044484,0.5598490658220848,0.7582752473580174,0.8480710645579279,0.9649245748227276
23.368,23.0,3.56,0.7276501947102886,0.9247129452836585,0.5596960355345447,0.7581170439979765,0.8459994287128046,0.963505126701762
23.429,23.06,3.54,0.725783128015452,0.9246013911061358,0.5596370062687887,0.7579642131060006,0.8439290854942508,0.9620224642743739
23.49,23.11,3.71,0.7239721664804141,0.9244999841415134,0.559672243766088,0.7578171182510537,0.8418603102838201,0.9604759672141178
23.573,23.17,3.56,0.7222180289625866,0.9244090637292649,0.5598019451489802,0.7576761350200697,0.8397933741527691,0.9588650450367857
23.593,23.22,3.43,0.7205213758705962,0.924328968046423,0.5600262380265416,0.7575416509333218,0.8377285438567393,0.9571891380353433
23.634,23.28,3.72,0.7188828086282295,0.9242600339700332,0.5603451796215133,0.7574140653396473,0.8356660818170839,0.9554477182041944
23.736,23.33,3.56,0.7173028691745647,0.9242025969329174,0.5607587559227241,0.757293789289835,0.833606246088457,0.9536402901515159
23.756,23.39,3.45,0.7157820395019174,0.9241569907713064,0.5612668808664202,0.7571812453863829,0.8315492903123153,0.9517663919983841
23.797,23.44,3.56,0.7143207412332049,0.9241235475629652,0.5618693955501987,0.757076867607826,0.8294954636560095,0.9498255962633553
23.858,23.5,3.57,0.7129193352402753,0.9241025974545022,0.5625660674833186,0.7569811011058922,0.8274450107371945,0.9478175107310581
23.919,23.55,3.51,0.7115781213047394,0.924094468476554,0.5633565898772194,0.7568944019738211,0.8253981715333106,0.9457417793032197
23.98,23.61,3.48,0.7102973378228031,0.9240994863455055,0.5642405809800358,0.75681723698433,0.823355181275913,0.9435980828304562
24.042,23.66,3.69,0.7090771615554984,0.9241179742504172,0.5652175834587632,0.7567500832958894,0.8213162703296666,0.9413861399230665
24.103,23.72,3.54,0.7079177074256054,0.9241502526238584,0.5662870638326049,0.7566934281260757,0.8192816640558799,0.9391057077389754
24.165,23.77,3.44,0.7068190283624772,0.9241966388953574,0.5674484119609381,0.7566477683908268,0.8172515826605169,0.936756582746927
24.206,23.83,3.71,0.7057811151959229,0.92425744722622,0.5687009405892666,0.7566136103084692,0.8152262410267122,0.9343386014629419
24.247,23.88,3.61,0.7048038966002845,0.924332988224484,0.5700438849565062,0.7565914689674131,0.8132058485318922,0.9318516411580146
24.307,23.94,3.52,0.7038872390897688,0.9244235686388852,0.5714764024668856,0.7565818678564855,0.811190608849681,0.9292956205349893
24.389,23.99,3.57,0.7030309470658991,0.9245294910309043,0.5729975724295873,0.7565853383570302,0.809180719736848,0.9266705003725302
24.409,24.05,3.58,0.7022347629177239,0.9246510534242177,0.5746063958690568,0.7566024191961186,0.8071763728056528,0.9239762841340284
24.47,24.1,3.44,0.7014983671752534,0.9247885489310588,0.5763017954087681,0.7566336558603451,0.8051777532820185,0.9212130185392396
24.551,24.16,3.38,0.7008213787164493,0.9249422653551375,0.5780826152310868,0.7566795999698143,0.8031850397500115,0.9183807940964512
24.572,24.21,3.56,0.700203355027907,0.9251124847709429,0.5799476211156716,0.7567408086120812,0.8011984038831305,0.9154797455930013
24.634,24.27,3.39,0.6996437925191523,0.9252994830794159,0.5818955005586326,0.7568178436359858,0.799218010162914,0.9125100525419788
24.695,24.32,3.26,0.6991421268902716,0.9255035295401264,0.5839248629744385,0.7569112709054723,0.7972440155853847,0.9094719395829193
24.737,24.38,3.49,0.6986977335523812,0.9257248862802044,0.5860342399823707,0.7570216595136351,0.7952765693558472,0.9063656768342429
24.861,24.43,3.41,0.6983099281003087,0.9259638077803655,0.588222085779185,0.7571495809573484,0.7933158125725932,0.9031915801951432
24.881,24.49,3.31,0.6979779668367349,0.9262205403384535,0.5904867775995102,0.7572956082729828,0.7913618779000737,0.8999500115946629
24.922,24.54,3.31,0.6977010473468965,0.9264953215110805,0.5928266162653038,0.7574603151339512,0.7894148892321315,0.8966413791857607
24.983,24.6,3.38,0.6974783091227995,0.9267883795341464,0.5952398268254763,0.7576442749111021,0.7874749613459432,0.8932661374822516
25.024,24.65,3.24,0.697308834235828,0.9270999327231847,0.5977245592866529,0.7578480596971754,0.7855421995473661,0.8898247874365728
25.086,24.71,3.18,0.6971916480566016,0.9274301888546315,0.6002788894359333,0.7580722392966622,0.7836166993084137,0.886317876456475
25.149,24.76,3.4,0.6971257200208896,0.9277793445292773,0.6029008197563909,0.7583173801825188,0.7816985458975987,0.8827459983588783
25.209,24.82,3.18,0.6971099644403519,0.9281475845193053,0.6055882804359407,0.7585840444212707,0.7797878140039004,0.8791097932592706
25.229,24.87,3.04,0.6971432413568325,0.9285350811004682,0.6083391304700871,0.7588727885681181,0.7778845673551351,0.8754099473951302
25.289,24.93,3.17,0.6972243574388534,0.9289419933710942,0.6111511588589164,0.7591841625337701,0.7759888583315304,0.8716471928819498
25.351,24.98,3.07,0.6973520669188854,0.9293684665597582,0.6140220858985401,0.7595187084249061,0.7741007275753213,0.8678223074005471
25.411,25.04,2.98,0.6975250725698534,0.9298146313235774,0.6169495645669435,0.7598769593604365,0.7722202035971512,0.8639361138145253
25.472,25.09,2.99,0.697742026719112,0.930280603039273,0.6199311820037986,0.760259438266125,0.7703473023800164,0.8599894797169709
25.513,25.15,3.1,0.6980015322978781,0.9307664810893297,0.6229644610833824,0.7606666566505332,0.768482026981455,0.8559833169056581
25.576,25.2,2.99,0.6983021439239524,0.9312723481456953,0.6260468620793905,0.7610991133654899,0.7666243671346612,0.851918580786204
25.638,25.26,2.91,0.6986423690155288,0.9317982694534538,0.6291757844201735,0.7615572933543951,0.7647742988491972,0.8477962697028019
25.679,25.31,3.19,0.6990206689339394,0.9323442921168753,0.6323485685326865,0.7620416663917288,0.7629317840120015,0.8436174241963413
25.741,25.37,3.0,0.6994354601532957,0.9329104443901595,0.6355624977732754,0.7625526858171263,0.7610967699894309,0.8393831261899063
25.821,25.42,2.88,0.6998851154551367,0.9334967349751343,0.6388148004432901,0.763090787267387,0.7592691892311335,0.8350944981018164
25.842,25.48,3.05,0.700367965146344,0.9341031523281402,0.6421026518874062,0.7636563874097789,0.7574489588766075,0.8307527018865524
25.945,25.53,2.98,0.7008822982987888,0.9347296639782937,0.645423176672505,0.7642498826799844,0.7556359803653679,0.8263589380040683
25.966,25.59,2.82,0.7014263640094117,0.9353762158592249,0.6487734508449644,0.7648716480279382,0.7538301390516786,0.8219144443182324
26.007,25.64,2.8,0.7019983726796251,0.9360427316563117,0.6521505042641622,0.7655220356747409,0.7520313038248081,0.8174204949254043
26.069,25.7,2.9,0.7025964973130346,0.936729112171378,0.6555513230098838,0.7662013738837969,0.750239326735781,0.8128783989144219
26.131,25.75,2.75,0.7032188748306059,0.9374352347067568,0.6589728518612014,0.7669099657492829,0.7484540426315734,0.8082894990595112
26.172,25.81,2.66,0.7038636074025042,0.9381609524705118,0.6624119968442151,0.7676480880050044,0.7466752687976579,0.8036551704478667
26.234,25.86,2.94,0.7045287637959122,0.9389060940045222,0.6658656278458297,0.7684159898566261,0.7449028046097872,0.7989768190438568
26.297,25.92,2.78,0.7052123807381674,0.9396704626370365,0.6693305812905301,0.769213891840128,0.7431364311958749,0.7942558801919611
26.338,25.97,2.66,0.7059124642945788,0.9404538359612251,0.672803662876948,0.7700419847091811,0.7413759111088539,0.7894938170606896
26.38,26.03,2.85,0.7066269912602735,0.9412559653412379,0.6762816503708552,0.7709004283540153,0.7396209880114143,0.7846921190298535
26.442,26.08,2.79,0.7073539105654943,0.9420765754472219,0.6797612964511733,0.7717893507542294,0.7378713863735837,0.7798523000236879
26.504,26.14,2.76,0.7080911446939315,0.942915363820654,0.6832393316055835,0.7727088469678295,0.7361268111841489,0.7749758967925172
26.546,26.19,2.77,0.7088365911138493,0.9437720004712273,0.6867124670722726,0.7736589781586528,0.7343869476769533,0.7700644671458932
26.607,26.25,2.94,0.7095881237219355,0.9446461275064459,0.6901773978242732,0.7746397706642317,0.7326514610731659,0.7651195881403561
26.668,26.3,2.8,0.7103435943000317,0.9455373587949559,0.6936308055928171,0.7756512151060416,0.7309199963406822,0.7601428542251378
26.729,26.36,2.7,0.7111008339851497,0.9464452796645008,0.6970693619260794,0.7766932655439525,0.7291921779719114,0.7551358753492636
26.771,26.41,2.99,0.7118576547533989,0.9473694466352551,0.700489731279619,0.7777658386766008,0.727467609781292,0.7501002750336077
26.833,26.47,2.78,0.7126118509186348,0.9483093871891849,0.7038885741347346,0.7788688130893064,0.7257458747239688,0.7450376884115635
26.894,26.52,2.65,0.7133612006467441,0.9492645995760376,0.7072625501408283,0.7800020285511029,0.7240265347371353,0.7399497602421159
26.957,26.58,2.78,0.7141034674865027,0.9502345526566062,0.7106083212777032,0.7811652853624519,0.7223091306056122,0.7348381428992393
27.04,26.63,2.72,0.7148364019179484,0.9512186857839443,0.7139225550336118,0.7823583437551785,0.7205931818532804,0.7297044943416822
27.061,26.69,2.68,0.7155577429192546,0.9522164087231775,0.7172019275947988,0.7835809233460269,0.7188781866620136,0.72455047606736
27.141,26.74,2.66,0.7162652195530937,0.9532271016105055,0.7204431270421765,0.7848327026450984,0.7171636218197501,0.7193777510567889
27.162,26.8,2.81,0.7169565525734602,0.9542501149519775,0.7236428565506047,0.7861133186203272,0.7154489426993614,0.7141879817101654
27.224,26.85,2.66,0.7176294560539538,0.9552847696625736,0.7267978375861256,0.7874223663190331,0.7137335832700095,0.7089828277828664
27.265,26.91,2.59,0.7182816390386164,0.9563303571460623,0.7299048130963899,0.7887593985474805,0.7120169561427313,0.7037639443243021
27.328,26.96,2.88,0.7189108072165227,0.9573861394160316,0.7329605506894051,0.7901239256092707,0.7102984526520548,0.6985329796252225
27.431,27.02,2.72,0.7195146646214451,0.958451349258443,0.7359618457956276,0.791515415103316,0.7085774429755116,0.6932915731787463
27.451,27.07,2.61,0.7200909153580216,0.9595251904360258,0.7389055248083196,0.7929332917820562,0.7068532762929882,0.6880413536605551
27.491,27.13,2.7,0.7206372653559308,0.9606068379348367,0.7417884481969907,0.7943769374705384,0.7051252809879385,0.6827839369338314
27.552,27.18,2.53,0.7211514241536932,0.9616954382533023,0.7446075135887491,0.7958456910468605,0.7033927648925703,0.6775209240846187
27.612,27.24,2.35,0.7216311067138588,0.962790109733971,0.7473596588124649,0.7973388484842898,0.7016550155791746,0.6722538994933792
27.675,27.29,2.17,0.7220740352713994,0.9638899429381212,0.7500418649007884,0.7988556629551707,0.6999113006997469,0.666984428948622
27.716,27.35,2.12,0.7224779412170278,0.9649940010633499,0.7526511590452905,0.800395344996601,0.698160868375975,0.6617140578084414
27.777,27.4,1.81,0.7228405670169823,0.9661013204042629,0.7551846175003782,0.8019570627377377,0.6964029476415046,0.6564443092156138
27.838,27.46,1.6,0.7231596681705111,0.9672109108563671,0.7576393684320628,0.8035399421885199,0.6946367489381556,0.6511766823715625
27.88,27.51,1.74,0.7234330152059157,0.96832175646322,0.7600125947080166,0.805143067589575,0.6928614646674576,0.6459126508740668
27.962,27.57,1.5,0.7236583957155598,0.969432816006831,0.7623015366256946,0.80676548182309,0.6910762697985386,0.6406536611231328
27.983,27.62,1.33,0.7238336164297584,0.9705430236412687,0.7645034945755904,0.808406186884494,0.689280322533061,0.6354011307989968
28.044,27.68,1.35,0.7239565053289088,0.9716512895694651,0.7666158316370566,0.8100641444149248,0.6874727650275863,0.6301564474157532
28.148,27.73,1.23,0.7240249137927097,0.9727565007632503,0.7686359761045821,0.8117382762945375,0.6856527241734814,0.6249209669535775
28.168,27.79,1.08,0.7240367187848894,0.9738575217266232,0.7705614239430235,0.8134274652966602,0.6838193124342163,0.6196960125719846
28.208,27.84,0.96,0.7239898250714489,0.9749531953021691,0.7723897411707937,0.8151305558027262,0.6819716287396268,0.6144828734060388
28.288,27.9,0.99,0.7238821674700217,0.9760423435204574,0.7741185661704135,0.8168463545778581,0.680108759436448,0.6092828034469095
28.329,27.95,0.81,0.7237117131275935,0.9771237684921358,0.775745611926141,0.8185736316069153,0.6782297792941471,0.604097020507648
28.391,28.01,0.66,0.7234764638235105,0.9781962533423093,0.7772686681885734,0.8203111209907459,0.6763337525648009,0.5989267052745829
28.433,28.06,0.88,0.7231744582944185,0.9792585631866655,0.7786856035661635,0.8220575219023178,0.6744197340954718,0.5937730004442853
28.514,28.12,0.71,0.7228037745775184,0.980309446148675,0.779994367543551,0.8238114996023316,0.6724867704912724,0.5886370099456709
28.534,28.17,0.61,0.7223625323682552,0.9813476344170987,0.7811929924265046,0.8255716865138303,0.6705339013270348,0.5835197982464772
28.595,28.23,0.75,0.721848895388261,0.9823718453429948,0.7822795952130989,0.8273366833553003,0.668560160405292,0.5784223897430844
28.657,28.28,0.74,0.7212610737590912,0.9833807825753854,0.7832523793905789,0.829105060331719,0.6665645770580922,0.5733457682323889
28.698,28.34,0.71,0.7205973263770937,0.9843731372346445,0.784109636657216,0.8308753583829045,0.6645461774899931,0.5682908764642545
28.76,28.39,0.72,0.7198559632845665,0.9853475891225236,0.7848497485682632,0.83264609048839,0.6625039861594475,0.5632586157729482
28.802,28.45,0.88,0.7190353480321852,0.9863028079676139,0.7854711881049283,0.8344157430279017,0.6604370271956761,0.5582498457858843
28.884,28.5,0.8,0.7181339000275603,0.9872374547049338,0.7859725211651323,0.8361827771963525,0.6583443258480448,0.5532653842079474
28.926,28.56,0.73,0.7171500968646953,0.9881501827882146,0.7863524079747193,0.837945630472081,0.6562249099649038,0.5483060066796481
28.987,28.61,1.03,0.7160824766290452,0.9890396395333674,0.7866096044177006,0.8397027181368785,0.6540778114988006,0.543372446707349
29.049,28.67,0.93,0.7149296401728318,0.9899044674915156,0.7867429632840846,0.8414524348461419,0.6519020680349481,0.5384653956637978
29.089,28.72,0.88,0.7136902533552402,0.9907433058498873,0.7867514354338312,0.8431931562472853,0.6496967243397997,0.5335855028572145
29.15,28.78,1.03,0.7123630492420868,0.9915547918588211,0.7866340708754459,0.8449232406443892,0.647460833926585,0.5287333756671776
29.274,28.83,1.07,0.7109468302595779,0.9923375622830762,0.7863900197577496,0.8466410307069074,0.6451934606346637,0.5239095797455233
29.294,28.89,1.0,0.7094404702968975,0.9930902548755228,0.7860185332734556,0.8483448552200293,0.6428936802195718,0.5191146392804474
29.334,28.94,0.95,0.7078429167524789,0.9938115098711234,0.7855189644732579,0.8500330308740659,0.6405605819506266,0.5143490373219932
29.354,29.0,1.13,0.7061531925188593,0.9944999714990393,0.7848907689891833,0.8517038640900471,0.6381932702129616,0.5096132161670875
29.415,29.05,1.02,0.704370397901033,0.9951542895106058,0.7841335056660281,0.8533556528785462,0.6357908661108592,0.5049075778022564
29.477,29.11,0.91,0.7024937124632382,0.9957731207208436,0.7832468370997663,0.8549866887285934,0.6333525090692176,0.5002324844021199
29.537,29.16,1.18,0.7005223967991513,0.9963551305610858,0.7822305300818985,0.856595258523412,0.6308773584299532,0.4955882588817556
29.618,29.22,1.05,0.6984557942205464,0.9968989946402295,0.7810844559488364,0.8581796464795938,0.6283645950401112,0.49097518550099545
29.638,29.27,0.97,0.6962933323595673,0.9974034003120766,0.7798085908355278,0.8597381361062368,0.6258134228284156,0.48639351051872953
29.719,29.33,1.09,0.6940345246797895,0.9978670482462884,0.7784030158325117,0.8612690121806055,0.6232230703669737,0.48184344289528064
29.739,29.38,1.1,0.6916789718913136,0.9982886540005222,0.7768679170454501,0.8627705627369744,0.620592792414835,0.47732515504085016
29.801,29.44,1.03,0.6892263632652885,0.9986669495912811,0.7752035855560057,0.8642410810654116,0.6179218714400821,0.47283878360795667
29.863,29.49,0.98,0.6866764778434848,0.999000685060929,0.773410417282771,0.8656788677173267,0.6152096191171091,0.46838443032570204
29.923,29.55,1.13,0.6840291855387296,0.9992886300382653,0.7714889127409004,0.867082232514667,0.6124553777957176,0.46396216287358666
30.006,29.6,1.0,0.6812844481222671,0.9995295752900226,0.7694396766991244,0.8684494965596683,0.6096585219386453,0.45957201579246565
30.027,29.66,0.92,0.6784423200943593,0.9997223342605913,0.7672634177329153,0.8697789942420707,0.606818459524105,0.4552139914300909
30.069,29.71,1.24,0.6755029494347095,0.9998657445972456,0.7649609476726197,0.8710690752407328,0.6039346334098772,0.4508880609185188
30.13,29.77,1.18,0.6724665782295638,0.9999586696580968,0.7625331809454489,0.8723181065165849,0.6010065226554745,0.44659416518050066
30.192,29.82,1.2,0.6693335431725973,1.0,0.7599811338102817,0.8735244742938941,0.5980336437988888,0.4423322159618466
30.233,29.88,1.43,0.6661042759368849,0.9999886548437088,0.7573059234842758,0.8746865860269093,0.5950155520844866,0.43810209688666024
30.315,29.93,1.54,0.6627793034155189,0.9999235835136728,0.7545087671604114,0.8758028723490618,0.5919518426387402,0.43390366453228524
30.356,29.99,1.57,0.6593592478288317,0.999803766849919,0.7515909809153342,0.8768717890019188,0.5888421515906505,0.42973674952081636
30.418,30.04,1.6,0.6558448266966441,0.9996282185895046,0.7485539785071359,0.8778918187411066,0.5856861571339268,0.4256011576241374
30.481,30.1,1.84,0.652236852674412,0.9993959867151476,0.7453992700629389,0.8788614732164819,0.5824835805282365,0.4214966708795934
30.54,30.15,1.75,0.6485362332525723,0.9991061547687677,0.7421284606564021,0.8797792948238762,0.5792341870370898,0.4174230487135728
30.621,30.21,1.64,0.6447439703187955,0.9987578431278037,0.7387432487754749,0.8806438585257578,0.5759377868001853,0.41338002907044497
30.641,30.26,1.93,0.6408611595832079,0.9983502102422821,0.7352454246809332,0.8814537736381797,0.5725942356382668,0.4093673295444664
30.722,30.32,1.83,0.6368889898669988,0.9978824538307051,0.7316368686564254,0.8822076855814136,0.5692034357887586,0.4053846485124273
30.742,30.37,1.8,0.6328287422551316,0.9973538120329282,0.727919549150934,0.8829042775917227,0.5657653365706098,0.4014316662650117
30.784,30.43,1.95,0.6286817891140908,0.9967635645183657,0.7240955208146899,0.8835422723918634,0.5622799349769433,0.39750804613504137
30.847,30.48,2.02,0.6244495929757934,0.9961110335480494,0.720166922429751,0.8841204338180341,0.5587472761942812,0.393613435620937
30.889,30.54,1.98,0.6201337052890754,0.9953955849891777,0.7161359747367422,0.884637568401017,0.5551674540472945,0.3897474675038864
30.973,30.59,1.96,0.6157357650404793,0.9946166292808925,0.7120049781595377,0.8850925268992907,0.5515406113682285,0.3859097609573691
31.015,30.65,2.15,0.6112574972463927,0.9937736223501569,0.7077763104299116,0.8854842057819593,0.5478669402903722,0.3820999226478289
31.075,30.7,2.0,0.606700711318931,0.992866066476755,0.7034524241143904,0.8858115486594721,0.5441466824651573,0.3783175478254162
31.137,30.76,1.87,0.6020672993083352,0.9918935111065467,0.6990358440457478,0.8860735476602027,0.540380129202687,0.3745622214038491
31.198,30.81,2.09,0.5973592340250254,0.9908555536122206,0.6945291646618325,0.886269244751038,0.5365676215356796,0.3708335190285503
31.239,30.87,1.98,0.5925785670448406,0.9897518400008593,0.6899350472547685,0.8863977330001215,0.5327095502069844,0.36713100813232064
31.3,30.92,1.84,0.5877274266013196,0.9885820655677116,0.6852562171340195,0.886458157779853,0.5288063555809611,0.36345424897791634
31.363,30.98,1.91,0.5828080153690804,0.9873459754957227,0.6804954607072001,0.8864497179082732,0.524858527479136,0.35980279568697865
31.464,31.03,1.93,0.5778226081424717,0.9860433654005485,0.675655622482808,0.8863716667270671,0.5208666049406739,0.356176197254779
31.485,31.09,1.85,0.5727735494138227,0.9846740818208889,0.6707396019992288,0.8862233131146277,0.516831175908316,0.35257399855023097
31.526,31.14,1.8,0.5676632508557482,0.9832380226540628,0.6657503506843515,0.8860040224329947,0.5127528768405274,0.3489957413006113
31.567,31.2,1.95,0.5624941887120698,0.9817351375368262,0.6606908686500161,0.8857132174079981,0.5086323922507203,0.3454409650604248
31.629,31.25,1.78,0.557268901102041,0.9801654281715173,0.6555642014254462,0.8853503789423705,0.5044704541745388,0.34190920816384557
31.689,31.31,1.64,0.5519899852426806,0.9785289485976454,0.6503734366338659,0.8849150468618194,0.5002678415663316,0.3384000086601743
31.75,31.36,1.84,0.5466600945941501,0.9768258054090797,0.6451217006166485,0.8844068205941367,0.4960253796260689,0.33491290523176126
31.813,31.42,1.71,0.5412819359332134,0.9750561579170174,0.6398121550095645,0.8838253597813941,0.49174393905808095,0.3314474380938537
31.834,31.47,1.61,0.5358582663599142,0.9732202182589333,0.6344479932759118,0.8831703848252668,0.48742443526309037,0.3280031498758606
31.896,31.53,1.63,0.5303918902426019,0.9713182514537855,0.6290324372014442,0.8824416773655688,0.4830678274651102,0.3245795864835442
31.978,31.58,1.59,0.5248856561064179,0.969350575403828,0.6235687333561197,0.8816390806921172,0.47867511777488797,0.3211762979416154
31.999,31.64,1.45,0.5193424534703669,0.9673175608434128,0.6180601495278714,0.8807625000899497,0.4742473501916837,0.3177928392161579
32.06,31.69,1.37,0.5137652096380851,0.9652196312351672,0.6125099711337486,0.8798119031177688,0.46978560954524134,0.31442877101626693
32.12,31.75,1.53,0.5081568864473202,0.9630572626139845,0.6069214976138345,0.878787319819443,0.4652910203798836,0.31108366057425374
32.181,31.8,1.36,0.502520476983013,0.9608309833792972,0.6012980388133329,0.8776888428684086,0.46076474578269655,0.3077570824037371
32.222,31.86,1.23,0.49685900225876745,0.9585413740361156,0.5956429113581657,0.876516627644883,0.45620798615782965,0.30444861903492354
32.284,31.91,1.42,0.49117550787143255,0.956189066885311,0.5899594350294054,0.8752708922458459,0.45162197794900516,0.301157861726359
32.325,31.97,1.32,0.4854730606335631,0.9537747456636059,0.5842509291419236,0.8739519174277736,0.4470079923124213,0.2978844111524457
32.386,32.02,1.2,0.4797547451885861,0.9512991451337282,0.578520708932717,0.8725600464821072,0.442367333742323,0.29462787806606233
32.449,32.08,1.2,0.4740236606135179,0.9487630506252216,0.572772081964374,0.871095685043555,0.4377013386516141,0.29138788393567394
32.57,32.13,1.19,0.46828291701407754,0.9461672975264587,0.5670083445490931,0.8695593008314796,0.433011373909995,0.28816406155630986
32.591,32.19,1.04,0.46253563211708165,0.9435127707284147,0.5612327781986475,0.8679514233247584,0.428298835342215,0.28495605563375886
32.633,32.24,0.92,0.45678492786503844,0.9408004040207502,0.5554486461056591,0.8662726433705926,0.4235651461890983,0.2817635233413277
32.674,32.3,1.04,0.4510339270178265,0.9380311794407886,0.5496591896615068,0.8645236127278562,0.4188117555340581,0.2785861348485193
32.736,32.35,0.87,0.4452857497662825,0.935206126576015,0.5438676250161335,0.8627050435456403,0.4140401366978482,0.2754235738210115
32.798,32.41,0.73,0.4395435103624461,0.9323263218207216,0.5380771396849423,0.8608177077777095,0.40925178560432357,0.272275537891345
32.84,32.46,0.9,0.4338103137711024,0.9293928875874474,0.5322908892078629,0.858862436533605,0.4044482191200056,0.2691417390997473
32.923,32.52,0.8,0.428089252347171,0.926406991473849,0.5265119938655978,0.8568401193671414,0.39963097337028775,0.266021904304532
32.944,32.57,0.68,0.4223834025433871,0.9233698453856743,0.520743535457966,0.8547517035030592,0.3948016020351545,0.2629157755615528
32.985,32.63,0.64,0.4166958216525556,0.9202827046166007,0.5149885541491108,0.8525981930026968,0.38996167462735176,0.259823110472237
33.047,32.68,0.61,0.4110295445885116,0.9171468668858155,0.5092500453841513,0.8503806478697143,0.3851127747560251,0.25674368249973517
33.11,32.74,0.45,0.40538758070987424,0.9139636713342715,0.5035309568817267,0.8481001830969916,0.3802564983789131,0.2536772812527458
33.151,32.79,0.33,0.39977291069071863,0.9107344974805442,0.4978341857067401,0.8457579676559165,0.3753944520462107,0.25062371273663775
33.214,32.85,0.43,0.3941884834423155,0.9074607641372415,0.49216257542746294,0.8433552234293873,0.37052825113922233,0.2475827995715847
33.297,32.9,0.21,0.38863721309009924,0.9041439282889282,0.48651891336100683,0.840893224089962,0.3656595181069037,0.2445543811775146
33.317,32.96,0.01,0.38312197600998144,0.9007854839325349,0.4809059279109971,0.8383732939246794,0.360789880703358,0.24153831392575983
33.377,33.01,0.11,0.3776456079280329,0.8973869608812424,0.47532628600104404,0.8357968066081721,0.35592097022932034,0.238534471257351
33.438,33.07,-0.01,0.37221090108743815,0.8939499235328411,0.4697825906073934,0.8331651839257509,0.35105441978061663,0.23554274376796078
33.479,33.12,-0.15,0.36682060148645484,0.8904759696036052,0.46427737839393646,0.8304798944481447,0.346191862506511,0.23256303925959623
33.559,33.18,-0.19,0.3614774061908342,0.8869667288288139,0.45881311745253656,0.8277424521596292,0.34133492988078845,0.22959528275923538
33.681,33.23,-0.19,0.3561839607238681,0.8834238616311721,0.4533922051514159,0.8249544150413396,0.3364852499883641,0.2266394165046737
33.702,33.29,-0.36,0.35094285653703566,0.8798490577584269,0.44801696609418856,0.8221173836115906,0.33164444583016967,0.22369539989791745
33.722,33.34,-0.47,0.34575662856409256,0.8762440348914965,0.44268965019197465,0.8192329994250548,0.32681413364902084,0.2207632094265664
33.764,33.4,-0.4,0.34062775286131025,0.872610537224466,0.43741243085084053,0.8163029435327079,0.32199592127911364,0.21784283855373446
33.825,33.45,-0.6,0.33555864433643245,0.868950334017854,0.4321874032766154,0.8133289349045109,0.317191406521746,0.2149342975771446
33.866,33.51,-0.77,0.33055165456878466,0.8652652181265764,0.42701658289894523,0.8103127288168261,0.3124021755497862,0.21203761345810782
33.929,33.56,-0.7,0.3256090697228399,0.8615570045040518,0.42190190391628574,0.8072561152065754,0.3076298013433396,0.20915282962115417
34.033,33.62,-0.84,0.32073310855743087,0.8578275286838782,0.4168452179634396,0.8041609169941069,0.3028758421589681,0.2062800057251396
34.054,33.67,-1.01,0.3159259205326618,0.8540786452404996,0.4118482929031545,0.8010289883766811,0.29814184003471345,0.2034192174067289
34.094,33.73,-1.07,0.3111895840163363,0.8503122262303237,0.4069128117431265,0.7978622130944725,0.2934293193330526,0.20057055599722926
34.156,33.78,-1.09,0.30652610459143576,0.8465301596148281,0.4020403716795162,0.7946625026710236,0.28873978532380173,0.19773412821378303
34.218,33.84,-1.24,0.3019374134659383,0.8427343476672225,0.3972324832678368,0.791431794630109,0.284074722808859,0.1949100558259447
34.259,33.89,-1.35,0.2974253659860656,0.8389267053642162,0.3924905697218208,0.7881720506909943,0.27943559479053837,0.19209847529869686
34.321,33.95,-1.25,0.29299174025387903,0.8351091587644278,0.38781596634061566,0.7848852549441062,0.2748238411851114,0.18929953741299355
34.403,34.0,-1.46,0.2886382358500289,0.831283643374944,0.3832099200644503,0.7815734120091652,0.2702408775830459,0.18651340686493986
34.444,34.06,-1.62,0.28436647266237536,0.827452102507528,0.3786735891587297,0.7782385451778163,0.26568809405731314,0.183740261844732
34.464,34.11,-1.52,0.28017798982111564,0.823616485625999,0.37420804302635247,0.7748826945428049,0.2611668540210207,0.18098029359648743
34.526,34.17,-1.63,0.276074244740989,0.8197787466863301,0.3698142621479291,0.7715079151156973,0.25667849313551033,0.17823370596009983
34.607,34.22,-1.76,0.272056612271044,0.8159408424710441,0.36549313814944173,0.7681162749351037,0.25222431826992586,0.17550071489628508
34.648,34.28,-1.84,0.2681263839522527,0.812104730919563,0.3612454739966524,0.7647098531673872,0.24780560651312433,0.1727815479960118
34.75,34.33,-1.85,0.26428476738298473,0.8082723694562864,0.35707198431525755,0.761290738201921,0.24342360423868623,0.17007644397549831
34.771,34.39,-2.02,0.2605328856921221,0.8044457133182212,0.352973295835522,0.7578610257430063,0.2390795262236555,0.16738565215794107
34.812,34.44,-2.14,0.2568717771194006,0.8006267138839869,0.3489499479598848,0.7544228169005663,0.23477455482149745,0.16470943194314264
34.896,34.5,-2.0,0.253302394702379,0.7968173170059739,0.3450023934517796,0.750978216281743,0.23050983918959658,0.16204805226620578
34.916,34.55,-2.17,0.2498256060692562,0.7930194613473828,0.34113099924365964,0.7475293300855153,0.22628649457145011,0.15940179104643395
34.977,34.61,-2.28,0.24644219333656722,0.7892350767258007,0.337336047361953,0.744078264202438,0.2221056016335525,0.15677093462753228
35.018,34.66,-2.16,0.24315285311059376,0.7854660824649526,0.33361773596643773,0.7406271223215577,0.21796820585683288,0.15415577721014
35.12,34.72,-2.23,0.239958196591191,0.781714385756241,0.32997618050138156,0.7371780040464826,0.21387531698239598,0.15155662027766725
35.14,34.77,-2.3,0.23685874977664403,0.7779818800316735,0.3264114149556791,0.7337330030224849,0.20982790851121574,0.14897377201638348
35.202,34.83,-2.32,0.23385495376803087,0.774270443349819,0.3229233932290417,0.7302942050765117,0.20582691725734317,0.1464075467306858
35.243,34.88,-2.27,0.23094716517141006,0.7705819367965026,0.3195119906010779,0.7268636863720342,0.20187324295412312,0.14385826425444403
35.305,34.94,-2.39,0.22813565659604107,0.7669182029019759,0.3161770052999329,0.7234435115806827,0.1979677479128581,0.1413262493592895
35.367,34.99,-2.47,0.2254206172467889,0.763281064076253,0.312918160167016,0.72003573207257,0.19411125673329369,0.13881183116071216
35.428,35.05,-2.33,0.2228021536088193,0.7596723210642161,0.309735104414219,0.7166423841271568,0.19030455606523647,0.13631534252283248
35.49,35.1,-2.51,0.2202802902226597,0.7560937514220037,0.3066274154699091,0.7132654871664241,0.1865483944205511,0.13383711946269441
35.511,35.16,-2.64,0.2178549705476525,0.7525471080160875,0.30359460090984536,0.7099070420120547,0.18284348203470813,0.1313775005548959
35.572,35.21,-2.53,0.21552605791173435,0.7490341175463908,0.300636100469008,0.7065690291682607,0.1791904907769825,0.1289368263373252
35.634,35.27,-2.58,0.2132933365453714,0.7455564790947329,0.29775128813019724,0.7032534071318145,0.1755900541083138,0.12651543871872395
35.695,35.32,-2.65,0.21115651269736602,0.7421158626998108,0.2949394742851162,0.6999621107307232,0.17204276708573848,0.1241136803887649
35.736,35.38,-2.64,0.20911521583008585,0.7387139079598792,0.2921999079634594,0.6966970494929423,0.16854918641219965,0.12173189423131567
35.799,35.43,-2.56,0.20716899989149387,0.7353522226642846,0.28953177912531747,0.6934601060465287,0.16510983053046974,0.11937042274152938
35.879,35.49,-2.65,0.20531734466128207,0.7320323814549784,0.2869342210120739,0.6902531345526233,0.16172517975987222,0.1170296074473951
35.9,35.54,-2.71,0.20355965716839397,0.7287559245190945,0.2844063125508973,0.6870779591725737,0.158395676474458,0.11470978833639975
35.961,35.6,-2.5,0.2018952731772436,0.725524356313612,0.28194708080789604,0.6839363725704202,0.15512172532127427,0.11241130328798257
36.022,35.65,-2.64,0.2003234587399772,0.7223391443230666,0.2795555034849962,0.6808301344518387,0.15190369347735425,0.11013448751248417
36.064,35.71,-2.72,0.19884341181214804,0.7192017178512108,0.2772305114555872,0.677760970140549,0.14874191094405523,0.10787967299730637
36.126,35.76,-2.6,0.1974542639291428,0.7161134668475302,0.27497099133394537,0.6747305691931759,0.14563667087738197,0.10564718796099659
36.231,35.82,-2.66,0.19615508194068196,0.7130757407695173,0.27277578807346026,0.6717405840535348,0.1425882299529463,0.10343735631594957
36.251,35.87,-2.76,0.19494486980070344,0.7100898474815851,0.27064370758872563,0.6687926287473014,0.13959680876421107,0.10125049714042293
36.311,35.93,-2.79,0.193822570409873,0.7071570521914963,0.2685735193965357,0.6658882776180366,0.1366625922526473,0.09908692416057746
36.353,35.98,-2.74,0.192787067507853,0.7042785764251951,0.2665639592707938,0.6630290641055876,0.13378573016841327,0.09694694524325081
36.414,36.04,-2.82,0.19183718761236807,0.701455597040936,0.2646137319063501,0.6602164795678634,0.13096633756012438,0.0948308619001603
36.474,36.09,-2.84,0.19097170200202948,0.698689245283561,0.2627215135868154,0.6574519721469164,0.12820449529223155,0.09273896880423792
36.516,36.15,-2.64,0.19018932873981817,0.6959806058797436,0.26088595485142196,0.6547369456801815,0.12550025058847922,0.09067155331880432
36.598,36.2,-2.76,0.18948873473411007,0.69333071617495,0.25910568315602656,0.6520727586576522,0.12285361759989073,0.08862889504027999
36.618,36.26,-2.85,0.18886853783414112,0.6907405653128325,0.25737930552339555,0.6494607232257105,0.12026457799573959,0.08661126535511209
36.681,36.31,-2.72,0.18832730895682842,0.6882110934577755,0.25570541117801004,0.6469021042383059,0.11773308157600434,0.08461892701154658
36.723,36.37,-2.75,0.18786357424191882,0.685743191061331,0.25408257416084795,0.6443981183560998,0.1152590469038532,0.08265213370681637
36.783,36.42,-2.81,0.1874758172325115,0.6833376981732643,0.2525093559199443,0.6419499331940622,0.11284236195673124,0.08071112969027955
36.844,36.48,-2.8,0.1871624810780251,0.6809954037979316,0.250984307872922,0.6395586665178682,0.11048288479464091,0.07879614938302829
36.905,36.53,-2.75,0.1869219707566712,0.678717045296729,0.2495059739380658,0.6372253854893394,0.10818044424423,0.07690741701446062
36.967,36.59,-2.85,0.18675265531452315,0.6765033078373385,0.24807289303084784,0.6349511059610808,0.10593484059732838,0.07504514627627046
37.009,36.64,-2.93,0.18665287011833087,0.6743548238904387,0.24668360152302138,0.6327367918203928,0.10374584632259576,0.0732095399942829
37.069,36.7,-2.73,0.18662091911928969,0.6722721727744543,0.24533663566149627,0.6305833543825128,0.10161320678895296,0.07140078981852482
37.111,36.75,-2.86,0.18665507712503301,0.6702558802488093,0.2440305339442763,0.6284916518332035,0.09953664099947239,0.06961907593187289
37.194,36.81,-2.94,0.18675359207714445,0.6683064181560587,0.24276383945079785,0.626462488720686,0.0975158423344033,0.06786456677756661
37.235,36.86,-2.79,0.18691468733148034,0.6664242041132444,0.24153510212408635,0.6244966154969088,0.09555047930201996,0.06613741880579861
37.337,36.92,-2.82,0.18713656393863906,0.6646096012527923,0.24034288100230225,0.622594728108122,0.09364019629600884,0.0644377762395201
37.357,36.97,-2.87,0.1874174029220173,0.6628629180132082,0.2391857463974507,0.620757467634665,0.09178461435813931,0.06276577085955778
37.398,37.03,-2.86,0.18775536755098327,0.6611844079797874,0.23806228201917443,0.618985419979875,0.08998333194499776,0.06112152180912064
37.46,37.08,-2.78,0.18814860560675747,0.6595742697755592,0.2369710870416394,0.6172791156080631,0.08823592569761611,0.05950513541774439
37.521,37.14,-2.87,0.18859525163867824,0.658032647002674,0.23591077811162958,0.6156390293315221,0.08654195121288633,0.05791670504468577
37.562,37.19,-2.93,0.1890934292086218,0.6565596282344146,0.23487999129608453,0.6140655801465049,0.08490094381570137,0.05635631094175196
37.645,37.25,-2.75,0.1896412531214323,0.6551552470579599,0.23387738396739985,0.6125591311180926,0.08331241933081218,0.05482402013551705
37.707,37.3,-2.9,0.19023683163928978,0.6538194821679775,0.23290163662488617,0.611119989313852,0.08177587485343972,0.05331988632883448
37.728,37.36,-3.02,0.1908782686779976,0.6525522575110418,0.2319514546508192,0.6097484057861797,0.08029078951772022,0.05184394982149826
37.77,37.41,-2.89,0.19156366598317087,0.6513534424808329,0.23102556999953983,0.6084445756032559,0.07885662526209658,0.05039623744983418
37.832,37.47,-2.93,0.19229112528431602,0.6502228521639956,0.23012274281814404,0.6072086379285137,0.07747282759079603,0.048976762544928
37.892,37.52,-2.98,0.19305875042479226,0.6491602476364442,0.22924176299740254,0.60604067614846,0.07613882633053169,0.04758552490916481
37.932,37.58,-2.97,0.19386464946560872,0.6481653363098159,0.22838145165158988,0.6049407180486582,0.07485403638156021,0.046222510810753695
37.993,37.63,-2.89,0.19470693676097542,0.6472377723277472,0.22754066252591634,0.6039087360376854,0.07361785846224772,0.04488769299592149
38.056,37.69,-2.96,0.19558373500356388,0.6463771570116041,0.22671828333032082,0.6029446474188849,0.0724296798463303,0.04358103071847637
38.117,37.74,-3.0,0.19649317723753051,0.6455830393552594,0.2259132369984767,0.602048314709704,0.07128887509210305,0.04230246978647372
38.179,37.8,-2.8,0.19743340883746474,0.6448549165684543,0.2251244828709555,0.6012195460083916,0.07019480676282626,0.04105194262574063
38.239,37.85,-2.93,0.1984025894515357,0.6441922346682301,0.22435101780158545,0.6004580954078039,0.06914682613770134,0.03982936836001349
38.281,37.91,-3.03,0.1993988949071935,0.643594389117882,0.2235918771861295,0.599763663456054,0.06814427391283936,0.03863465290741719
38.342,37.96,-2.92,0.20042051907782366,0.6430607255128985,0.2228461359124979,0.5991358976637555,0.06718648089172558,0.037467689092954816
38.424,38.02,-2.97,0.20146567570881352,0.6425905403133624,0.22211290923186558,0.5985743930575891,0.06627276866475587,0.036328356776615486
38.445,38.07,-3.05,0.20253260020157812,0.6421830816222206,0.22139135355023296,0.59807869277984,0.06540245027746193,0.03521652299667828
38.505,38.13,-3.05,0.203619551354129,0.6418375500087474,0.22068066714006693,0.597648288733498,0.06457483088706166,0.03413204212779023
38.546,38.18,-2.95,0.20472481305675388,0.6415530993764649,0.2199800907716901,0.5972826222724746,0.06378920840698706,0.0330747560533812
38.608,38.24,-3.04,0.20584669594136837,0.6413288378746947,0.21928890826414435,0.5969810849364368,0.06304487413906121,0.03204449435194995
38.67,38.29,-3.09,0.2069835389831118,0.6411638288528305,0.2186064469553439,0.5967430192296553,0.06234111339301501,0.0310410744967326
38.711,38.35,-2.89,0.20813371105280112,0.6410570918563494,0.2179320780914595,0.5965677194431868,0.06167720609307261,0.03006430206823928
38.833,38.4,-3.02,0.20929561241894767,0.6410076036635243,0.21726521713566263,0.5964544325196032,0.06105242737138664,0.02911397097911867
38.873,38.46,-3.13,0.21046767619815357,0.6410142993617833,0.21660532399656157,0.596402358959406,0.06046604814816097,0.028189863710791244
38.893,38.51,-3.0,0.2116483697528147,0.6410760734626824,0.21595190317687565,0.5964106537682153,0.05991733569836327,0.027291751561276403
38.934,38.57,-3.04,0.21283619603520848,0.6411917810544665,0.21530450384314748,0.5964784274437488,0.05940555420498771,0.026419394903619227
38.996,38.62,-3.14,0.21402969487722137,0.6413602389911416,0.2146627198175709,0.596604747001471,0.05892996529886084,0.025572543454343392
39.036,38.68,-3.17,0.21522744422508552,0.6415802271169235,0.21402618949320631,0.5967886370377213,0.058489828585001964,0.024750936551396204
39.097,38.73,-3.13,0.21642806131855294,0.641850489524923,0.21339459567397914,0.5970290808291057,0.058084402155565096,0.023954303441084047
39.178,38.79,-3.25,0.2176302038139931,0.6421697358489029,0.21276766534096395,0.5973250214669481,0.05771294308939782,0.02318236357352424
39.218,38.84,-3.3,0.21883257085094654,0.6425366425869341,0.2121451693465356,0.5976753630256029,0.057374707938237804,0.02243482690618597
39.26,38.9,-3.11,0.22003390406167422,0.6429498544557527,0.21152692203799334,0.5980789717634628,0.057068953199541625,0.02171139421511778
39.321,38.95,-3.24,0.22123298852321507,0.6434079857746124,0.21091278081224063,0.5985346773555476,0.056794935775916246,0.021011757413451664
39.362,39.01,-3.33,0.2224286536513995,0.6439096218774225,0.21030264560303874,0.5990412741566168,0.0565519134211098,0.020335599876752566
39.423,39.06,-3.21,0.22361977403619146,0.6444533205520162,0.2096964583022961,0.5995975224938366,0.05633914517253022,0.01968259677474543
39.486,39.12,-3.24,0.22480527021773733,0.6450376135054389,0.2090942021169166,0.6002021499880384,0.05615589177028177,0.019052415408926097
39.568,39.17,-3.28,0.22598410940259755,0.6456610078541294,0.2084959008628801,0.600853852902577,0.05600141606272733,0.01844471555557223
39.589,39.23,-3.29,0.2271553061197411,0.6463219876378561,0.20790161819834901,0.6015512975187421,0.055874983398593404,0.017859149813699952
39.65,39.28,-3.23,0.22831792281596983,0.6470190153562715,0.20731145679767587,0.6022931215366972,0.055775862005661876,0.0172953639575193
39.692,39.34,-3.33,0.22947107039056097,0.6477505335269207,0.20672555746828336,0.6030779355008927,0.055703323356124164,0.016752997292931813
39.753,39.39,-3.4,0.23061390866904455,0.6485149662635042,0.2061440982124886,0.6039043242488797,0.05565664251869562,0.01623168301761451
39.835,39.45,-3.23,0.23174564681614598,0.649310720873147,0.20556729323643091,0.6047708483824125,0.05563509849760514,0.015731048584242957
39.896,39.5,-3.37,0.23286554368802795,0.6501361894713664,0.20499539190834623,0.6056760457596767,0.05563797455857602,0.015250716066410154
39.917,39.56,-3.47,0.23397290812404048,0.6509897506133652,0.20442867766848424,0.6066184330074391,0.05566455854190936,0.014790302526801713
39.978,39.61,-3.32,0.23506709917822532,0.6518697709402247,0.20386746689300062,0.6075965070519144,0.05571414316277938,0.014349420387167746
40.041,39.67,-3.35,0.23614752629085814,0.6527746068385015,0.20331210771424418,0.6086087466671163,0.05578602629884653,0.013927677799594852
40.083,39.72,-3.4,0.23721364940036527,0.6537026061116437,0.2027629787999886,0.6096536140393617,0.05587951126528244,0.013524679018557806
40.164,39.78,-3.38,0.2382649789959703,0.6546521096615835,0.20222048809426107,0.6107295563465017,0.055993907077294874,0.013140024773236112
40.205,39.83,-3.28,0.23930107611143953,0.6556214531788502,0.2016850715224891,0.6118350073504071,0.05612852870025918,0.012773312639572367
40.266,39.89,-3.37,0.24032155226036556,0.6566089688395256,0.20115719166377105,0.6129683890011813,0.056282697287593685,0.012424137411546379
40.327,39.94,-3.41,0.2413260693135249,0.6576129870073204,0.20063733639313922,0.6141281130515495,0.05645574040654961,0.012092091471142725
40.369,40.0,-3.22,0.24231433931892402,0.6586318379390091,0.2001260174967018,0.6153125826798546,0.056646992252126,0.011776765156485415
40.429,40.05,-3.37,0.24328612426522953,0.6596638534914078,0.19962376926254602,0.6165201941200916,0.05685579384935993,0.011477747127600163
40.491,40.11,-3.47,0.2442412357893377,0.6607073688280599,0.19913114705027113,0.6177493382974057,0.057081493244279566,0.011194624729249635
40.531,40.16,-3.36,0.24517953482887023,0.6617607241238092,0.19864872584200174,0.6189984024675146,0.057323445683844725,0.01092698435027166
40.573,40.22,-3.41,0.24610093122041954,0.662822266265461,0.19817709877774756,0.620265771858533,0.05758101378521799,0.01067441177883829
40.654,40.27,-3.49,0.24700538324439195,0.6638903505467225,0.19771687567797858,0.6215498313136765,0.05785356769469761,0.01043649255306835
40.714,40.33,-3.48,0.2478928971172428,0.6649633423556093,0.19726868155617477,0.6228489669333698,0.05814048523661128,0.010212812306454122
40.757,40.38,-3.39,0.24876352643178623,0.6660396188525332,0.19683315512393673,0.6241615677153642,0.05844115205244603,0.010002957107559649
40.84,40.44,-3.48,0.24961737154618607,0.66711757063728,0.196410947291109,0.6254860271914854,0.058754961730466876,0.009806513793449845
40.861,40.49,-3.51,0.2504545789222116,0.6681956034030436,0.19600271966329544,0.6268207450595703,0.059081315926059016,0.009623070296332274
40.902,40.55,-3.31,0.2512753404133677,0.6692721395756253,0.1956091430391263,0.6281641288090795,0.05941962447302481,0.009452215962921373
41.004,40.6,-3.44,0.2520798925036028,0.6703456199358458,0.19523089590967158,0.6295145953387596,0.05976930548607603,0.009293541866069656
41.024,40.66,-3.53,0.25286851549743483,0.6714145052231792,0.19486866296244099,0.630870572564666,0.06012978545478299,0.00914664110822825
41.066,40.71,-3.39,0.25364153266247386,0.6724772777186327,0.19452313359246592,0.6322305010168279,0.060500499329277375,0.00901110911630405
41.147,40.77,-3.42,0.254399309325492,0.6735324428049447,0.19419500042305454,0.6335928354228227,0.06088089059803699,0.008886543927478518
41.209,40.82,-3.48,0.2551422519233521,0.6745785305022138,0.19388495783890308,0.634956046276514,0.06127041135809133,0.008772546465580611
41.251,40.88,-3.49,0.2558708070102029,0.6756140969771567,0.19359370053425157,0.6363186213902448,0.061668522377984064,0.008668720807651133
41.312,40.93,-3.44,0.25658546022238227,0.6766377260243097,0.19332192207874155,0.6376790674288328,0.06207469315383528,0.008574674440351817
41.373,40.99,-3.55,0.2572867352025405,0.6776480305175652,0.1930703135036428,0.6390359114236595,0.06248840195884404,0.00849001850588163
41.434,41.04,-3.61,0.25797519248457995,0.6786436538304287,0.1928395619111188,0.6403877022650051,0.06290913588655883,0.00841436803709239
41.476,41.1,-3.44,0.25865142834105803,0.6796232712233654,0.19263034910912932,0.6417330121706818,0.06333639088821595,0.008347342181534451
41.517,41.15,-3.56,0.25931607359472286,0.6805855911965499,0.19244335027441087,0.6430704381289629,0.0637696718044054,0.008288564414199754
41.577,41.21,-3.64,0.25996979239582657,0.6815293568062937,0.19227923264576013,0.6443986033138269,0.0642084923912849,0.008237662738756807
41.619,41.26,-3.47,0.2606132809667996,0.6824533469434289,0.1921386542496303,0.6457161584705854,0.06465237534153098,0.008194269877088515
41.681,41.32,-3.49,0.26124726631584805,0.6833563775719407,0.1920222626599185,0.647021783269988,0.06510085230020352,0.00815802344695813
41.743,41.37,-3.54,0.2618725049210632,0.6842373029261648,0.19193069379376593,0.6483141876288825,0.06555346387568436,0.00812856612767919
41.804,41.43,-3.52,0.2624897813866412,0.6850950166649505,0.19186457074509725,0.649592112995577,0.06600975964585207,0.008105545813732719
41.868,41.48,-3.43,0.263099907072833,0.6859284529813172,0.19182450265749817,0.6508543335981688,0.06646929815967677,0.008088615756321405
41.909,41.54,-3.5,0.2637037187013201,0.6867365876662183,0.19181108363792382,0.6520996576542134,0.0669316469344505,0.008077434692899801
41.971,41.59,-3.52,0.264302076937831,0.6875184391250815,0.191824891712631,0.6533269285401995,0.06739638244888593,0.008071666964791073
42.032,41.65,-3.34,0.2648958649539257,0.6882730693458347,0.19186648782663396,0.6545350259193826,0.06786309013234011,0.008070982623074782
42.136,41.7,-3.48,0.265485986970009,0.6889995848171444,0.19193641488793167,0.6557228668265972,0.06833136435044458,0.008075057522979413
42.157,41.76,-3.57,0.2660733667817699,0.689697137395601,0.19203519685774167,0.6568894067086919,0.06880080838744908,0.008083573407042846
42.178,41.81,-3.44,0.26665894627236636,0.6903649251206064,0.19216333788799522,0.6580336404192387,0.06927103442561117,0.00809621797731088
42.239,41.87,-3.5,0.2672436839127962,0.6910021929757492,0.19232132150741457,0.6591546031661333,0.06974166352197471,0.008112684956848637
42.281,41.92,-3.57,0.26782855325295307,0.691608233595491,0.19250960985752108,0.6602513714106785,0.0702123255828588,0.00813267414087211
42.344,41.98,-3.55,0.26841454140579196,0.6921823879161013,0.19272864297980036,0.6613230637168286,0.07068265933634403,0.008155891437841857
42.405,42.03,-3.47,0.26900264752686215,0.692724045769937,0.19297883815502606,0.6623688415494243,0.071152312303009,0.008182048900860016
42.488,42.09,-3.54,0.26959388129134665,0.6932326464222694,0.19326058929554119,0.6633879100203851,0.07162094076514249,0.008210864749702985
42.508,42.14,-3.56,0.27018926137069016,0.6937076790499307,0.19357426639113187,0.6643795185819148,0.072088209734625,0.008242063383832958
42.551,42.2,-3.36,0.27078981391089424,0.6941486831610985,0.19392021500900694,0.6653429616658642,0.07255379291966357,0.008275375386760694
42.612,42.25,-3.47,0.27139657101460807,0.6945552489555956,0.19429875584831263,0.6662775792684644,0.07301737269056621,0.008310537522162117
42.674,42.31,-3.55,0.2720105692292228,0.6949270176251204,0.19471018434953122,0.6671827574797139,0.07347864004476276,0.008347292722182684
42.735,42.36,-3.37,0.27263284804326055,0.6952636815928772,0.19515477035903367,0.6680579289567802,0.07393729457131137,0.008385390068377466
42.839,42.42,-3.4,0.27326444839345604,0.6955649846921194,0.19563275784903159,0.6689025733408466,0.0743930444151647,0.008424584765746394
42.86,42.47,-3.48,0.2739064111850068,0.695830722283187,0.19614436469317048,0.6697162176168728,0.07484560624149027,0.00846463811035896
42.901,42.53,-3.46,0.27455977582745333,0.6960607413087557,0.19668978249794483,0.6704984364158416,0.07529470520036011,0.008505317451107166
42.963,42.58,-3.41,0.27522557878857973,0.6962549402871985,0.19726917649002376,0.671248852259186,0.07574007489214644,0.008546396146141817
43.024,42.64,-3.52,0.27590485216868776,0.696413269244088,0.197882685459503,0.6719671357451756,0.07618145733397175,0.008587653514567807
43.065,42.69,-3.57,0.2765986222975646,0.6965357295819521,0.1985304217590272,0.6726530056771066,0.07661860292754809,0.00862887478400702
43.125,42.75,-3.41,0.2773079083563798,0.6966223738884706,0.19921247135863895,0.6733062291332094,0.07705127042870959,0.00866985103467615
43.206,42.8,-3.53,0.2780337210266216,0.6966733056833755,0.19992889395614719,0.6739266214782486,0.07747922691890352,0.008710379140642861
43.227,42.86,-3.61,0.2787770611680414,0.6966886791043855,0.20067972314277308,0.6745140463167882,0.07790224777886418,0.00875026170892157
43.267,42.91,-3.41,0.2795389185274423,0.6966686985325502,0.20146496662383312,0.6750684153880762,0.07832011666466099,0.008789307017051214
43.329,42.97,-3.45,0.2803202704800802,0.6966136181574017,0.2022846064942486,0.6755896884024396,0.07873262548628614,0.008827328949768181
43.39,43.02,-3.51,0.28112208080540535,0.6965237414823295,0.2031385995686642,0.676077872819069,0.0791395743889294,0.008864146935382875
43.452,43.08,-3.47,0.2819452984987926,0.6963994207706683,0.20402687776585166,0.6765330235651492,0.07954077173708665,0.008899585882455374
43.514,43.13,-3.43,0.28279085662081344,0.6962410564331121,0.20494934854694077,0.6769552426964253,0.07993603410167224,0.00893347611732173
43.575,43.19,-3.52,0.28365967118556906,0.6960490963571428,0.20590589540694007,0.6773446789993629,0.0803251862503228,0.008965653322978115
43.616,43.24,-3.55,0.28455264008957853,0.6958240351792252,0.20689637841894384,0.6777015275351213,0.0807080611410774,0.008995958479823192
43.656,43.3,-3.39,0.28547064208267114,0.6955664135006056,0.20792063483032952,0.6780260291256616,0.08108449991960427,0.009024237808768053
43.718,43.35,-3.52,0.28641453578225906,0.6952768170476608,0.20897847971014213,0.6783184697824391,0.08145435192012014,0.009050342717227195
43.781,43.41,-3.63,0.28738515873227993,0.6949558757778441,0.21006970664674549,0.678579180078244,0.08181747467012228,0.009074129748487748
43.842,43.46,-3.48,0.2883833265079653,0.6946042629324085,0.21119408849470647,0.6788085344628623,0.08217373389903397,0.00909546053491191
43.945,43.52,-3.56,0.2894098318674732,0.694222694037188,0.21235137816979693,0.6790069505232837,0.0825230035508338,0.009114201755373986
43.966,43.57,-3.64,0.2904654439512722,0.6938119258527989,0.21354130949088632,0.679174888189251,0.08286516580068999,0.009130225097306181
44.007,43.63,-3.57,0.2915509075299208,0.6933727552757333,0.21476359806724402,0.6793128488851108,0.08320011107555786,0.009143407223701848
44.049,43.68,-3.53,0.29266694230059254,0.6929060181919307,0.2160179422294084,0.6794213746292133,0.083527738078644,0.009153629745372632
44.109,43.74,-3.56,0.2938142422324495,0.6924125882844823,0.21730402400141566,0.6795010470823731,0.0838479538175894,0.00916077919870052
44.151,43.79,-3.59,0.2949934749607603,0.6918933757971868,0.2186215101118739,0.6795524865471466,0.08416067363618344,0.009164747029090911
44.213,43.85,-3.43,0.296205281229486,0.6913493262557662,0.21997005304113898,0.6795763509198486,0.08446582124940101,0.009165429580306488
44.316,43.9,-3.52,0.297450274381941,0.6907814191486626,0.22134929210172521,0.6795733345973411,0.08476332878155364,0.00916272808983028
44.335,43.96,-3.61,0.2987290398990815,0.6901906665694156,0.22275885454903271,0.6795441673406736,0.08505313680735178,0.009156548690371873
44.377,44.01,-3.41,0.3000421349849706,0.6895781118226811,0.22419835671947014,0.6794896130976813,0.08533519439568822,0.009146802417590442
44.439,44.07,-3.48,0.30139008819901164,0.688944827995981,0.2256674051931201,0.6794104687866301,0.08560945915595845,0.009133405224082947
44.5,44.12,-3.56,0.30277339913457185,0.6882919164993099,0.22716559797818542,0.6793075630429442,0.08587589728672586,0.009116277999690588
44.542,44.18,-3.5,0.30419253814356917,0.6876205055748256,0.22869252571450757,0.6791817549310096,0.08613448362653167,0.009095346598188971
44.605,44.23,-3.5,0.3056479461065128,0.6869317487789585,0.23024777289349158,0.6790339326230038,0.08638520170665108,0.009070541870398123
44.708,44.29,-3.59,0.30714003424745007,0.686226823439322,0.2318309190918226,0.6788650120466329,0.08662804380557837,0.009041799703711344
44.729,44.34,-3.64,0.30866918399322485,0.6855069290888202,0.23344154021634703,0.6786759355036586,0.08686301100498887,0.00900906106801543
44.77,44.4,-3.5,0.31023574687634875,0.6847732858793872,0.23507920975739632,0.6784676702611849,0.08709011324687474,0.008972272067952184
44.831,44.45,-3.59,0.3118400444806525,0.6840271329778309,0.23674350004770933,0.6782412071177667,0.0873093693914884,0.008931384001445764
44.872,44.51,-3.67,0.3134823684287579,0.6832697269462511,0.23843398352397518,0.677997558946493,0.08752080727566086,0.008886353424410078
44.934,44.56,-3.46,0.31516298041030694,0.6825023401094837,0.2401502339879107,0.6777377592172614,0.08772446377100762,0.008837142221529589
44.995,44.62,-3.52,0.3168821122498602,0.6817262589119684,0.24189182786374477,0.6774628605004969,0.08792038484149976,0.008783717682997494
45.035,44.67,-3.57,0.31863996601336786,0.6809427822664147,0.24365834544899762,0.6771739329545932,0.08810862559985291,0.00872605258710129
45.116,44.73,-3.45,0.32043671415208985,0.6801532198966942,0.24544937215545753,0.6768720627994268,0.08828925036218105,0.008664125288550109
45.158,44.78,-3.41,0.32227249968282673,0.6793588906774456,0.24726449973732403,0.6765583507783554,0.08846233270038134,0.008597919812400073
45.219,44.84,-3.46,0.3241474364033957,0.6785611209728644,0.2491033275036134,0.6762339106111016,0.08862795549173923,0.00852742595338679
45.281,44.89,-3.47,0.32606160914235216,0.6777612429770884,0.2509654635120121,0.675899867439924,0.08878621096526597,0.008452639380443024
45.342,44.95,-3.31,0.3280150740419596,0.6769605930585515,0.25285052574135636,0.6755573562715305,0.08893720074431327,0.008373561746143805
45.425,45.0,-3.42,0.33000785887337125,0.6761605101106551,0.25475814323983925,0.6752075204172866,0.08908103588503806,0.008290200800776294
45.446,45.06,-3.53,0.33203996338292274,0.6753623339110616,0.25668795724593135,0.6748515099343403,0.08921783691031461,0.008202570510665683
45.487,45.11,-3.33,0.33411135966837374,0.6745674034918435,0.25863962227891396,0.6744904800703215,0.08934773383870821,0.008110691180291766
45.55,45.17,-3.43,0.33622199258390223,0.6737770555226141,0.2606128071959116,0.6741255897142495,0.08947086620813022,0.0080145895776161
45.612,45.22,-3.47,0.3383717801726086,0.6729926227086644,0.26260719621236817,0.6737579998562238,0.08958738309377844,0.007914299061964059
45.634,45.28,-3.36,0.34056061412517824,0.6722154322060983,0.26462248988294973,0.6733888720584719,0.08969744311994457,0.00780985971374652
45.694,45.33,-3.34,0.34278836026323817,0.6714468040559364,0.26665840603992647,0.6730193669402987,0.08980121446526117,0.007701318465243647
45.778,45.39,-3.36,0.34505485904589417,0.6706880496390937,0.2687146806861788,0.6726506426794086,0.08989887486096099,0.007588729231613118
45.8,45.44,-3.4,0.3473599260979265,0.6699404701540438,0.27079106884005716,0.672283853531971,0.08999061158173087,0.007472153041251964
45.86,45.5,-3.26,0.3497033527581399,0.669205355118914,0.2728873453294236,0.6719201483737363,0.09007662142877358,0.007351658164621133
45.922,45.55,-3.36,0.352084906646436,0.6684839808996916,0.2750033055323635,0.6715606692644273,0.09015711070471982,0.007227320240629291
45.963,45.61,-3.45,0.3545043322482558,0.6677776092661516,0.2771387660622557,0.6712065500375378,0.09023229518005414,0.00709922239968554
46.025,45.66,-3.24,0.3569613515151079,0.6670874859770637,0.2792935653950883,0.6708589149175985,0.09030240005072727,0.006967455382571075
46.087,45.72,-3.35,0.3594556644799549,0.6664148393961907,0.28146756443712523,0.670518877166874,0.09036765988663177,0.006832117654335779
46.149,45.77,-3.42,0.36198694988627206,0.6657608791405524,0.28366064703124483,0.6701875377633993,0.09042831857060603,0.006693315512506371
46.21,45.83,-3.32,0.3645548658295808,0.6651267947624422,0.2858727204004589,0.6698659841122493,0.09048462922762601,0.006551163188955194
46.25,45.88,-3.36,0.367159050410269,0.6645137544666818,0.28810371552732655,0.66955528879191,0.09053685414384251,0.006405782944793283
46.312,45.94,-3.42,0.36979912239654844,0.6639229038645085,0.290353587468203,0.6692565083375288,0.0905852646751092,0.006257305157640458
46.372,45.99,-3.43,0.3724746818964223,0.6633553647653682,0.2926223156014415,0.6689706820626969,0.0906301411446223,0.006105868400616219
46.434,46.05,-3.3,0.3751853110375026,0.6628122340077722,0.29490990380879123,0.6686988309213062,0.09067177272926456,0.005951619512373662
46.474,46.1,-3.38,0.37793057465348917,0.6622945823302461,0.29721638058937944,0.6684419564108809,0.09071045733421662,0.0057947136574703064
46.516,46.16,-3.42,0.3807100209760914,0.6618034532832721,0.299541799105821,0.6682010395185964,0.09074650145537193,0.005635314376337545
46.619,46.21,-3.15,0.38352318233115573,0.6613398621830233,0.3018862371621654,0.6679770397110106,0.09078022002908842,0.005473593624081895
46.64,46.27,-3.24,0.3863695758377953,0.6609047951075822,0.30424979711359923,0.6677708939682999,0.09081193626882755,0.005309731797327519
46.702,46.32,-3.31,0.38924870410937734,0.6604992079362706,0.30663260570804385,0.6675835158635842,0.09084198148827088,0.0051439177483098815
46.743,46.38,-3.16,0.39216005595527564,0.6601240254327068,0.3090348138599776,0.6674157946877959,0.09087069491057202,0.004976348785419639
46.806,46.43,-3.16,0.3951031070823751,0.659780140372181,0.31145659635700834,0.6672685946204491,0.09089842346348068,0.004807230659370565
46.889,46.49,-3.18,0.39807732079544184,0.659468412713855,0.31389815149991046,0.6671427539465499,0.0909255215601425,0.004636777534169366
46.909,46.54,-3.17,0.40108214869556674,0.6591896688181756,0.31635970067696495,0.6670390843197755,0.09095235086542916,0.004465211942114796
46.951,46.6,-3.06,0.40411703137594157,0.6589447007098017,0.3188414878735322,0.6669583700719687,0.09097928004771089,0.004292764722102787
47.013,46.65,-3.17,0.40718139911426854,0.6587342653862643,0.32134377911791867,0.6669013675688702,0.0910066845160433,0.004119674940558166
47.075,46.71,-3.24,0.41027467256114797,0.6585590841724998,0.3238668618647407,0.666868804611876,0.09103494614279123,0.003946189794357988
47.137,46.76,-3.05,0.41339626342379054,0.6584198421213194,0.3264110443171099,0.6668613798854767,0.09106445297175438,0.0037725644951557423
47.178,46.82,-3.18,0.41654557514438123,0.658317187459816,0.3289766546890532,0.6668797624499195,0.09109559891188199,0.003599062134566488
47.282,46.87,-3.26,0.4197220035723315,0.6582517310816621,0.3315640404096472,0.6669245912785359,0.09112878341666925,0.0034259535297401843
47.302,46.93,-3.09,0.4229249376295212,0.6582240460852617,0.33417356727040015,0.6669964748391056,0.0911644111493348,0.003253517048912908
47.342,46.98,-3.1,0.42615375996754484,0.6582346673576936,0.33680561851754975,0.6670959907185088,0.09120289163388513,0.00308203841658958
47.404,47.04,-3.13,0.4294078476160018,0.6582840912042583,0.339460593891138,0.6672236852897304,0.09124463889218055,0.0029118104981088124
47.466,47.09,-3.1,0.4326865726209438,0.6583727750232974,0.34213890861289314,0.6673800734201094,0.09129007106713898,0.0027431330634659287
47.508,47.15,-3.01,0.4359893026726815,0.6585011370258169,0.34484099232509746,0.667565638219599,0.09133961003226361,0.0025763125303848206
47.569,47.2,-3.09,0.4393154017222862,0.6586695559993158,0.34756728798280073,0.66778083082767,0.09139368098774255,0.002411661686742785
47.629,47.26,-3.11,0.4426642305862756,0.658878371115068,0.3503182507019316,0.6680260702373608,0.0914527120434264,0.0022494993925818345
47.671,47.31,-2.92,0.4460351475391177,0.6591278817779622,0.35309434656604444,0.6683017431548522,0.09151713378904747,0.0020901502620774494
47.752,47.37,-3.05,0.4494275088933586,0.6594183475178519,0.35589605139464314,0.668608203892809,0.09158737885209708,0.0019339443259647055
47.792,47.42,-3.14,0.4528406695673287,0.6597499879212303,0.3587238494762139,0.6689457742956202,0.09166388144382905,0.0017812166750389826
47.874,47.48,-3.01,0.45627398364050936,0.6601229826019704,0.3615782322692546,0.6693147436946263,0.09174707689391025,0.0016323070854301462
47.914,47.53,-3.08,0.45972680489674783,0.6605374712098194,0.3644596970747454,0.6697153688914116,0.09183740117428106,0.0014875596264074305
47.975,47.59,-3.17,0.4631984873555879,0.6609935534753097,0.36736874568360184,0.6701478741672847,0.09193529041280007,0.0013473222515379731
47.996,47.64,-3.17,0.4666883857919319,0.6614912892897765,0.3703058830026217,0.6706124513172119,0.09204118039723826,0.0012119463740865983
48.057,47.7,-3.1,0.4701958562441176,0.6620306988192582,0.3732716156622899,0.6711092597066753,0.09215550607017568,0.0010817864275926353
48.118,47.75,-3.18,0.4737202565103529,0.6626117626511102,0.376266450609656,0.6716384263500946,0.09227870101532552,0.0009571994126101764
48.179,47.81,-3.19,0.4772609466333396,0.6632344219721976,0.3792908936893513,0.6722000460095611,0.09241119693578062,0.000838544430674836
48.24,47.86,-3.01,0.4808172893728282,0.6638985787775504,0.3823454482156815,0.6727941813127357,0.09255342312466125,0.0007261822066388554
48.281,47.92,-3.12,0.48438865066582565,0.6646040961083894,0.38543061353865044,0.6734208628888536,0.09270580592864268,0.0006204746005806116
48.364,47.97,-3.2,0.48797440007419685,0.6653507983184491,0.38854688360673995,0.6740800895218518,0.09286876820486636,0.0005217841105446607
48.404,48.03,-3.0,0.49157391121943295,0.6661384713676093,0.39169474552930145,0.6747718283196948,0.09304272877177638,0.00043047336740097836
48.465,48.08,-3.05,0.4951865622044145,0.6669668631419439,0.39487467814152133,0.6754960148990057,0.09322810185446873,0.00034690462313803915
48.526,48.14,-3.12,0.49881173602201867,0.6678356837994246,0.3980871505750109,0.6762525535841448,0.09342529652517931,0.0002714392339485605
48.567,48.19,-3.06,0.502448820950334,0.6687446061406978,0.4013326208370194,0.6770413176200412,0.09363471613957597,0.00020443713950212109
48.628,48.25,-3.04,0.5060972109341035,0.6696932660045608,0.4046115344011044,0.6778621493982964,0.09385675776957499,0.00014625633978885072
48.73,48.3,-3.11,0.5097563059518959,0.6706812626879214,0.40792432281190466,0.6787148606962833,0.09409181163344678,9.725237088901196e-05
48.75,48.36,-3.16,0.5134255123683868,0.6717081593901328,0.41127140230642667,0.6795992329291382,0.09434026052400474,5.777778100126064e-05
48.791,48.41,-3.04,0.5171042432709773,0.6727734836817237,0.4146531724539607,0.680515017414763,0.09460247923568342,2.8181608043195024e-05
48.832,48.47,-3.15,0.5207919187898155,0.6738767279976132,0.418070014816425,0.6814619356521479,0.09487883399131698,8.808860106058271e-06
48.895,48.52,-3.24,0.5244879664001375,0.6750173501549411,0.42152229163066035,0.6824396796134579,0.09516968186941771,0.0
48.955,48.58,-3.03,0.5281918212057362,0.6761947738956399,0.425010344513997,0.6834479120503826,0.09547537023274567,2.0904350698563964e-06
49.039,48.63,-3.13,0.5319029262023385,0.677408389453841,0.4285344931943387,0.6844862668152203,0.09579623615894708,1.5410013399439534e-05
49.101,48.69,-3.18,0.535620732519698,0.6786575541481966,0.4320950342659613,0.6855543491971354,0.09613260587403155,4.028252749810948e-05
49.122,48.74,-3.08,0.5393446996412151,0.6799415929992466,0.4356922399721275,0.686651736274095,0.09648479418946805,7.702522654082443e-05
49.163,48.8,-3.06,0.5430742955999531,0.6812597993720463,0.43932635701551415,0.6877779772810948,0.09685310394370467,0.00012594833818819302
49.224,48.85,-3.1,0.5468089971500288,0.6826114356443082,0.4429976053974231,0.6889325939953268,0.09723782544894961,0.00018735460096771446
49.266,48.91,-3.13,0.5505482899124856,0.6839957339003206,0.4467061772867353,0.6901150811389545,0.09763923594407704,0.00026153880816716585
49.328,48.96,-3.0,0.5542916684948416,0.6854118966509364,0.4504522359195661,0.6913249068001649,0.09805759905456111,0.00034878736415838246
49.389,49.02,-3.12,0.5580386365836233,0.6868590975799244,0.454235914530604,0.6925615128731661,0.09849316426037623,0.00044937785403077084
49.451,49.07,-3.22,0.5617887070093339,0.6883364823169354,0.4580573153171363,0.693824315517752,0.09894616637283171,0.0005635786273723806
49.513,49.13,-3.02,0.5655414017834658,0.6898431692372502,0.4619165084367679,0.6951127056390282,0.0994168250213236,0.0006916483969767579
49.553,49.18,-3.14,0.5692962521073232,0.6913782502883719,0.46581353103982953,0.6964260493878706,0.09990534415098842,0.0008338358531968726
49.615,49.24,-3.24,0.5730527983525338,0.6929407918434398,0.46974838633741095,0.6977636886827471,0.10041191153222742,0.0009903792946133335
49.677,49.29,-3.13,0.5768105900131265,0.6945298355814072,0.4737210427058296,0.6991249417536616,0.10093669828305175,0.0011615062755958537
49.738,49.35,-3.13,0.580569185629033,0.6961443993938978,0.4777314328282426,0.700509103709056,0.10147985840519042,0.0013474332712046185
49.842,49.4,-3.16,0.5843281526809021,0.6977834783185514,0.4817794528740992,0.7019154471264266,0.10204152833488281,0.0015483653597405474
49.863,49.46,-3.18,0.5880870674561759,0.6994460454985182,0.48586496171713667,0.7033432226672501,0.10262182650926205,0.001764495923144807
49.883,49.51,-3.07,0.5918455148864697,0.7011310531676315,0.48998778019260775,0.704791659716662,0.10322085294923306,0.0019960063653542714
49.925,49.57,-3.18,0.5956030883564588,0.7028374336606564,0.49414769039444983,0.7062599670481895,0.10383868885976011,0.0022430658486333253
49.988,49.62,-3.26,0.5993593894846793,0.7045641004478947,0.4983444350131536,0.7077473335136896,0.10447539624849088,0.0025058310478321194
50.049,49.68,-3.06,0.6031140278768603,0.706309949193306,0.5025777167151684,0.7092529287584876,0.1051310175636517,0.0027844459224531663
50.091,49.73,-3.2,0.6068666208526013,0.7080738588352051,0.5068471975647898,0.7107759039615443,0.1058055753521424,0.003079041506346499
50.193,49.79,-3.3,0.6106167931463664,0.7098546926885103,0.5111524984895753,0.7123153926003174,0.10649907193874351,0.0033897357148042107
50.213,49.84,-3.22,0.6143641765838719,0.711651299567498,0.5154931987903933,0.7138705112398696,0.10721148912733237,0.003716633168775125
50.254,49.9,-3.27,0.6181084097350604,0.7134625149279775,0.5198688356973031,0.7154403603456414,0.10794278792498384,0.0040598250358641905
50.334,49.95,-3.33,0.6218491375450201,0.7152871620276939,0.5242789039725709,0.7170240251191045,0.10869290828978097,0.004419388887747464
50.396,50.01,-3.36,0.6255860109443488,0.7171240531036115,0.5287228555621766,0.7186205763553161,0.10946176890309456,0.004795388573633358
50.437,50.06,-3.27,0.6293186864405623,0.7189719905646014,0.5332000992971347,0.7202290713212285,0.11024926696701871,0.005187874109380907
50.52,50.12,-3.36,0.6330468256922537,0.7208297681979035,0.5377100006459157,0.7218485546534358,0.11105527802758407,0.005596881581855556
50.582,50.17,-3.4,0.6367700950677954,0.7226961723875825,0.5422518815191475,0.7234780592738712,0.11187965582430268,0.006022433068061709
50.603,50.23,-3.2,0.640488165190421,0.7245699833430641,0.5468250201276291,0.7251166073218294,0.11272223216654428,0.006464536568554314
50.663,50.28,-3.33,0.6442007104715821,0.7264499763357121,0.5514286508945487,0.7267632111005538,0.11358281683720461,0.006923185954600696
50.704,50.34,-3.41,0.6479074086345588,0.7283349229413214,0.5560619644227267,0.7284168740365147,0.11446119752410025,0.007398360928557743
50.746,50.39,-3.28,0.6516079402304109,0.7302235922863528,0.5607241075177122,0.7300765916494291,0.11535713977951362,0.007890026996931483
50.808,50.45,-3.32,0.6553019881485402,0.7321147522957202,0.5654141832676883,0.7317413525309829,0.11627038700829753,0.008398135455600801
50.869,50.5,-3.39,0.658989237124323,0.7340071709399226,0.570131251181299,0.7334101393301495,0.11720066048491656,0.008922623386738222
50.93,50.56,-3.39,0.6626693732463773,0.7358996174793705,0.5748743273845813,0.7350819297430172,0.11814765939975654,0.00946341366703947
