Time_Host,Time_Arduino,easingdata,CH1_Oxy,CH1_Deoxy,CH2_Oxy,CH2_Deoxy,CH3_Oxy,CH3_Deoxy
0.039,24.63,5.26,1.0,1.0,1.0,1.0,0.8490284865131674,1.0
0.113,0.04,0.0,0.981985926884417,0.9818583223864514,0.9820573204483637,0.9817092812238576,0.8337432292053564,0.981694942910273
0.134,0.1,0.0,0.963974775254693,0.9637251005164651,0.9641190617902606,0.9634278755942789,0.8184477552639793,0.9634014169195905
0.178,0.15,0.0,0.9459739472643196,0.9456077405804204,0.946192516362365,0.9451633087508198,0.8031485317681561,0.9451269064159491
0.239,0.21,0.0,0.9279908352568228,0.9275136335917714,0.9282849644730387,0.9269230911892893,0.7878520338528381,0.926878878077708
0.3,0.26,0.0,0.9100328144921106,0.9094501481535237,0.9104036673145265,0.908714710870555,0.7725647383392287,0.9086647735707631
0.348,0.32,0.0,0.8921072359173337,0.8914246232735432,0.8925558599232323,0.8905456258775961,0.7572931173813329,0.8904920022979319
0.407,0.37,0.0,0.8742214189974062,0.8734443612432069,0.8747487442024282,0.8724232571357927,0.7420436321427225,0.8723679342150602
0.49,0.43,0.0,0.8563826446195324,0.8555166205931347,0.8569894820210032,0.8543549812106297,0.7268227265168347,0.8542998927275972
0.512,0.48,0.0,0.8385981480852968,0.837648609138991,0.8392851884011197,0.8363481231962098,0.7116368209033598,0.8362951476806395
0.574,0.54,0.0,0.8208751122031026,0.8198474771296036,0.821642924806936,0.8184099497071865,0.6964923060525267,0.8183609084547141
0.616,0.59,0.04,0.8032206604929938,0.802120310508932,0.8040696925458499,0.8005476619859747,0.6813955369883621,0.8005043171788522
0.678,0.65,0.11,0.7856418505151352,0.7844741243027155,0.7865724262930109,0.7827683891363636,0.6663528270212807,0.7827324420718116
0.74,0.7,0.02,0.7681456673324684,0.7669158561399713,0.769157987749124,0.7650791814939831,0.6513704418596812,0.765052270921626
0.781,0.76,0.04,0.7507390171172615,0.7494523599188673,0.7518331594407801,0.7474870041434443,0.6364545938295583,0.7474707047129835
0.844,0.81,0.19,0.7334287209104992,0.7320903996258784,0.7346046386717638,0.7299987305913891,0.6216114362105232,0.7299945514112921
0.905,0.87,0.2,0.7162215085423161,0.7148366433165156,0.7174790316330479,0.7126211366040749,0.6068470576959919,0.7126305199116395
0.946,0.92,0.1,0.6991240127210075,0.697697657265294,0.7004628476785129,0.6953608942174837,0.5921674769847125,0.6953852141602423
1.009,0.98,0.2,0.6821427632974942,0.6806799002920002,0.6835624937728225,0.6782245659272998,0.5775786375102263,0.6782651274553665
1.071,1.03,0.25,0.6652841817115296,0.6637897182707162,0.6667842691173349,0.6612185990654584,0.5630864023143362,0.661276636934121
1.132,1.09,0.12,0.6485545756253822,0.6470333388274743,0.6501343599594341,0.6443493203693483,0.5486965490701168,0.6444259982509556
1.235,1.14,0.23,0.6319601337501896,0.6304168662318614,0.633618834590206,0.6276229307491558,0.5344147652594698,0.6277193404531557
1.256,1.2,0.3,0.6155069208696462,0.613946276487352,0.6172436385349376,0.6110455002582788,0.5202466435096994,0.6111626610581037
1.278,1.25,0.23,0.5992008730651586,0.597627412624639,0.6010145899404694,0.5946229632712111,0.5061976770930605,0.5947618213365666
1.34,1.31,0.27,0.5830477931460537,0.5814659802017427,0.5849373751629316,0.5783611138728093,0.492273255592747,0.5785225418057777
1.382,1.36,0.45,0.567053346287886,0.5654675430142074,0.569017544558855,0.5622656014624031,0.47847866073831236,0.5624503979355896
1.444,1.42,0.43,0.5512230558813676,0.5496375190182305,0.5532605084821036,0.5463419265757532,0.46481906241308846,0.546550816070508
1.506,1.47,0.36,0.5355622995939638,0.5339811764691051,0.5376715334885872,0.5305954369273879,0.4512995148357633,0.5308290695699357
1.588,1.53,0.46,0.5200763056457509,0.5185036302769076,0.5222557387502673,0.5150313236753606,0.4379249529179141,0.5152902751685142
1.609,1.58,0.5,0.5047701493007463,0.5032098385809162,0.5070180926795984,0.4996546179099956,0.42470018879895727,0.49993938955800654
1.67,1.64,0.4,0.4896487495745644,0.4881045995438177,0.49196340976520725,0.48447018736771635,0.411629908559627,0.484781206191758
1.732,1.69,0.52,0.4747168661589098,0.4731925483663526,0.47709634761928227,0.4694827333706274,0.39871866911473974,0.46982035231238184
1.775,1.75,0.58,0.45997909656308056,0.45847815452267743,0.46242140423682293,0.45469678799212593,0.3859708952856515,0.4550612862029473
1.835,1.8,0.48,0.4454398734723102,0.4439657192163579,0.44794291546657145,0.44011671144845976,0.3733908770524763,0.44050829466159386
1.898,1.86,0.5,0.4311034623224368,0.42965937305657603,0.43366505269312394,0.42574668971582336,0.3609827669858163,0.426165490699152
1.96,1.91,0.63,0.4169739590900574,0.41556307395380554,0.4195918207293907,0.41159073237228155,0.34875057785745167,0.4120368114590198
2.002,1.97,0.59,0.40305528829701603,0.40168060523389615,0.40572705591826497,0.39765267066349513,0.3366981804291437,0.3981260163582242
2.062,2.02,0.6,0.3893512012277969,0.38801557396918573,0.39207442444205615,0.3839361557909055,0.3248293014184145,0.38443668544828147
2.146,2.08,0.7,0.37586527435812417,0.37457140952494944,0.37863742083792185,0.3704446574207055,0.31314752163990445,0.3709722179941719
2.187,2.13,0.75,0.36260090799283745,0.3613513623191915,0.3654193667172343,0.3571814624116109,0.30165627432067627,0.3577358312694465
2.209,2.19,0.63,0.3495613251108825,0.34835850279349434,0.35242340968654606,0.34414967375914207,0.2903588435876327,0.34473055956521037
2.311,2.24,0.75,0.3367495704150331,0.33559572059238096,0.3396525224675863,0.33135220975384483,0.2792583631250285,0.33195925341046534
2.351,2.3,0.83,0.3241685095837233,0.32306572394840866,0.32710950221350654,0.31879180335063156,0.2683578149998797,0.31942457900105664
2.371,2.35,0.76,0.3118208287221407,0.3107710392699991,0.3147969700184107,0.30647100174620245,0.25766002865290133,0.30712901783424407
2.433,2.41,0.77,0.2997090340095073,0.2987140109288151,0.3027173706170119,0.294392166161321,0.24716768005243578,0.2950748665457113
2.495,2.46,0.88,0.28783545153925955,0.2868968012433152,0.2908729722710735,0.2825574718245479,0.23688329100868716,0.2832642369456254
2.537,2.52,0.9,0.27620222734865124,0.27532139065493694,0.2792658668391438,0.27096890815385183,0.2268092286454478,0.27169905625015905
2.599,2.57,0.88,0.264811327634137,0.2639895780931816,0.2678979700259629,0.25962827913231606,0.21694770502637523,0.26038106750470136
2.682,2.63,0.99,0.25366453914873643,0.252902981525691,0.2567710218077797,0.24853720387394992,0.20730077693277343,0.2493118301947973
2.702,2.68,1.0,0.2427634697774411,0.24206303868923387,0.24588658702967833,0.23769711737542185,0.19787034578975446,0.2384927210406849
2.765,2.74,0.91,0.23210954928659383,0.23147100799734932,0.23524605617086528,0.22710927144934637,0.18865815773760244,0.22792493497114272
2.826,2.79,1.02,0.22170403024302954,0.22112796962025685,0.2248506462737113,0.21677473583461127,0.17966580384511097,0.21760948627222168
2.867,2.85,1.07,0.2115479890986336,0.21103482673251905,0.2147014020322002,0.20669439947910712,0.17089472046161358,0.20754720990631031
2.928,2.9,0.96,0.20164232743585703,0.201192306923842,0.20479919703531707,0.1968689719901235,0.16234618970437134,0.1977387629968733
2.989,2.96,0.98,0.191987773369623,0.1916009637683087,0.1951447351608084,0.18729898524760616,0.1540213400779265,0.18818462647410109
3.051,3.01,1.08,0.18258488310096666,0.1822611785472624,0.18573855211466214,0.17798479517541121,0.14592114722199181,0.17888510687661732
3.132,3.07,0.98,0.17343404261768533,0.1731731621209781,0.17658101711161026,0.16892658366562238,0.13804643478439443,0.16984033830430295
3.153,3.12,0.94,0.1645354695372293,0.16433695694417882,0.1676723346919162,0.16012436065090724,0.13039787541553907,0.1610502845172187
3.194,3.18,1.05,0.15588921508703085,0.1557524392203714,0.15901254666966186,0.15157796631978715,0.12297599188079648,0.1525147411755335
3.257,3.23,1.06,0.14749516621744269,0.14741932118989434,0.15060153420769426,0.14328707346959724,0.11578115828717367,0.14423333821529877
3.32,3.29,0.96,0.13935304784242394,0.139337153546502,0.14243902001435235,0.13525118999181981,0.1088136014205727,0.1362055423548514
3.382,3.34,1.08,0.13146242520306758,0.13150532797725822,0.1345245706570742,0.1274696614843988,0.1020734021899152,0.12843065972658313
3.423,3.4,1.14,0.1238227063490212,0.12392307982048147,0.12685759898800647,0.11994167398558228,0.09556049717440679,0.12090783862877655
3.504,3.45,1.0,0.1164331447328286,0.11658949083646909,0.11943736667679618,0.11266625682379625,0.0892746802702305,0.11363607239218573
3.526,3.51,1.05,0.10929284191219843,0.10950349208572842,0.11226298684581464,0.10564228557803078,0.08321560443298473,0.10661420235602355
3.586,3.56,1.13,0.10240075035519086,0.1026638669094548,0.10533342680313344,0.0988684851432163,0.0773827835122142,0.09984092094801303
3.669,3.62,1.03,0.09575567634330376,0.09606925400701405,0.09864751086863977,0.0923434328950743,0.0717755941744112,0.09331477486315881
3.711,3.67,1.01,0.08935628296741388,0.08971815060521138,0.09220392328871317,0.08606556194894742,0.066393277910877,0.08703416833590072
3.813,3.73,1.12,0.08320109321149252,0.08360891571415593,0.08600121123489307,0.08003316450713965,0.06123494312685165,0.0809973665003172
3.833,3.78,1.1,0.07728849311898837,0.07773977346455162,0.08003778788198349,0.07424439528930998,0.05629956730834257,0.07520249883305395
3.875,3.84,1.01,0.07161673503677136,0.0721088165212587,0.07431193556108663,0.06869727504045728,0.051585999263108466,0.06964756267366429
3.936,3.89,1.11,0.0661839409315535,0.06671400956798385,0.06882180898312364,0.06338969411102223,0.0470929614322933,0.06433042681706323
3.978,3.95,1.14,0.06098810577375205,0.061553192857975766,0.06356543852849528,0.058319416103621916,0.042819052269259916,0.059248835172820195
4.038,4.0,1.03,0.05602710098382773,0.05662408582563315,0.058540733598651744,0.05348408158093133,0.038762748682230556,0.054400410486047525
4.099,4.06,1.13,0.051298677936202054,0.051924290753974874,0.05374548602544978,0.048881211829250634,0.03492240853740437,0.049782658114686
4.161,4.11,1.17,0.04680047151592787,0.047451296492980445,0.04917737353424486,0.04450821267236309,0.03129627321929667,0.0453929698580392
4.203,4.17,1.05,0.04253000372334538,0.04320248222388126,0.04483396325665773,0.040362378330412486,0.027882470245126967,0.04122862783146622
4.263,4.22,1.05,0.03848468732197872,0.039175121264572975,0.04071271528884497,0.036440895318717095,0.024679015930166272,0.03728680838220313
4.324,4.28,1.15,0.034661829524930805,0.035366384911416436,0.03681098629094673,0.03274084638165185,0.021683818101036933,0.03356458604134576
4.408,4.33,1.0,0.031058635715056272,0.031773346312780684,0.03312603312328207,0.029259214456903004,0.018894678854029463,0.030058937507087474
4.429,4.39,0.91,0.027672213194255058,0.028392984369747614,0.02965501651485272,0.025992886665499256,0.016309297355553108,0.02676674565436876
4.471,4.44,0.99,0.024499574957331814,0.0252221876594508,0.02639500475976822,0.02293865832307528,0.013925272681875975,0.023684803566163783
4.534,4.5,1.03,0.02153764348600426,0.02225775837656836,0.02334297743729683,0.020093236967859418,0.01174010669533194,0.020809818581706024
4.576,4.55,0.91,0.01878325455879489,0.019496416288543598,0.020495829151351272,0.017453246400924525,0.009751206954172127,0.018138416357045956
4.64,4.61,1.0,0.016233161072673225,0.016934802700178195,0.01785037328531476,0.015015230734316124,0.007955889653249826,0.015667144933432534
4.702,4.66,1.08,0.013884036872427053,0.014569484423332965,0.015403345768207951,0.01277565844277365,0.0063513825927752005,0.01339247880911078
4.786,4.72,0.98,0.011732480583838018,0.012396957747574261,0.01315140884829352,0.01073092641487699,0.004934828172453349,0.01131082301022837
4.808,4.77,0.99,0.009775019446816328,0.010413652407719073,0.011091154870297605,0.008877363999581897,0.0037032864084143424,0.009418517156644563
4.891,4.83,1.07,0.008008113144724015,0.008615935544350832,0.009219110052502475,0.007211237044245279,0.002653737970455939,0.007711839518533051
4.912,4.88,0.96,0.006428157626208289,0.007000115653488899,0.007531738260055523,0.00572875192036279,0.0017830872372329883,0.006187011059766067
4.992,4.94,0.87,0.00503148891597485,0.005562446521690829,0.0060254447709349205,0.00442605953333541,0.0010881653671243128,0.0048401994641623595
5.054,4.99,0.94,0.0038143869110429346,0.004299131142954372,0.004696580031093245,0.0032992593126611714,0.0005657333825836377,0.0036675231407787127
5.074,5.05,0.94,0.002773079159137294,0.003206325613867246,0.003541443395364917,0.0023444031790221527,0.00021248526583110655,0.0026650552045251828
5.135,5.1,0.83,0.0019037446159762595,0.0022801430035381816,0.0025562868507791265,0.00155749948481543,2.5051063765762843e-05,0.0018288274284916815
5.178,5.16,0.91,0.0012025173782998692,0.0015166571949387316,0.0017373187189735763,0.0009345169247710622,0.0,0.0011548341644878318
5.261,5.21,0.96,0.0006654903895640463,0.0009119066943923724,0.0010807073344826705,0.00047138841340764584,0.00013384359195615366,0.0006390362284152145
5.324,5.27,0.85,0.00028871911531731445,0.00046189840606278407,0.0005825846957803056,0.00016401492619552601,0.00042303877102036326,0.00027736474721106277
5.344,5.32,0.85,6.82251853736523e-05,0.00016261136841466643,0.0002390500860679865,8.26930143482998e-06,0.0008639910038153277,6.572496422368917e-05
5.407,5.38,0.93,0.0,1.0000449745035461e-05,4.61736609154098e-05,0.0,0.001453057412730701,0.0
5.468,5.43,0.82,8.000829745505613e-05,0.0,0.0,0.0001350348202274963,0.002186549893922548,7.605456558239788e-05
5.51,5.49,0.74,0.00030419168033702406,0.00012852745620121415,9.655162033917021e-05,0.0004091845653176034,0.0030607382310498983,0.00028973862552839123
5.573,5.54,0.82,0.0006684720983109796,0.00039148689890970755,0.0003318324485395966,0.0008182466606970847,0.0040718532030598,0.0006368910079803679
5.614,5.6,0.8,0.0011687552848943003,0.0007847725572527246,0.0007018312496964252,0.0013580087188576513,0.005216089684359742,0.0011133429592280323
5.678,5.65,0.67,0.0018009341460723015,0.0013042722601379086,0.0012025250106609076,0.0020242520492572053,0.006489609735724268,0.0017149216403210665
5.741,5.71,0.76,0.002560892098589697,0.0019458708313859331,0.0018298822754633675,0.0028127551109589487,0.007888545684287958,0.0024374535634074557
5.805,5.76,0.79,0.0034445063558397773,0.0027054534266226773,0.0025798664307514494,0.003719296905784653,0.0094090031909922,0.003276767965589827
5.867,5.82,0.64,0.004447651159383458,0.003578908809876025,0.0034484389391916995,0.004739660309871201,0.011047064303872433,0.0042287001182111
5.909,5.87,0.68,0.0055662009542845,0.004562132567911699,0.004431562518872665,0.0058696353416470455,0.012798790495593161,0.005289094569600821
5.992,5.93,0.76,0.006796033506630692,0.0056510302604230265,0.0055252042668461,0.007105022364378782,0.014660225683664495,0.006453808319434266
6.013,5.98,0.66,0.008133032961789407,0.0068415205042724496,0.006725338725053785,0.008441635221566341,0.01662739923179551,0.007718713922975537
6.056,6.04,0.63,0.009573092842082003,0.008129537990080067,0.008027950886981404,0.00987530430358859,0.018696328930853743,0.00907970252359299
6.139,6.09,0.75,0.01111211898265778,0.009511036429560324,0.00942903914344079,0.01140187954412258,0.020863023957919655,0.01053268681204651
6.18,6.15,0.71,0.012746032404436962,0.010981991432109185,0.010924618165930605,0.013017233344965544,0.02312348781195016,0.01207360391115133
6.222,6.2,0.6,0.014470772123083852,0.012538403309234836,0.012510721726077534,0.014717263427980094,0.02547372122458954,0.01369841818452503
6.369,6.26,0.69,0.01628229789306431,0.014176299805510165,0.014183405449712982,0.016497895612975867,0.027909725044695667,0.015403123968223199
6.389,6.31,0.71,0.018176592885942616,0.015891738754808784,0.015938749504197703,0.018355086520444187,0.03042750309518273,0.017183748224166392
6.41,6.37,0.56,0.020149666302180052,0.017680810660670756,0.017772861217677755,0.0202848261981711,0.0330230650008019,0.019036353114358487
6.452,6.42,0.62,0.022197555915794143,0.01953964119973683,0.019681877629038193,0.02228314067086048,0.035692428985488474,0.020957038494996062
6.513,6.48,0.71,0.024316330551314255,0.02146439364729196,0.021661967967422657,0.024346094411998635,0.038431624637906565,0.022941944329668118
6.553,6.53,0.62,0.02650209249252218,0.023451271224071677,0.023709336060293563,0.0264697927372919,0.04123669564381667,0.02498725302094565
6.616,6.59,0.64,0.028750979822487355,0.02549651936360545,0.025820222669078133,0.028650384119124697,0.044103702483884975,0.02708919165976112
6.677,6.64,0.74,0.031059168694412068,0.02759642789949174,0.02799090775147667,0.030884062421610393,0.047028725095564605,0.02924403419207215
6.739,6.7,0.66,0.03342287553282169,0.029747333172106386,0.030217712649544946,0.03316706905591129,0.050007865497708456,0.031448103502390475
6.78,6.75,0.54,0.035838359164677154,0.03194562005433604,0.03249700220272258,0.03549569505557358,0.053037250376604846,0.03369777341383806
6.842,6.81,0.61,0.03830192288004527,0.03418772389600662,0.034825186785063536,0.037866283071671884,0.05611303363215085,0.03598947060446996
6.903,6.86,0.64,0.040809916422040717,0.03647013238674675,0.037198724266030714,0.040275229287597976,0.05923139888287764,0.03831967643968189
6.965,6.92,0.52,0.04335873790583973,0.038789387337094465,0.039614121894332964,0.04271898525337055,0.062388561928504206,0.04068492872060563
7.005,6.97,0.65,0.04594483566663354,0.04114208637773189,0.04206793810438864,0.04519405963939702,0.06558077316863985,0.04308182334848314
7.086,7.03,0.74,0.04856471003643879,0.043524884576818475,0.044556784245101864,0.04769701990968511,0.06880431997621286,0.04550701590509732
7.108,7.08,0.65,0.05121491504972056,0.04593449597548441,0.047077326230736974,0.050224493914579504,0.07205552902418615,0.04795722314942051
7.172,7.14,0.69,0.05389206007781258,0.04836769504163961,0.049626286113764635,0.052773171403192216,0.07533076856413218,0.0504292244307211
7.212,7.19,0.82,0.056592811392145524,0.050821318042348386,0.05220044357963792,0.05533980545579331,0.07862645065528417,0.05291986301844255
7.274,7.25,0.77,0.059313893656332155,0.05329226433510505,0.054796637363555493,0.057921213836507265,0.08193903334273045,0.05542604734923927
7.336,7.3,0.69,0.06205209134719891,0.05577749757842032,0.05741176658936587,0.060514280266712205,0.08526502278346816,0.05794475219162025
7.399,7.36,0.8,0.0648042501048958,0.05827404686219208,0.06004279203084505,0.0631159556195747,0.08860097531907676,0.06047301972871424
7.461,7.41,0.82,0.06756727801226667,0.06077900775838802,0.06268673729564897,0.06572325903617815,0.09194349949380627,0.0630079605597322
7.503,7.47,0.67,0.0703381468037099,0.0632895432926177,0.06534068993230699,0.06833327896372786,0.09528925801688491,0.06554675462076645
7.545,7.52,0.79,0.07311389300378822,0.06580288483722692,0.06800180246067167,0.07094317411635465,0.09863496966784017,0.06808665202563474
7.608,7.58,0.86,0.0758916189958653,0.06831633292661082,0.07066729332628578,0.07355017435909002,0.1019774111436127,0.07062497382754648
7.709,7.63,0.78,0.07866849402106334,0.07082725799550901,0.07333444777917533,0.07615158151564774,0.10531341884622056,0.0731591127024381
7.73,7.69,0.86,0.08144175510785218,0.07333310104111818,0.07600061867762538,0.0787447701007194,0.10863989060971443,0.07568653355489294
7.832,7.74,1.02,0.08420870793260246,0.075831374209929,0.07866322721756026,0.08132718797756394,0.11195378736516949,0.07820477404762588
7.854,7.8,0.97,0.08696672761147721,0.0783196613102556,0.08131976358824937,0.08389635694171856,0.11525213474249134,0.08071144505557173
7.893,7.85,0.98,0.0897132594240911,0.08079561825147594,0.08396778755517142,0.0864498732316776,0.11853202460786934,0.08320423104567003
7.955,7.91,1.14,0.09244581946942666,0.083256973411041,0.08660492897096596,0.08898540796738862,0.12179061653579118,0.08568089038348597
8.019,7.96,1.17,0.09516199525456641,0.08570152793033928,0.08922888821547462,0.09150070751741315,0.12502513921462902,0.08813925556784767
8.06,8.02,1.05,0.09785944621686733,0.08812715594052944,0.09183743656593087,0.09399359379560301,0.12823289178489627,0.09057723339471954
8.143,8.07,1.17,0.10053590418025588,0.09053180471948813,0.09442841649839437,0.09646196448816217,0.13141124510936483,0.09299280505157283
8.204,8.13,1.25,0.10318917374636201,0.092913494781059,0.09699974192156942,0.09890379321199978,0.13455764297431316,0.09538402614355429
8.225,8.18,1.13,0.1058171326212471,0.09527031989783678,0.09954939834419202,0.10131712960532825,0.13766960322123523,0.09774902665279964
8.266,8.24,1.23,0.10841773187851389,0.09760044705876521,0.10207544297720615,0.10370009935152368,0.14074471880837763,0.10008601083228229
8.329,8.29,1.38,0.11098899615962078,0.09990211636287447,0.10457600477197725,0.10605090413733838,0.1437806588015085,0.10239325703563275
8.371,8.35,1.32,0.11352902381225789,0.10217364085052617,0.10704928439582467,0.10836782154662138,0.14677516929336723,0.1046691174844029
8.432,8.4,1.37,0.1160359869676596,0.10441340627357923,0.1094935541461629,0.11064920489077204,0.14972607425130185,0.10691201797428573
8.493,8.46,1.56,0.11850813155773157,0.10661987080593532,0.11190715780451767,0.1128934829772183,0.15263127629268491,0.10912045752182892
8.555,8.51,1.58,0.12094377727288834,0.10879156469595687,0.1142885104316638,0.11509915981725785,0.15548875738780918,0.11129300795320148
8.597,8.57,1.52,0.12334131746153314,0.11092708986226985,0.11663609810514607,0.11726481427461519,0.15829657949009035,0.11342831343658905
8.659,8.62,1.63,0.12569921897215966,0.11302511943447578,0.11894847760049375,0.1193890996560597,0.16105288509354626,0.11552508995980448
8.699,8.68,1.67,0.12801602193911396,0.11508439724030321,0.12122427601752253,0.1214707432454153,0.16375589771767,0.11758212475471422
8.781,8.73,1.51,0.1302903395131208,0.11710373724073662,0.12346219035320485,0.12350854578228859,0.16640392231993636,0.11959827567009612
8.842,8.79,1.65,0.13252085753771892,0.11908202291467719,0.12566098702264583,0.1255013808868726,0.1689953456362674,0.12157247049456794
8.924,8.84,1.77,0.13470633417276265,0.12101820659471828,0.12781950132972417,0.12744819443224334,0.17152863644983993,0.12350370623124761
8.944,8.9,1.72,0.13684559946612665,0.1229113087556548,0.12993663688895843,0.1293480038656371,0.17400234578865986,0.12539104832582929
9.005,8.95,1.77,0.13893755487470688,0.12476041725738729,0.1320113650001277,0.13119989748027416,0.1764151070523775,0.12723362984977593
9.047,9.01,1.93,0.1409811727357547,0.12656468654392125,0.13404272397711106,0.133003033639368,0.17876563606890486,0.12903065064033784
9.089,9.06,1.87,0.14297549568955248,0.1283233368001859,0.1360298184323568,0.13475663995400808,0.18105273108151382,0.1307813763991068
9.154,9.12,1.74,0.14491963605444522,0.13003565306840179,0.13797181851837106,0.13646001241661576,0.18327527266722196,0.13248513775081
9.194,9.17,1.85,0.14681277515527535,0.13170098432571742,0.1398679591276264,0.13811251449165463,0.1854322235873937,0.13414132926404254
9.299,9.23,1.87,0.14865416260633615,0.13331874252481707,0.1417175390523401,0.13971357616524657,0.18752262857157523,0.13574940843563396
9.32,9.28,1.73,0.1504431155500382,0.1348884015991794,0.1435199201056312,0.14126269295531965,0.18954561403561718,0.13730889464035145
9.361,9.34,1.83,0.15217901785254573,0.13640949643465275,0.14527452620560966,0.14275942488391638,0.1915003877351388,0.1388193680476552
9.422,9.39,1.91,0.15386131925768182,0.13788162180901004,0.14698084242397416,0.14420339541331803,0.19338623835538382,0.14028046850723316
9.485,9.45,1.84,0.15548953450043135,0.13930443130115208,0.1486384140006962,0.14559429034768323,0.19520253503852047,0.1416918944050504
9.524,9.5,1.87,0.1570632423813991,0.14067763617163906,0.15024684532634203,0.14693185670194553,0.19694872684945405,0.14305340149164755
9.585,9.56,2.01,0.1585820848036126,0.14200100421623882,0.15180579889355098,0.14821590153975692,0.19862434218125963,0.14436480168441618
9.665,9.61,1.93,0.16004576577310184,0.1432743585941791,0.15331499421918554,0.14944629078227106,0.20022898810140222,0.14562596184556156
9.686,9.67,1.9,0.16145405036473423,0.14449757663277335,0.15477420673868952,0.15062294798953255,0.20176234963998355,0.14683680253744608
9.748,9.72,2.0,0.16280676365483454,0.14567058861005902,0.15618326667420324,0.15174585311619057,0.20322418902132652,0.14799729675698445
9.828,9.78,2.03,0.16410378962217126,0.14679337651704927,0.15754205787799486,0.15281504124320322,0.20461434484027916,0.14910746865074218
9.85,9.83,1.89,0.16534507001892848,0.1478659728011635,0.15885051665276637,0.1538306012871541,0.20593273118466587,0.1501673922123726
9.91,9.89,2.0,0.1665306032132803,0.14888845909238127,0.16010863055037494,0.15479267468877875,0.20717933670535427,0.15117718996401544
9.992,9.94,2.05,0.16766044300515978,0.14986096491365491,0.16131643715049573,0.15570145408229505,0.2083542236354418,0.15213703162326506
10.053,10.0,1.93,0.16873469741677957,0.15078366637711815,0.16247402282075266,0.1565571819471357,0.20945752676009674,0.15304713275730505
10.094,10.05,1.97,0.1697535274594221,0.15165678486763087,0.1635815214598586,0.15736014924369088,0.21048945233860905,0.15390775342578858
10.177,10.11,2.09,0.17071714587798206,0.15248058571520326,0.16463911322534086,0.15811069403467184,0.21145027698023253,0.1547191968140218
10.198,10.16,1.99,0.17162581587473255,0.1532553768578285,0.1656470232474809,0.15880920009368663,0.2123403464754241,0.15548180785798482
10.238,10.22,1.97,0.17247984981379383,0.15398150749622522,0.166605520331135,0.15945609550257744,0.21316007458410816,0.15619597186269363
10.299,10.27,2.1,0.1732796079078048,0.15465936674194597,0.16751491564710239,0.16005185123901353,0.21390994178262518,0.15686211311537657
10.402,10.33,2.09,0.17402549688832203,0.1552893822602593,0.16837556141468843,0.1605969797557732,0.21459049397105928,0.15748069349490154
10.422,10.38,1.96,0.1747179686614893,0.15587201890916194,0.1691878495770824,0.16109203355308796,0.21520234114267275,0.15805221107885714
10.485,10.44,2.06,0.1753575189505173,0.15640777737583764,0.16995221047113562,0.16153760374537793,0.21574615601721006,0.1585771987496561
10.525,10.49,2.11,0.17594468592650306,0.15689719281185005,0.17066911149309696,0.161934318623685,0.21622267263987255,0.1590562228009979
10.586,10.55,1.9,0.17648004882910115,0.15734083346833427,0.17133905576183897,0.16228284221510347,0.21663268494778623,0.15948988154599886
10.649,10.6,1.94,0.1769642265785181,0.15773929933244354,0.17196258078106097,0.1625838728405259,0.2169770453057875,0.15987880392827233
10.709,10.66,2.0,0.17739787638024193,0.15809322076630147,0.17254025710190324,0.16283814167204153,0.21725666301334243,0.1602236481372154
10.771,10.71,1.88,0.177781692323858,0.15840325714970285,0.17307268698736533,0.1630464112913291,0.21747250278437913,0.1605251002287298
10.812,10.77,1.88,0.17811640397723694,0.15867009552779168,0.17356050307988122,0.16320947425037158,0.21762558320175268,0.16078387275257375
10.873,10.82,2.02,0.17840277497731663,0.15889444926492413,0.174004367073346,0.16332815163579617,0.2177169751480034,0.16100070338750921
10.914,10.88,2.02,0.17864160161866108,0.1590770567058899,0.17440496839083106,0.16340329163810105,0.21774780021402496,0.16117635358536786
10.977,10.93,1.9,0.17883371144096216,0.15921867984561955,0.17476302286917927,0.16343576812697047,0.21771922908724067,0.16131160722512275
11.039,10.99,1.97,0.178979961816644,0.15932010300845653,0.1750792714516369,0.1634264792338112,0.2176324799209023,0.16140726927801013
11.081,11.04,1.97,0.17908123853974237,0.15938213153802275,0.17535447888967093,0.16337634594257472,0.2174888166861634,0.1614641644847067
11.143,11.1,1.78,0.17913845441725712,0.15940559049865693,0.1755894324551284,0.1632863106898649,0.21728954750860052,0.161483136045533
11.205,11.15,1.85,0.17915254786419005,0.15939132338936532,0.17578494066389724,0.1631573359752891,0.2170360229908385,0.16146504432462447
11.288,11.21,1.88,0.1791244815034796,0.15934019087119342,0.17594183201220875,0.16299040298299317,0.21672963452288557,0.16141076556899023
11.309,11.26,1.77,0.17905524077201607,0.15925306950890739,0.17606095372667382,0.16278651021531826,0.21637181258170854,0.1613211906433547
11.372,11.32,1.79,0.17894583253386,0.15913085052785822,0.17614317052904957,0.16254667213952945,0.21596402502149342,0.16119722378165383
11.393,11.37,1.93,0.17879728370169612,0.15897443858689386,0.1761893634165936,0.16227191784858022,0.215507775355965,0.1610397813560259
11.454,11.43,1.86,0.17861063986747178,0.15878475056815905,0.17620042845873815,0.16196328973686822,0.2150046010340872,0.1608497906640954
11.517,11.48,1.79,0.17838696394311437,0.15856271438458688,0.17617727561072044,0.16162184219189155,0.2144560717104382,0.16062818873530335
11.577,11.54,1.88,0.17812733481219725,0.15830926780583027,0.17612082754475336,0.1612486403026505,0.2138637875115575,0.16037592115698612
11.617,11.59,1.88,0.1778328459934464,0.15802535730332323,0.17603201849930847,0.16084475858555922,0.21322937729957833,0.16009394092085852
11.698,11.65,1.72,0.17750460431702045,0.15771193691509705,0.1759117931470994,0.1604112797285579,0.21255449693446202,0.15978320729051546
11.719,11.7,1.81,0.1771437286145284,0.15736996713092904,0.1757611054823744,0.1599492933540607,0.2118408275361325,0.159444684690535
11.781,11.76,1.86,0.17675134842375287,0.15700041379836324,0.1755809177281369,0.15945989480134679,0.21109007374778258,0.1590793416177395
11.884,11.81,1.77,0.17632860270902675,0.15660424705012024,0.17537219926390787,0.1589441839289894,0.21030396200157714,0.15868814957514765
11.903,11.87,1.75,0.17587663859817268,0.15618244025339267,0.17513592557460375,0.15840326393792306,0.20948423878793526,0.15827208202912535
11.945,11.92,1.83,0.17539661013687172,0.1557359689815041,0.17487307722103337,0.1578382402157548,0.20863266892953644,0.15783211339021297
12.008,11.98,1.75,0.17488967706129935,0.1552658100083762,0.17458463883246542,0.15725021920290813,0.20775103386117538,0.157369218018065
12.089,12.03,1.67,0.17435700358984438,0.1547729403262052,0.17427159812166676,0.15664030728114292,0.20684112991655665,0.1568843692508949
12.11,12.09,1.78,0.1737997572346971,0.15425833618669624,0.17393494492276246,0.15600960968493433,0.20590476662308344,0.15637853845977048
12.172,12.14,1.78,0.17321910763406342,0.1537229721661505,0.17357567025221263,0.1553592294361284,0.20494376500565234,0.15585269412806368
12.234,12.2,1.66,0.17261622540572774,0.15316782025464828,0.17319476539314602,0.15469026630223445,0.20395995590041904,0.1553078009563222
12.335,12.25,1.74,0.17199228102263886,0.15259384896953537,0.17279322100323025,0.15400381577868255,0.20295517827946094,0.15474481899280232
12.355,12.31,1.81,0.17134844371114188,0.15200202249339617,0.17237202624620707,0.15330096809536758,0.20193127758724091,0.15416470278987535
12.396,12.36,1.68,0.17068588037243493,0.15139329983668137,0.1719321679471886,0.15258280724780582,0.20089010408975452,0.1535684005864971
12.456,12.42,1.71,0.1700057545277856,0.15076863402514387,0.17147462977177022,0.15185041005324412,0.19983351123722443,0.15295685351690436
12.517,12.47,1.8,0.1693092252880053,0.15012897131222536,0.1710003914289796,0.15110484523206977,0.19876335404119685,0.15233099484567678
12.641,12.53,1.68,0.16859744634764287,0.14947525041651832,0.17051042789806795,0.15034717251484928,0.19768148746688327,0.15169174922927106
12.661,12.58,1.6,0.16787156500432796,0.14880840178440596,0.17000570867915377,0.14957844177527646,0.19658976484157395,0.1510400320041035
12.683,12.64,1.74,0.1671327212036555,0.14812934687795262,0.16948719706772097,0.14879969218924075,0.19549003627992356,0.15037674850122038
12.724,12.69,1.74,0.16638204660996836,0.14743899748808137,0.16895584945295575,0.1480119514201557,0.19438414712687338,0.1497027933875603
12.787,12.75,1.62,0.16562066370335682,0.14673825507303775,0.16841261463987614,0.1472162348306205,0.19327393641892668,0.14901905003378052
12.85,12.8,1.72,0.16484968490314472,0.1460280101221102,0.16785843319517868,0.146413544720442,0.19216123536445776,0.1483263899085915
12.889,12.86,1.75,0.16407021171809222,0.145309141544556,0.1672942368166986,0.14560486959102595,0.19104786584372327,0.14762567199951848
12.974,12.91,1.58,0.16328333392351524,0.14458251608366676,0.16672094772636906,0.14479118343615127,0.18993563892924195,0.14691774225999116
13.015,12.97,1.54,0.1624901287654931,0.14384898775589747,0.16613947808654705,0.14397344505915727,0.18882635342719611,0.14620343308264472
13.056,13.02,1.64,0.16169166019230824,0.1431093973149759,0.16555072943955568,0.14315259741659786,0.18772179444048231,0.1454835627987047
13.118,13.08,1.53,0.16088897811323172,0.14236457174090245,0.16495559217027478,0.1423295669884312,0.18662373195397935,0.14475893520331726
13.181,13.13,1.49,0.16008311768472552,0.14161532375374378,0.16435494499156592,0.14150526317482742,0.18553391944251002,0.1440303391066777
13.241,13.19,1.63,0.15927509862406858,0.14086245135211803,0.16374965445224118,0.14068057771969,0.18445409250187966,0.1432985479107961
13.282,13.24,1.63,0.15846592455035924,0.140106737376253,0.16314057446720168,0.13985638416097818,0.18338596750330433,0.1425643192117193
13.364,13.3,1.54,0.15765658235279767,0.13934894909547318,0.162528545869311,0.13903353730788315,0.18233124027149963,0.1418283944270012
13.384,13.35,1.66,0.15684804158611534,0.13858983781993967,0.16191439598252666,0.13821287274486324,0.18129158478669372,0.1410914984481859
13.446,13.41,1.68,0.1560412538929936,0.1378301385364376,0.1612989382157975,0.13739520636248964,0.18026865191084962,0.14035433931803543
13.487,13.46,1.53,0.15523715245330952,0.13707056956797584,0.16068297167724185,0.13658133391501584,0.17926406813840923,0.1396176079322118
13.547,13.52,1.62,0.1544366514600358,0.13631183225695032,0.16006728080812618,0.13577203060456797,0.1782794343718889,0.13888197776510225
13.609,13.57,1.62,0.15364064562160892,0.13555461067161692,0.1594526350361754,0.1349680506918664,0.17731632472266645,0.1381481046194673
13.67,13.63,1.51,0.15285000969055673,0.13479957133562123,0.15883978844775778,0.13417012713340817,0.17637628533729263,0.13741662639958355
13.71,13.68,1.54,0.15206559801813602,0.13404736298033937,0.15822947947846575,0.13337897124506648,0.17546083324963302,0.13668816290754748
13.771,13.74,1.66,0.15128824413466557,0.13329861631979342,0.15762243062154566,0.13259527239209246,0.174571455259114,0.1359633156623994
13.832,13.79,1.57,0.15051876035518225,0.1325539438479083,0.15701934815356144,0.1318196977055068,0.17370960683530948,0.13524266774171298
13.893,13.85,1.48,0.14975793741000437,0.1318139396578643,0.15642092187663262,0.1310528918248405,0.1728767110490793,0.13452678364527978
13.935,13.9,1.6,0.14900654409977424,0.13107917928327448,0.15582782487658425,0.13029547666712069,0.1720741575304661,0.13381620918049453
14.017,13.96,1.65,0.14826532697458691,0.130350219560872,0.15524071329638706,0.12954805122191532,0.1713033014535561,0.1331114713690291
14.08,14.01,1.56,0.14753501003687328,0.1296275985143445,0.15466022612433622,0.12881119137216196,0.17056546254849617,0.13241307837436808
14.1,14.07,1.67,0.14681629446775885,0.12891183525891542,0.15408698499648293,0.12808544974044164,0.16986192414084872,0.13172151944977167
14.141,14.12,1.76,0.14610985837664772,0.12820342992625686,0.153521594012891,0.12737135556032333,0.1691939322184912,0.13103726490622614
14.203,14.18,1.67,0.14541635657379146,0.1275028636093125,0.15296463956734305,0.12666941457239345,0.16856269452631775,0.13036076609993752
14.265,14.23,1.67,0.14473642036558906,0.12681059832662184,0.15241669019015094,0.1259801089445976,0.16796937968906928,0.12969245543892122
14.325,14.29,1.7,0.1440706573723376,0.1261270770057504,0.15187829640374,0.12530389721654558,0.16741511636269127,0.12903274640823165
14.366,14.34,1.62,0.14341965136813287,0.12545272348543804,0.15134999059069745,0.12464121426744199,0.16690099241468184,0.1283820336133679
14.449,14.4,1.55,0.14278396214260472,0.12478794253607377,0.15083228687399433,0.12399247130729227,0.16642805413391643,0.1277406928413796
14.47,14.45,1.65,0.14216412538415582,0.12413311989809003,0.15032568100908747,0.12335805589100651,0.16599730547042524,0.12710908113918903
14.531,14.51,1.65,0.1415606525843651,0.12348862233784667,0.1498306502875918,0.12273833195498463,0.1656097073055636,0.12648753690863337
14.593,14.56,1.54,0.14097403096320854,0.12285479772055231,0.14934765345219211,0.12213363987573042,0.1652661767529753,0.12587638001772483
14.654,14.62,1.65,0.1404047234147259,0.12223197509975467,0.14887713062244462,0.12154429655001744,0.16496758649072527,0.12527591192762202
14.696,14.67,1.74,0.139853168472736,0.12162046482292951,0.14841950323114916,0.12097059549611827,0.16471476412497396,0.12468641583480417
14.756,14.73,1.61,0.13931978029618583,0.12102055865270277,0.14797517397106888,0.12041280697560702,0.16450849158557795,0.12410815682794438
14.817,14.78,1.65,0.1388049486737037,0.12043252990325387,0.14754452675189528,0.11987117813526146,0.16434950455402408,0.12354138205898389
14.879,14.84,1.77,0.13830903904692127,0.11985663359146574,0.1471279266674686,0.11934593316861582,0.1642384919241525,0.122986320927912
14.939,14.89,1.66,0.13783239255214785,0.11929310660239512,0.14672571997335776,0.11883727349672488,0.16417609529617536,0.12244318528075744
14.981,14.95,1.59,0.1373753260800081,0.11874216786863483,0.14633823407497396,0.11834537796768274,0.16416290850454102,0.12191216962029416
15.048,15.0,1.73,0.13693813235268942,0.11820401856312668,0.14596577752642323,0.11787040307440522,0.16419947718022954,0.12139345132895928
15.11,15.06,1.7,0.13652108001848115,0.11767884230496188,0.14560864004030602,0.11741248319014477,0.164286298348091,0.12088719090347551
15.213,15.11,1.56,0.13612441376331058,0.11716680537768552,0.1452670925086566,0.11697173082116676,0.16442382005984293,0.1203935322006662
15.234,15.17,1.66,0.13574835443898656,0.11666805695960698,0.14494138703518986,0.1165482368759861,0.16461244106334483,0.11991260269394999
15.255,15.22,1.69,0.1353930992078669,0.1161827293656122,0.14463175697900396,0.11614207095055161,0.1648525105087718,0.11944451374000054
15.359,15.28,1.54,0.13505882170367808,0.11571093829997231,0.14433841700986927,0.11575328162877109,0.1651443276923069,0.11898936085506231
15.38,15.33,1.59,0.13474567220822542,0.11525278311965019,0.1440615631751892,0.11538189679780296,0.16548814183795774,0.11854722400042203
15.422,15.39,1.66,0.13445377784373932,0.11480834710761943,0.14380137297864126,0.11502792397759258,0.16588415191809217,0.11811816787654847
15.483,15.44,1.54,0.13418324278059848,0.11437769775572858,0.14355800547042202,0.11469135066418214,0.16633250651327608,0.11770224222542813
15.546,15.5,1.54,0.13393414846014376,0.11396088705666747,0.1433316013489447,0.11437214468636799,0.16683330371197255,0.117299482140637
15.587,15.55,1.68,0.1337065538322501,0.11355795180461895,0.1431222830737776,0.11407025457530688,0.16738659105064954,0.11690990838469965
15.65,15.61,1.65,0.13350049560729232,0.11316891390419188,0.14293015498958708,0.11378560994667043,0.1679923654948293,0.11653352771329097
15.711,15.66,1.53,0.1333159885221382,0.11279378068722908,0.14275530346085133,0.11351812189491663,0.16865057346161091,0.11617033320583738
15.752,15.72,1.6,0.1331530256198192,0.11243254523706943,0.14259779701712919,0.11326768339920491,0.16936111088421427,0.11582030460207048
15.813,15.77,1.61,0.13301157854256776,0.11208518671982676,0.14245768650870158,0.11303416974044499,0.17012382331911832,0.1154834086440813
15.915,15.83,1.46,0.13289159783796348,0.11175167072222944,0.14233500527244822,0.11281743892893752,0.17093850609637268,0.1151595994234251
15.955,15.88,1.55,0.1327930132779704,0.11143194959555618,0.14222976930785888,0.11261733214205046,0.1718049045136336,0.11484881873283281
15.976,15.94,1.64,0.13271573419066723,0.11112596280520629,0.1421419774631098,0.11243367417137391,0.1727227140744376,0.11455099642209687
16.017,15.99,1.46,0.13265964980447117,0.11083363728545455,0.14207161163115442,0.11226627387880973,0.1736915807711856,0.11426605075771028
16.078,16.05,1.47,0.1326246296046251,0.11055488779896488,0.14201863695576064,0.11211492466108511,0.17471110141328172,0.11399388878584717
16.138,16.1,1.59,0.1326105237016638,0.11028961730066554,0.14198300204737493,0.11197940492222182,0.17578082400085465,0.11373440669827944
16.179,16.16,1.5,0.1326171632115255,0.11003771730561218,0.14196463920865016,0.11185947855351788,0.17690024814446845,0.1134874902008254
16.281,16.21,1.38,0.13264436064694463,0.10979906826047567,0.14196346466945825,0.11175489542059346,0.17806882553119172,0.11325301488392578
16.302,16.27,1.37,0.13269191031975844,0.10957353991828946,0.14197937883120978,0.11166539185702899,0.17928596043735448,0.11303084659494117
16.343,16.32,1.36,0.1327595887537896,0.10936099171607945,0.14201226652031856,0.11159069116409584,0.18055101028827183,0.11282084181176523
16.403,16.38,1.2,0.13284715510801404,0.1091612731549816,0.14206199725066396,0.11153050411606091,0.18186328626512385,0.1126228480173573
16.485,16.43,1.31,0.1329543516097584,0.10897422418244442,0.14212842549489416,0.1114845294705557,0.18322205395904567,0.1124367040748147
16.506,16.49,1.35,0.1330809039976835,0.10879967557611435,0.14221139096439797,0.11145245448352992,0.18462653407233265,0.11226224060262445
16.567,16.54,1.26,0.13322652197430637,0.10863744932901276,0.14231071889778135,0.11143395542834504,0.18607590316652867,0.11209928034975425
16.649,16.6,1.28,0.1333908996677935,0.10848735903562949,0.1424262203577202,0.11142869811859409,0.1875692944570651,0.11194763857025834
16.71,16.65,1.4,0.13357371610273794,0.10834921027857801,0.1425576925361237,0.11143633843425779,0.18910579865405608,0.1118071233970856
16.73,16.71,1.33,0.13377463567963432,0.10822280101546736,0.142704919067613,0.1114565228508092,0.19068446484881568,0.11167753621478267
16.792,16.76,1.27,0.13399330866277903,0.10810792196564607,0.14286767035137382,0.11148888897085724,0.19230430144562716,0.1115586720307871
16.852,16.82,1.35,0.13422937167634402,0.10800435699646212,0.14304570388146284,0.11153306605789085,0.1939642771382657,0.1114503198450027
16.915,16.87,1.33,0.13448244820839392,0.10791188350866616,0.1432387645856668,0.11158867557164881,0.19566332193074587,0.11135226301734787
17.017,16.93,1.16,0.13475214912261813,0.1078302728205755,0.14344658517301692,0.1116553317046113,0.19740032820171388,0.11126427963296776
17.038,16.98,1.24,0.1350380731775168,0.10775929055061925,0.14366888649004583,0.1117326419190966,0.19917415181183257,0.11118614286480887
17.058,17.04,1.3,0.13533980755272793,0.10769869699790334,0.14390537788584695,0.11182020748445362,0.20098361325341582,0.11111762133326784
17.119,17.09,1.19,0.135656928382143,0.10764824752045331,0.14415575758595928,0.11191762401386349,0.20282749884145573,0.11105847946264208
17.202,17.15,1.21,0.13598900129343233,0.10760769291080977,0.14441971307501308,0.11202448200030364,0.20470456194506748,0.1110084778341259
17.223,17.2,1.32,0.13633558195359485,0.10757677976866317,0.14469692148792834,0.11214036735127732,0.20661352425827761,0.11096737353510754
17.284,17.26,1.24,0.13669621662016232,0.10755525087021742,0.1449870500093047,0.11226486192194354,0.20855307710900076,0.1109349205045262
17.367,17.31,1.19,0.13707044269769927,0.10754284553396994,0.14528975628052923,0.11239754404628441,0.2105218828049755,0.11091086987405052
17.387,17.37,1.3,0.1374577892992456,0.10753929998259168,0.14560468881406702,0.11253798906592802,0.21251857601536625,0.11089497030484034
17.449,17.42,1.3,0.1378577778123472,0.10754434770058369,0.14593148741437942,0.11268576985621173,0.21454176518667503,0.1108869683196532
17.51,17.48,1.19,0.13826992246931025,0.10755771978738068,0.1462697836049146,0.11284045734903266,0.2165900339915362,0.11088660863006063
17.571,17.53,1.28,0.1386937309212875,0.10757914530557448,0.14661920106061993,0.11300162105200183,0.21866194280889747,0.11089363445854541
17.612,17.59,1.32,0.13912870481577097,0.10760835162394133,0.14697935604544812,0.11316882956339919,0.2207560302340213,0.11090778785525743
17.673,17.64,1.16,0.13957434037702962,0.1076450647549752,0.14734985785435958,0.11334165108242407,0.22287081461666275,0.11092881000921408
17.776,17.7,1.18,0.14003012898899211,0.107689009686652,0.14773030925933492,0.1135196539142557,0.22500479562569517,0.11095644155374007
17.795,17.75,1.28,0.14049555778003137,0.1077399107081734,0.1481203069589208,0.11370240696947392,0.22715645583835647,0.11099042286595098
17.835,17.81,1.21,0.1409701102090714,0.10779749172946235,0.14851944203085138,0.11388948025742154,0.22932426235217512,0.1110304943600955
17.897,17.86,1.24,0.14145326665239213,0.1078614765942029,0.1489273003872991,0.11408044537311891,0.23150666841750592,0.11107639677458292
17.98,17.92,1.4,0.14194450499046066,0.10793158938623826,0.1493434632322814,0.11427487597736921,0.2337021150884983,0.11112787145252993
18.021,17.97,1.41,0.14244330119409274,0.10800755472914912,0.14976750752070858,0.11447234826970319,0.2359090328902422,0.11118466061566491
18.061,18.03,1.33,0.1429491299092392,0.10808909807883428,0.1501990064185273,0.11467244145380208,0.23812584349979707,0.1112465076314273
18.122,18.08,1.44,0.14346146503969975,0.10817594600890999,0.1506375297633954,0.11487473819501777,0.24035096143880302,0.11131315727309943
18.183,18.14,1.48,0.14397978032708827,0.10826782648873981,0.1510826445253335,0.11507882506958865,0.24258279577538042,0.11138435597280924
18.225,18.19,1.33,0.14450354992739992,0.10836446915390592,0.1515339152668169,0.11528429300513626,0.244819751833016,0.11145985206724933
18.285,18.25,1.42,0.14503224898353811,0.10846560556894388,0.1519909046017914,0.11549073771203298,0.24706023290409831,0.11153939603597206
18.367,18.3,1.5,0.1455653541931429,0.1085709694821871,0.1524531736531144,0.11569776010524228,0.24930264196570778,0.11162274073213738
18.388,18.36,1.43,0.14610234437102904,0.10868029707259498,0.1529202825079413,0.1159049667162484,0.2515453833951922,0.11170964160560826
18.43,18.41,1.51,0.1466427010054907,0.10879332718846998,0.15339179067056075,0.1161119700947157,0.2537868646829738,0.1117998569183062
18.512,18.47,1.69,0.1471859088076683,0.10890980157799766,0.15386725751212038,0.11631838919955412,0.2560254981399694,0.11189314795175383
18.552,18.52,1.68,0.14773145625313047,0.10902946511156066,0.15434624271661895,0.11652384977909097,0.2582597025969755,0.11198927920673854
18.613,18.58,1.62,0.14827883611481715,0.10915206599578141,0.1548283067225057,0.1167279847400457,0.26048790509337344,0.11208801859503638
18.655,18.63,1.78,0.14882754598652584,0.10927735597924222,0.15531301115923404,0.1169304345049807,0.262708542552554,0.11218913762313652
18.716,18.69,1.87,0.14937708879620146,0.10940509054981679,0.1557999192781723,0.11713084735786423,0.2649200634415137,0.11229241156791107
18.777,18.74,1.77,0.14992697330838345,0.10953502912353462,0.15628859637735254,0.11732887977735046,0.2671209294121189,0.11239761964418436
18.861,18.8,1.9,0.1504767146152318,0.10966693522489797,0.15677861021959852,0.1175241967573797,0.26930961692156485,0.1125045451641722
18.881,18.85,1.99,0.1510258346155911,0.10980057665858306,0.1572695314436018,0.11771647211473403,0.2714846188296011,0.11261297568877722
18.942,18.91,1.93,0.1515738624815666,0.10993572567247872,0.15776093396752677,0.11790538878323772,0.27364444597014076,0.11272270317074258
18.982,18.96,1.96,0.15212033511207268,0.11007215911204328,0.1582523953846924,0.11809063909436648,0.2757876286949106,0.11283352408968132
19.065,19.02,2.15,0.15266479757279675,0.11020965856598838,0.15874349735081253,0.11827192504411303,0.2779127183868395,0.11294523957900965
19.127,19.07,2.14,0.15320680352201826,0.11034801050331441,0.15923382596218824,0.11844895854602189,0.2800182889409201,0.11305765554481903
19.147,19.13,2.14,0.15374591562174278,0.11048700640172315,0.15972297212416717,0.11862146167033974,0.2821029382103204,0.11317058277672301
19.229,19.18,2.3,0.15428170593364798,0.11062644286742554,0.1602105319091233,0.11878916686922882,0.2841652894155921,0.11328383705071278
19.29,19.24,2.38,0.15481375629939262,0.11076612174634944,0.16069610690318994,0.1189518171879763,0.28620399251491285,0.1133972392240531
19.331,19.29,2.3,0.15534165870488936,0.11090585022674572,0.16117930454097731,0.11910916646212301,0.28821772553340147,0.11351061532225103
19.371,19.35,2.45,0.15586501562816968,0.11104544093319954,0.1616597384275035,0.11926097950045485,0.2902051958496517,0.11362379661813744
19.433,19.4,2.56,0.15638344037048266,0.11118471201207555,0.1621370286465873,0.11940703225384412,0.29216514143774425,0.11373661970311294
19.476,19.46,2.51,0.15689655737029007,0.11132348720845253,0.1626108020550012,0.11954711196998034,0.294096332063112,0.1138489265506225
19.537,19.51,2.52,0.1574040024998401,0.11146159593463063,0.1630806925617439,0.11968101733409045,0.29599757043074176,0.11396056457193787
19.598,19.57,2.65,0.15790542334401783,0.11159887333032392,0.16354634139186505,0.11980855859580775,0.29786769328431406,0.11407138666433388
19.66,19.62,2.61,0.1584004794611971,0.11173516031466875,0.16400739733436895,0.1199295576823786,0.2997055724549898,0.11418125125174836
19.701,19.68,2.59,0.15888884262584507,0.11187030363018653,0.1644635169738145,0.12004384829839305,0.3015101158586415,0.11429002231801474
19.763,19.73,2.73,0.1593701970526557,0.11200415587883564,0.16491436490527933,0.12015127601220026,0.3032802684403962,0.11439756943275609
19.827,19.79,2.78,0.15984423960201571,0.11213657555027813,0.16535961393237392,0.1202516983291394,0.30501501306542267,0.1145037677700283
19.887,19.84,2.69,0.16031067996662343,0.11226742704247675,0.1657989452479855,0.12034498475169159,0.3067133713549672,0.11460849811980565
19.97,19.9,2.82,0.16076924083908975,0.11239658067473896,0.1662320485974218,0.1204310168266521,0.30837440446671815,0.11471164689240944
19.991,19.95,2.92,0.1612196580603532,0.1125239126933368,0.1666586224236528,0.12050968817942348,0.3099972138186824,0.11481310611599392
20.032,20.01,2.83,0.1616616807487553,0.11264930526985106,0.16707837399446382,0.12058090453551831,0.3115809417558525,0.11491277342721772
20.094,20.06,2.88,0.16209507140964108,0.11277264649241277,0.16749101951153353,0.12064458372932335,0.3131247721590447,0.11501055205524476
20.154,20.12,3.02,0.16251960602537618,0.11289383035003776,0.16789628420170138,0.12070065570011893,0.3146279309953946,0.11510635079923062
20.195,20.17,2.92,0.16293507412571578,0.11301275671026388,0.16829390239092637,0.12074906247528393,0.3160896868101008,0.11520008399946026
20.258,20.23,2.89,0.16334127883850574,0.11312933129030191,0.16868361756160277,0.12078975814055422,0.317509351159104,0.11529167150230742
20.339,20.28,3.06,0.16373803692073813,0.1132434656219056,0.16906518239398854,0.12082270879715457,0.31888627898247324,0.11538103861918796
20.36,20.34,3.09,0.1641251787700152,0.11335507701015532,0.16943835879254387,0.12084789250557999,0.3202198689183513,0.11546811607967655
20.42,20.39,3.01,0.16450254841649803,0.11346408848633907,0.1698029178979932,0.12086529921577377,0.32150956355737786,0.11555283997895466
20.481,20.45,3.14,0.16487000349542577,0.11357042875511057,0.17015864008591902,0.12087493068344206,0.3227548496375925,0.11563515171975541
20.544,20.5,3.22,0.16522741520030998,0.11367403213610475,0.17050531495269386,0.12087680037226958,0.3239552581799271,0.11571499794896961
20.583,20.56,3.1,0.16557466821693934,0.11377483850019703,0.17084274128953653,0.12087093334187315,0.32511036456451925,0.11579233048907853
20.687,20.61,3.13,0.16591166063836743,0.11387279320060376,0.17117072704539535,0.12085736612147309,0.3262197885481951,0.11586710626458553
20.709,20.67,3.26,0.1662383038610892,0.11396784699903624,0.17148908927924622,0.12083614656943803,0.3272831942235839,0.11593928722362686
20.748,20.72,3.15,0.16655452246264746,0.11405995598713593,0.1717976541023154,0.12080733371900389,0.328300289920424,0.11600884025495026
20.811,20.78,3.12,0.1668602540609209,0.11414908150343543,0.1720962566106947,0.12077099761055086,0.3292708280496925,0.11607573710045929
20.872,20.83,3.26,0.16715544915535088,0.11423519004610153,0.17238474080877866,0.12072721911086373,0.33019460489125735,0.11613995426352551
20.933,20.89,3.25,0.16744007095038807,0.1143182531817099,0.1726629595239295,0.12067608971979892,0.3310714603258097,0.11620147291326875
20.995,20.94,3.15,0.16771409516149777,0.11439824745027126,0.17293077431276946,0.12061771136474955,0.33190127751189075,0.11626027878500261
21.099,21.0,3.26,0.16797750980413229,0.11447515426668936,0.1731880553595207,0.12055219618324911,0.3326839825088914,0.11631636207703423
21.12,21.05,3.3,0.1682303149661471,0.1145489598187989,0.1734346813668597,0.12047966629400363,0.3334195438469799,0.11636971734400198
21.141,21.11,3.16,0.16847252256419243,0.11461965496211235,0.1736705394398214,0.12040025355660704,0.33410797204498366,0.11642034338693286
21.182,21.16,3.27,0.16870415608464168,0.11468723511140863,0.17389552496334468,0.12031409932018985,0.3347493190773152,0.11646824314020797
21.245,21.22,3.35,0.168925250309622,0.11475170012931733,0.1741095414740893,0.12022135416127534,0.33534367779109286,0.11651342355563378
21.308,21.27,3.25,0.1691358510286963,0.11481305421208486,0.17431250052717126,0.12012217761116445,0.33589118127466844,0.11655589548382872
21.35,21.33,3.28,0.16933601473669957,0.11487130577274829,0.1745043215584009,0.1200167378732545,0.33639200217883747,0.11659567355314449
21.432,21.38,3.41,0.1695258083181709,0.11492646732197989,0.17468493174245334,0.11990521153082526,0.3368463519920918,0.11663277604634571
21.473,21.44,3.35,0.16970530871878428,0.11497855534688566,0.1748542658472198,0.11978778324594681,0.33725448027135896,0.11666722477527074
21.512,21.49,3.23,0.16987460260417225,0.11502759018803962,0.1750122660844535,0.11966464545023445,0.337616673829758,0.11669904495368705
21.576,21.55,3.31,0.1700337860065524,0.1150735959150207,0.17515888195676607,0.11953599802817882,0.33793325588298634,0.11672826506854544
21.658,21.6,3.34,0.17018296395960736,0.11511660020069311,0.1752940701010415,0.11940204799374829,0.3382045851560263,0.11675491674982431
21.699,21.66,3.19,0.17032225012212587,0.11515663419444458,0.17541779412839015,0.11926300916091259,0.3384310549518961,0.11677903463915126
21.802,21.71,3.29,0.17045176639096454,0.11519373239457362,0.17553002446082724,0.11911910180870075,0.3386130921841852,0.11680065625739107
21.823,21.77,3.37,0.1705716425039415,0.11522793252000488,0.1756307381649329,0.1189705523413705,0.33875115637512837,0.1168198218713938
21.863,21.82,3.29,0.17068201563331545,0.11525927538150363,0.17571991878282509,0.11881759294423767,0.3388457386210024,0.11683657436010468
21.946,21.88,3.29,0.17078302997052702,0.11528780475256614,0.17579755616081977,0.11866046123570749,0.33889736052667063,0.11685095908024268
21.967,21.93,3.41,0.17087483630287978,0.11531356724017364,0.17586364627614948,0.11849939991606497,0.33890657311117195,0.11686302373175649
22.028,21.99,3.3,0.17095759158285237,0.11533661215560155,0.17591819106210227,0.11833465641359393,0.3388739556863301,0.11687281822326098
22.091,22.04,3.19,0.1710314584907621,0.11535699138546533,0.17596119823193568,0.11816648252858131,0.33880011471043187,0.11688039453764561
22.174,22.1,3.25,0.17109660499154766,0.11537475926316006,0.1759926811019179,0.11799513407573532,0.33868568261907983,0.1168858065980358
22.195,22.15,3.23,0.17115320388649902,0.1153899724408208,0.1760126584138544,0.11782087052550783,0.3385313166353566,0.11688911013427661
22.235,22.21,3.11,0.17120143236081328,0.11540268976190135,0.17602115415747097,0.11764395464477671,0.33833769756142146,0.11689036255010504
22.341,22.26,3.19,0.17124147152787164,0.11541297213445519,0.17601819739302804,0.11746465213732732,0.33810552855362724,0.11688962279117805
22.361,22.32,3.27,0.17127350597111987,0.11542088240520079,0.17600382207453977,0.11728323128457781,0.3378355338832105,0.11688695121412516
22.402,22.37,3.16,0.17129772328441378,0.11542648523445775,0.17597806687396864,0.11709996258701295,0.337528457684589,0.11688240945679615
22.443,22.43,3.19,0.17131431361166938,0.11542984697204753,0.1759409750067481,0.1169151184068257,0.3371850626933107,0.11687606030987163
22.525,22.48,3.31,0.17132346918664637,0.11543103553426133,0.17589259405897165,0.11672897261230362,0.33680612897573586,0.1168679675899981
22.566,22.54,3.19,0.17132538387369586,0.11543012028199895,0.17583297581659688,0.11654180022450851,0.33639245265258927,0.11685819601459646
22.627,22.59,3.09,0.1713202527103162,0.11542717190017623,0.17576217609703604,0.11635387706677591,0.3359448446185764,0.11684681107848029
22.689,22.65,3.16,0.17130827145237154,0.11542226227848465,0.17568025458352077,0.11616547941752,0.3354641292603049,0.11683387893240466
22.73,22.7,3.14,0.17128963612285006,0.11541546439356372,0.17558727466263738,0.11597688366677858,0.3349511431747774,0.11681946626365651
22.791,22.76,2.97,0.17126454256505325,0.11540685219262599,0.17548330326543565,0.115788365976885,0.3344067338907025,0.11680364017879358
22.853,22.81,3.04,0.1712331860011005,0.11539650047856304,0.1753684107124927,0.11560020194761929,0.3338317585948279,0.11678646808864208
22.895,22.87,3.1,0.17119576059661,0.11538448479656307,0.1752426705632876,0.11541266628617348,0.3332270828654502,0.11676801759566757
22.996,22.92,2.97,0.17115245903238835,0.11537088132227846,0.17510615947020974,0.11522603248226661,0.3325935794152064,0.11674835638383523
23.016,22.98,2.98,0.1711034720839237,0.11535576675159671,0.17495895703748324,0.11504057248876785,0.3319321268452076,0.11672755211107579
23.057,23.03,3.08,0.17104898820942674,0.1153392181920908,0.17480114568525332,0.11485655640821767,0.33124360841255623,0.11670567230446806
23.119,23.09,2.96,0.17098919314710237,0.11532131305625076,0.17463281051908325,0.11467425218564382,0.3305289108132827,0.11668278425823916
23.182,23.14,2.89,0.17092426952227496,0.11530212895662174,0.1744540392051291,0.11449392530804514,0.3297889229827306,0.11665895493467404
23.265,23.2,2.95,0.1708543964649416,0.11528174360298091,0.17426492185126988,0.11431583851087167,0.3290245349154136,0.11663425086801303
23.326,23.25,2.93,0.17077974923830763,0.115260234701678,0.17406555089447304,0.11414025149177956,0.3282366365063476,0.11660873807140575
23.347,23.31,2.74,0.1707004988788401,0.11523767985724898,0.17385602099466677,0.1139674206318912,0.32742611641582314,0.11658248194698186
23.388,23.36,2.8,0.17061681184833133,0.11521415647640741,0.17363642893536083,0.11379759872476547,0.32659386095952403,0.11655554719909723
23.449,23.42,2.79,0.17052884969841958,0.11518974167452348,0.17340687353121778,0.11363103471327834,0.3257407530258339,0.11652799775081445
23.511,23.47,2.68,0.17043676874797883,0.11516451218470684,0.17316745554273838,0.11346797343461995,0.32486767102208575,0.11649989666367898
23.551,23.53,2.7,0.1703407197737621,0.11513854426961719,0.17291827759818917,0.11330865537363258,0.3239754878514151,0.11647130606085651
23.674,23.58,2.78,0.1702408477146605,0.11511191363613049,0.17265944412287929,0.11315331642472945,0.3230650699217843,0.11644228705369157
23.695,23.64,2.68,0.17013729138992453,0.11508469535298453,0.17239106127589798,0.11300218766263365,0.32213727618867044,0.1164128996717374
23.716,23.69,2.61,0.17003018323168567,0.11505696377151374,0.172113236894427,0.11285549512215338,0.3211929572328503,0.11638320279628905
23.777,23.75,2.66,0.16991964903210738,0.11502879244956465,0.17182608044572603,0.11271345958717412,0.3202329543746715,0.11635325409743179
23.84,23.8,2.64,0.1698058077054957,0.11500025407865787,0.17152970298686634,0.11257629638900424,0.3192580988261584,0.11632310997459847
23.88,23.86,2.47,0.1696887710656917,0.11497142041444033,0.1712242171322514,0.1124442152141704,0.3182692108822386,0.1162928255006196
23.943,23.91,2.55,0.1695686436190372,0.11494236221045898,0.17090973702891143,0.11231741992173494,0.3172670991522953,0.11626245436924479
24.006,23.97,2.57,0.1694455223731663,0.11491314915528311,0.17058637833950147,0.11219610837020261,0.31625255983316775,0.11623204884611558
24.069,24.02,2.38,0.1693194966618369,0.11488384981300709,0.17025425823287763,0.1120804722540951,0.3152263760246227,0.1162016597231729
24.111,24.08,2.35,0.16919064798598013,0.11485453156717121,0.16991349538206632,0.11197069695029924,0.31418931708822095,0.1161713362764855
24.174,24.13,2.4,0.16905904987111425,0.11482526056814389,0.1695642099693769,0.11186696137432833,0.3131421380503963,0.11614112622748793
24.276,24.19,2.28,0.16892476774126441,0.1147961016840029,0.1692065236983773,0.11176943784664138,0.3120855790504436,0.11611107570761521
24.298,24.24,2.23,0.1687878588095315,0.11476711845493419,0.1688405598124399,0.11167829196913431,0.31102036483395973,0.11608122922632218
24.38,24.3,2.35,0.16864837198545854,0.11473837305113989,0.16846644311956002,0.11159368251186506,0.30994720429212946,0.11605162964247298
24.401,24.35,2.34,0.16850634779934662,0.11470992623421696,0.16808430002313776,0.11151576131001627,0.3088667900471078,0.11602231813908205
24.442,24.41,2.21,0.16836181834366773,0.11468183732194127,0.16769425855838943,0.11144467317105249,0.30777979808363864,0.11599333420138441
24.504,24.46,2.31,0.16821480723170382,0.1146541641563764,0.1672964484340226,0.11138055579200178,0.30668688742697064,0.11596471559820731
24.544,24.52,2.35,0.16806532957352524,0.11462696307522025,0.16689100107879556,0.11132353968677695,0.305588699867082,0.11593649836661146
24.626,24.57,2.19,0.16791339196940508,0.11460028888630298,0.16647804969258287,0.11127374812345456,0.3044858597291753,0.11590871679976505
24.646,24.63,2.18,0.1677589925207413,0.11457419484515816,0.1660577293015591,0.1112312970714537,0.3033789736903442,0.11588140343801366
24.729,24.68,2.21,0.16760212085853013,0.1145487326355994,0.16563017681709208,0.11119629515859021,0.30226863064224674,0.11585458906310618
24.769,24.74,2.11,0.16744275818941193,0.11452395235324014,0.16519553109793428,0.1111688436379946,0.3011554015995322,0.11582830269553596
24.83,24.79,2.07,0.16728087735929278,0.11449990249188846,0.164753933015311,0.11114903636486047,0.3000398396536473,0.11580257159495658
24.891,24.85,2.23,0.16711644293452318,0.11447662993273701,0.16430552552050076,0.11113695978294667,0.29892247997151644,0.11577742126363147
24.953,24.9,2.23,0.1669494113005963,0.11445417993624721,0.16385045371449158,0.11113269292070331,0.297803839838463,0.11575287545287433
25.015,24.96,2.09,0.1667797307783082,0.11443259613660499,0.16338886491927865,0.11113630739683998,0.29668441874464013,0.11572895617243151
25.036,25.01,2.22,0.16660734175729497,0.11441192053861128,0.16292090875035886,0.11114786743511566,0.295564698514184,0.11570568370275013
25.118,25.07,2.28,0.16643217684683623,0.11439219351686417,0.16244673718999075,0.11116742988810388,0.29444514347628087,0.11568307661006709
25.159,25.12,2.11,0.16625416104380059,0.11437345381709212,0.1619665046608117,0.11119504426967826,0.2933262006773179,0.11566115176425266
25.221,25.18,2.13,0.16607321191758895,0.11435573855950693,0.16148036809941294,0.11123075279597305,0.29220830013325916,0.1156399243593424
25.284,25.23,2.19,0.16588923981191406,0.11433908324405809,0.1609884870294632,0.11127459043459337,0.2910918551213593,0.11561940793669413
25.325,25.29,2.07,0.1657021480632305,0.11432352175748128,0.16049102363396847,0.11132658496185516,0.2899772625102739,0.1155996144107106
25.386,25.34,2.03,0.16551183323558663,0.11430908638204197,0.15998814282627188,0.11138675702782361,0.28886490312754126,0.11558055409707291
25.428,25.4,2.16,0.1653181853716153,0.11429580780587767,0.15948001231947237,0.11145512022888258,0.28775514216330966,0.11556223574343275
25.469,25.45,2.17,0.1651210882593486,0.11428371513483174,0.15896680269412705,0.11153168118750167,0.2866483296090843,0.11554466656250803
25.53,25.51,2.08,0.1649204197145384,0.11427283590565061,0.15844868746434998,0.11161643963878745,0.2855448007301776,0.11552785226751977
25.591,25.56,2.21,0.16471605187816962,0.11426319610039558,0.15792584314261085,0.11170938852334424,0.2844448765704903,0.11551179710990025
25.654,25.62,2.28,0.16450785152886743,0.1142548201619051,0.15739844930362834,0.11181051408594472,0.28334886448823327,0.11549650391919392
25.694,25.67,2.1,0.1642956804099123,0.11424773101013876,0.15686668864777306,0.11191979597951728,0.28225705872119905,0.11548197414506732
25.757,25.73,2.16,0.1640793955705747,0.11424195005924129,0.15633074706438543,0.11203720737398885,0.28116974098020325,0.11546820790134504
25.84,25.78,2.26,0.16385884972145973,0.1142374972351827,0.1557908136954091,0.11216271506956639,0.28008718106931846,0.11545520401198953
25.861,25.84,2.14,0.16363389160352107,0.11423439099385198,0.15524708099975323,0.1122962796140726,0.2790096375315087,0.1154429600589488
25.923,25.89,2.1,0.16340436637035038,0.11423264833950479,0.15469974481879706,0.11243785542397408,0.2779373583182309,0.1154314724318019
25.985,25.95,2.23,0.16317011598329115,0.114232284843486,0.154149004443407,0.11258739090875503,0.276870581481528,0.11542073637913391
26.048,26.0,2.21,0.16293097961887443,0.11423331466315477,0.15359506268278708,0.11274482859828504,0.27580953588709606,0.11541074606156908
26.11,26.06,2.15,0.16268679408804063,0.11423575056093739,0.1530381259354414,0.11291010527280519,0.27475444194676285,0.11540149460638335
26.213,26.11,2.27,0.16243739426657688,0.11423960392342693,0.15247840426251574,0.11308315209512138,0.2737055123687823,0.11539297416361037
26.236,26.17,2.32,0.16218261353618083,0.1142448847804445,0.15191611146380557,0.11326389474456511,0.27266295292434234,0.11538517596354322
26.275,26.22,2.16,0.1619222842355546,0.11425160182397703,0.15135146515674128,0.11345225355227079,0.271626963228693,0.11537809037552885
26.337,26.28,2.22,0.16165623812092653,0.11425976242691224,0.15078468685863322,0.11364814363734205,0.2705977375353227,0.11537170696794839
26.379,26.33,2.34,0.16138430683538324,0.11426937266150557,0.15021600207234903,0.1138514750435357,0.2695754655416294,0.11536601456927892
26.421,26.39,2.23,0.16110632238638153,0.11428043731752986,0.14964564037543537,0.11406215287616504,0.2685603332045366,0.11536100133013587
26.483,26.44,2.21,0.1608221176307755,0.11429295992007933,0.1490738355125117,0.11428007743901572,0.26755252356448683,0.11535665478620263
26.586,26.5,2.34,0.16053152676664664,0.11430694274701923,0.14850082549059096,0.11450514437115544,0.2665522175762415,0.11535296192195268
26.607,26.55,2.33,0.16023438583118874,0.11432238684608162,0.14792685267686173,0.11473724478356961,0.2655595949449156,0.11534990923506505
26.627,26.61,2.22,0.15993053320388162,0.11433929205160076,0.14735216389840863,0.11497626539554945,0.26457483496568124,0.1153474828014242
26.69,26.66,2.33,0.1596198101141805,0.11435765700086903,0.14677701054334202,0.11522208867071987,0.26359811736558086,0.11534566834058627
26.751,26.72,2.37,0.159302061152947,0.11437747915008123,0.14620164866284086,0.11547459295255039,0.26262962314591315,0.11534445128158279
26.812,26.77,2.21,0.15897713478685263,0.11439875478982853,0.14562633907366607,0.11573365259916396,0.26166953542367094,0.11534381682892923
26.876,26.83,2.29,0.15864488387497636,0.11442147906010985,0.14505134746073756,0.11599913811726476,0.2607180402705208,0.11534375002870646
26.939,26.88,2.38,0.15830516618680823,0.11444564596484424,0.14447694447938375,0.11627091629504176,0.2597753275478197,0.1153442358345906
26.96,26.94,2.31,0.15795784492085996,0.11447124838588768,0.1439034058568715,0.11654885033395493,0.25884159173615817,0.11534525917371688
27.023,26.99,2.31,0.15760278922305881,0.11449827809658021,0.14333101249278013,0.11683279997937218,0.2579170327579155,0.11534680501227265
27.065,27.05,2.45,0.15723987470406298,0.11452672577487197,0.14276005055770324,0.11712262165008827,0.25700185679132587,0.11534885842071946
27.128,27.1,2.42,0.15686898395460355,0.11455658101608754,0.14219081158969216,0.11741816856678694,0.2560962770745949,0.11535140463853927
27.19,27.16,2.33,0.15649000705794722,0.11458783234538368,0.14162359258782742,0.11771929087949647,0.255200514698654,0.11535442913838938
27.233,27.21,2.42,0.1561028420985741,0.11462046722994157,0.1410586961023061,0.11802583579405403,0.25431479938720236,0.11535791768953665
27.317,27.27,2.44,0.15570739566618358,0.11465447209091668,0.14049643032045825,0.11833764769755414,0.2534393702627448,0.11536185642042884
27.379,27.32,2.26,0.15530358335416264,0.11468983231515519,0.13993710914814986,0.11865456828271863,0.2525744765973723,0.11536623188025301
27.4,27.38,2.34,0.15489133025166155,0.11472653226668404,0.1393810522860721,0.11897643667110527,0.25172037854704643,0.11537103109933215
27.462,27.43,2.45,0.1544705714284126,0.11476455529799205,0.13882858530046244,0.11930308953506569,0.25087734786815385,0.11537624164821578
27.524,27.49,2.34,0.15404125241141822,0.1148038837611362,0.13828003968784247,0.11963436121837076,0.25004566861508143,0.1153818516953334
27.566,27.54,2.35,0.15360332965260795,0.11484449901873135,0.1377357529333593,0.1199700838554482,0.24922563781754828,0.11538785006309255
27.69,27.6,2.48,0.15315677098653663,0.1148863814549035,0.137196068562283,0.12031008748921013,0.2484175661364489,0.11539422628231293
27.711,27.65,2.49,0.1527015560771801,0.11492951048629932,0.13666133618418422,0.12065420018746509,0.2476217784969993,0.11540097064489181
27.732,27.71,2.4,0.15223767685289452,0.11497386457324164,0.13613191152930337,0.12100224815789305,0.24683861469803403,0.1154080742545963
27.793,27.76,2.48,0.1517651379286328,0.11501942123110837,0.1356081564766387,0.12135405586153088,0.24606842999636752,0.11541552907587628
27.855,27.82,2.5,0.15128395701456113,0.115066157041993,0.13509043907332993,0.12170944612467359,0.24531159566521807,0.11542332798058666
27.917,27.87,2.33,0.15079416531027062,0.11511404766668924,0.13457913354500184,0.12206824024905291,0.2445684995257613,0.1154314647925063
27.957,27.93,2.42,0.15029580788380337,0.11516306785703903,0.13407462029682066,0.12243025812012222,0.24383954645092826,0.1154399343295425
28.038,27.98,2.5,0.14978894403470852,0.11521319146869421,0.13357728590508644,0.12279531831326354,0.2431251588405858,0.11544873244351624
28.08,28.04,2.41,0.14927364764033382,0.11526439147435612,0.13308752309923447,0.12316323819773393,0.2424257770672428,0.11545785605743289
28.123,28.09,2.32,0.1487500074845547,0.11531663997756668,0.13260573073412402,0.12353383403818888,0.24174185989143082,0.11546730320015536
28.185,28.15,2.51,0.14821812756817063,0.11536990822712011,0.13213231375247483,0.1239069210936495,0.2410738848459338,0.1154770730384053
28.268,28.2,2.48,0.14767812740026298,0.11542416663214111,0.13166768313730692,0.12428231371379085,0.24042234858807135,0.11548716590602386
28.288,28.26,2.4,0.14713014226989038,0.1154793847778434,0.13121225585425877,0.12465982543240801,0.23978776721926529,0.1154975833304264
28.349,28.31,2.48,0.1465743234975683,0.1155355314419556,0.13076645478369023,0.12503926905788323,0.23917067657115734,0.11550832805618585
28.41,28.37,2.48,0.14601083866604356,0.11559257461177999,0.13033070864252605,0.12542045676043717,0.2385716324576079,0.11551940406567844
28.452,28.42,2.16,0.1454398718299279,0.11565048150184047,0.12990545189585798,0.1258032001559163,0.2379912108919695,0.11553081659672741
28.514,28.48,2.26,0.14486162370378172,0.11570921857207958,0.12949112465838558,0.1261873103858676,0.23743000826906172,0.11554257215719332
28.556,28.53,2.35,0.14427631182823983,0.11576875154658234,0.12908817258581934,0.12657259819368405,0.23688864151125333,0.11555467853647917
28.62,28.59,2.36,0.14368417071376124,0.11582904543282495,0.1286970467563597,0.12695887399668915,0.23636774817798095,0.11556714481395246
28.682,28.64,2.39,0.14308545196155656,0.11589006454146866,0.1283182035422522,0.12734594795417425,0.23586798653794486,0.11557998136431859
28.723,28.7,2.54,0.142480424361223,0.11595177250673773,0.12795210447122796,0.12773363003157728,0.2353900356032039,0.11559319986000094
28.784,28.75,2.53,0.14186937396462107,0.11601413230742268,0.12759921607748712,0.12812173006111938,0.23493459512446843,0.11560681327058016
28.845,28.81,2.43,0.14125260413557367,0.11607710628853601,0.1272600097418209,0.12851005779925526,0.2345023855470262,0.1156208358593313
28.887,28.86,2.56,0.14063043557504085,0.11614065618362183,0.12693496152048056,0.12889842298127543,0.2340941479268905,0.1156352831768811
28.95,28.92,2.61,0.14000320632152105,0.1162047431376912,0.12662455196246533,0.12928663537335477,0.2337106438069024,0.11565017205199729
29.03,28.97,2.42,0.1393712717265326,0.11626932773072877,0.12632926591498297,0.1296745048223091,0.23335265505262798,0.11566552057952248
29.051,29.03,2.53,0.13873500440511316,0.11633437000170434,0.1260495923169109,0.13006184130330828,0.2330209836479767,0.11568134810547044
29.153,29.08,2.58,0.13809479416133558,0.11639982947302109,0.12578602398014985,0.13044845496581212,0.2327164514505444,0.1156976752093115
29.174,29.14,2.45,0.13745104788887122,0.11646566517534203,0.12553905735882243,0.1308341561780122,0.2324398999067416,0.11571452368348159
29.216,29.19,2.46,0.13680418944662337,0.11653183567275398,0.12530919230629256,0.131218755570088,0.232192189726807,0.11573191651015695
29.278,29.25,2.62,0.13615465950941297,0.11659829908825275,0.12509693181996073,0.13160206407660802,0.23197420051984594,0.1157498778353393
29.319,29.3,2.57,0.13550291539367587,0.11666501312954543,0.12490278177376964,0.13198389297840724,0.23178683038907733,0.1157684329402944
29.382,29.36,2.46,0.1348494308581421,0.11673193511516161,0.12472725063836707,0.13236405394423675,0.23163099548752278,0.11578760821038461
29.463,29.41,2.57,0.1341946958795128,0.11679902200085068,0.12457084918891921,0.13274235907242138,0.23150762953444914,0.11580743110133032
29.524,29.47,2.6,0.13353921640323288,0.11686623040621945,0.12443409020065031,0.1331186209326896,0.23141768329296397,0.1158279301029319
29.566,29.52,2.45,0.1328835140695537,0.11693351664154236,0.12431748813227518,0.13349265260827947,0.23136212400923686,0.11584913470028678
29.605,29.58,2.53,0.13222812591516825,0.11700083673466391,0.12422155879756758,0.13386426773839472,0.23134193481387308,0.11587107533254695
29.667,29.63,2.6,0.13157360405076649,0.11706814645791191,0.12414681902536703,0.1342332805610848,0.23135811408602108,0.11589378334927256
29.707,29.69,2.5,0.13092051531489637,0.1171354013549502,0.12409378630837799,0.1345995059566336,0.23141167478084454,0.11591729096444942
29.769,29.74,2.5,0.13026944090451056,0.11720255676751819,0.12406297844112397,0.13496275949156625,0.23150364372103685,0.11594163120824368
29.892,29.8,2.64,0.12962097598254899,0.11726956786202744,0.12405491314738586,0.13532285746340825,0.23163506085311344,0.11596683787656721
29.912,29.85,2.58,0.12897572926289114,0.11733638965599318,0.12407010769741751,0.13567961694633981,0.2318069784692836,0.11599294547851706
29.932,29.91,2.47,0.12833432257303076,0.11740297704426834,0.12410907851522139,0.13603285583785876,0.23202046039577173,0.11601998918173782
30.015,29.96,2.57,0.12769739039486913,0.11746928482502694,0.1241723407761842,0.1363823929065192,0.23227658114853283,0.11604800475574169
30.055,30.02,2.56,0.12706557938409252,0.11753526772541666,0.12426040799542555,0.13672804784075168,0.23257642505738396,0.11607702851321136
30.117,30.07,2.41,0.12643954786867362,0.1176008804267799,0.12437379160728257,0.13706964129871746,0.23292108535962391,0.11610709724931155
30.158,30.13,2.48,0.125819965327084,0.1176660775893368,0.12451300053642146,0.1374069949591238,0.2333116632642414,0.11613824817904664
30.261,30.18,2.53,0.12520751184683274,0.11773081387623463,0.12467854076112236,0.13773993157292452,0.23374926698783108,0.11617051887271769
30.282,30.24,2.41,0.12460287756395211,0.11779504397688885,0.1248709148693332,0.13806827501584165,0.23423501076334421,0.11620394718955163
30.344,30.29,2.39,0.12400676208403057,0.11785872262957202,0.12509062160809728,0.13839185034166537,0.23477001382280605,0.11623857120959172
30.384,30.35,2.49,0.12341987388535014,0.11792180464323895,0.12533815542693758,0.1387104838363095,0.2353553993551474,0.11627442916394899
30.445,30.4,2.41,0.12284292970465065,0.11798424491859862,0.1256140060157673,0.13902400307259785,0.23599229344031603,0.11631155936351605
30.507,30.46,2.3,0.12227665390602314,0.11804599846844814,0.12591865783790754,0.13933223696572022,0.23668182396084012,0.11635000012624303
30.548,30.51,2.42,0.12172177783343045,0.11810702043727847,0.12625258965882735,0.13963501582924118,0.23742511949202383,0.11638978970307144
30.63,30.57,2.44,0.12117903914738026,0.1181672661201454,0.12661627407128773,0.13993217143147935,0.2382233081719607,0.11643096620262089
30.65,30.62,2.29,0.12064918114632743,0.11822669098078445,0.1270101770176689,0.14022353705201263,0.23907751655254955,0.1164735675147289
30.711,30.68,2.39,0.12013295207343387,0.11828525066894377,0.12743475731036197,0.14050894753802443,0.23998886843269993,0.11651763123295558
30.793,30.73,2.46,0.11963110440935312,0.11834290103691875,0.12789046615117294,0.1407882393602096,0.240958483674936,0.11656319457617606
30.815,30.79,2.33,0.11914439415172814,0.11839959815529162,0.12837774665066704,0.14106125066803224,0.2419874770066333,0.11661029430939611
30.877,30.84,2.33,0.1186735800820879,0.11845529832790405,0.128897033348214,0.14132782134429533,0.24307695680715066,0.1166589666639351
30.918,30.9,2.44,0.11821942302080868,0.11850995810611674,0.12944875173324275,0.14158779305919064,0.24422802388215165,0.11670924725712543
30.981,30.95,2.35,0.117782685070799,0.11856353430242395,0.13003331776801172,0.14184100932414595,0.24544177022643662,0.11676117101167556
31.043,31.01,2.23,0.11736412885057776,0.11861598400349008,0.13065113741211046,0.14208731554582452,0.2467192777766175,0.11681477207484019
31.104,31.06,2.38,0.11696451671743342,0.11866726458266634,0.13130260614889758,0.14232655908059622,0.24806161715497776,0.1168700837375325
31.166,31.12,2.38,0.11658460998138924,0.11871733371202797,0.1319881085141045,0.1425585892897418,0.24946984640586012,0.11692713835350675
31.227,31.17,2.19,0.11622516811073678,0.11876614937395778,0.13270801762686055,0.14278325759560026,0.2509450097259083,0.11698596725873354
31.288,31.23,2.25,0.11588694792992053,0.11881366987229909,0.13346269472340191,0.1430004175388436,0.2524881361894738,0.11704660069108967
31.35,31.28,2.31,0.11557070281055812,0.11885985384311466,0.1342524886937448,0.14320992483705558,0.254100238470488,0.11710906771048216
31.37,31.34,2.2,0.11527718185636904,0.11890466026510875,0.13507773562163514,0.1434116374447862,0.2557823115620716,0.11717339611953137
31.411,31.39,2.18,0.11500712908275221,0.11894804846979597,0.13593875832809996,0.14360541561525522,0.2575353314951099,0.11723961238494737
31.471,31.45,2.29,0.1147612825917086,0.11898997815152515,0.1368358659188993,0.14379112196388746,0.2593602540569836,0.11730774155973969
31.532,31.5,2.2,0.11454037374278142,0.11903040937747734,0.13776935333615145,0.1439686215338511,0.2612580135116127,0.11737780720640233
31.593,31.56,2.06,0.11434512632069595,0.11906930259774869,0.13873950091439652,0.14413778186373236,0.2632295213219432,0.11744983132120868
31.655,31.61,2.13,0.11417625570041808,0.11910661865560752,0.1397465739413673,0.14429847305742413,0.2652756648759706,0.11752383425974386
31.716,31.67,2.13,0.11403446801040226,0.11914231879798662,0.1407908222237634,0.1444505678562416,0.2673973062173465,0.11759983466379126
31.757,31.72,1.98,0.11392045929484414,0.11917636468624605,0.1418724796583602,0.14459394171321618,0.2695952807815302,0.1176778493896881
31.799,31.78,2.08,0.11383491467576826,0.1192087184072309,0.1429917638088166,0.14472847286946985,0.27187039613834385,0.11775789343826536
31.86,31.83,2.18,0.11377850751577802,0.11923934248464778,0.14414887548856395,0.1448540424325392,0.27422343074168953,0.11783997988649163
31.922,31.89,2.13,0.11375189858228686,0.11926819989078999,0.14534399835016953,0.14497053445649646,0.27665513268710484,0.11792411982094364
31.984,31.94,2.2,0.11375573521404443,0.11929525405864767,0.1465772984815394,0.14507783602371338,0.2791662184777802,0.11801032227322512
32.045,32.0,2.38,0.11379065049078022,0.11932046889444427,0.14784892400927513,0.14517583732812114,0.28175737179966504,0.11809859415744953
32.13,32.05,2.4,0.11385726240683276,0.11934380879062778,0.14915900470946694,0.14526443175980383,0.28442924230633815,0.11818894020988785
32.149,32.11,2.32,0.11395617304970826,0.11936523863932144,0.15050765162621615,0.14534351599071238,0.2871824444144097,0.11828136293086823
32.191,32.16,2.47,0.1140879677845993,0.11938472384620377,0.1518949566982175,0.14541299006121639,0.29001755611033336,0.11837586252900234
32.253,32.22,2.52,0.11425321444599187,0.11940223034475302,0.15332099239378985,0.1454727574671402,0.2929351177696354,0.1184724368678053
32.294,32.27,2.39,0.11445246253757636,0.11941772461076218,0.15478581135480932,0.14552272524688345,0.29593563098966286,0.118571081414775
32.354,32.33,2.52,0.11468624244173284,0.11943117367701826,0.15628944605005726,0.14556280406821043,0.2990195574370304,0.11867178919300017
32.458,32.38,2.64,0.11495506463987669,0.11944254514804485,0.1578319084385493,0.145592908314314,0.3021873177110059,0.11877455073536951
32.48,32.44,2.56,0.11525941894493583,0.11945180721482458,0.1594131896434374,0.14561295616881295,0.3054392902241313,0.1188793540414563
32.54,32.49,2.59,0.11559977374718235,0.11945892866944664,0.16103325963703133,0.145622869699437,0.30877581010143085,0.11898618453715444
32.581,32.55,2.74,0.1159765752745843,0.11946387891965266,0.16269206693738994,0.14562257494026512,0.3121971680996275,0.11909502503713647
32.623,32.6,2.69,0.11639024686880993,0.11946662800326913,0.1643895383168816,0.14561200197244326,0.31570360954787013,0.1192058557101958
32.685,32.66,2.6,0.11684118827801873,0.119467146602511,0.16612557852313736,0.14559108500329787,0.31929533331154525,0.1193186540475229
32.746,32.71,2.71,0.11732977496759596,0.1194654060581255,0.16790007001289253,0.145559762443709,0.3229724907808157,0.11943339483395336
32.829,32.77,2.74,0.11785635745002893,0.11946137838332618,0.1697128726993145,0.14551797698353172,0.3267351848855825,0.11955005012221687
32.849,32.82,2.58,0.1184212606351543,0.11945503627744952,0.17156382371352347,0.1454656756647914,0.3305834691385939,0.11966858921021213
32.91,32.88,2.67,0.11902478320199845,0.11944635313926452,0.1734527371811009,0.14540280995232915,0.33451734670841893,0.11978897862133574
32.971,32.93,2.77,0.1196671969933869,0.11943530307987701,0.17537940401443466,0.14532933580155852,0.3385367695239988,0.11991118208789568
33.033,32.99,2.67,0.12034874643443132,0.11942186093519143,0.17734359172175918,0.14524521372301152,0.3426416374124614,0.12003516053764383
33.096,33.04,2.67,0.12106964797591317,0.1194060022779229,0.17934504423368083,0.1451504088434087,0.34683179727186864,0.12016087208346483
33.22,33.1,2.82,0.12183008956348619,0.11938770342918098,0.18138348174784627,0.14504489096306603,0.3511070422805557,0.120288272016258
33.241,33.15,2.78,0.12263023013354,0.1193669414696644,0.18345860059228786,0.14492863460950403,0.3554671111447295,0.12041731280104505
33.262,33.21,2.66,0.1234701991365206,0.119343694250508,0.1855700731079013,0.144801619087131,0.35991168738599255,0.12054794407633053
33.283,33.26,2.76,0.1243500960884831,0.11931794040381402,0.1877175475504844,0.1446638285228417,0.36444039867046873,0.12068011265673446
33.366,33.32,2.8,0.12526999015166615,0.11928965935288294,0.18990064801279213,0.14451525190732908,0.36905281618120456,0.12081376253891107
33.406,33.37,2.61,0.12622991974490097,0.1192588313221421,0.19211897436711406,0.14435588313186865,0.37374845403549334,0.12094883491076759
33.448,33.43,2.69,0.12722989218467964,0.11922543734676092,0.1943721022289149,0.14418572102032823,0.3785267687487168,0.12108526816400172
33.55,33.48,2.78,0.12826988335770018,0.11918945928194039,0.19665958294210162,0.1440047693561792,0.38338715874623086,0.12122299790998328
33.57,33.54,2.68,0.12934983742568135,0.11915087981187002,0.19898094358646903,0.14381303690433547,0.3883289639247443,0.12136195699900995
33.611,33.59,2.71,0.1304696665631873,0.11910968245835517,0.20133568700779342,0.1436105374277337,0.393351465264556,0.121502075542969
33.673,33.65,2.83,0.131629250729131,0.11906585158913073,0.2037232918708875,0.14339728969867363,0.3984538844939458,0.1216432809414329
33.735,33.7,2.82,0.13282843747256753,0.11901937242587776,0.20614321273578293,0.14317331750500698,0.4036353838069683,0.1217854979112052
33.797,33.76,2.7,0.13406704177334436,0.11897023105195038,0.20859488015710947,0.14293864965127137,0.40889506563585853,0.12192864851932088
33.858,33.81,2.79,0.13534484591814783,0.11891841441980242,0.21107770080669938,0.14269331995483572,0.41423197247923277,0.12207265221949144
33.92,33.87,2.8,0.13666159941247571,0.11886391035808305,0.2135910576194565,0.14243736723707215,0.41964508678723517,0.12221742589197714
33.941,33.92,2.64,0.13801701892907273,0.11880670757834715,0.216134309962575,0.1421708353095252,0.4251333309047213,0.12236288388686742
34.003,33.98,2.72,0.13941078829335818,0.11874679568131255,0.21870679382822175,0.14189377295502745,0.4306955670734713,0.12250893807075777
34.064,34.03,2.81,0.14084255850633354,0.11868416516259625,0.22130782204980054,0.14160623390372623,0.436330597494312,0.12265549787681881
34.125,34.09,2.71,0.14231194780538567,0.1186188074178724,0.22393668454187637,0.14130827680402358,0.44203716444989555,0.12280247035826075
34.167,34.14,2.73,0.14381854176328993,0.11855071474741623,0.22659264856374065,0.14099996518850194,0.4478139504887506,0.12294976024519794
34.229,34.2,2.89,0.14536189342558706,0.11847988036001962,0.2292749590064402,0.14068136743498189,0.45365957867111545,0.12309727000491141
34.311,34.25,2.91,0.1469415234864018,0.11840629837627158,0.23198283870295391,0.14035255672290567,0.4595726128769672,0.12324489990549249
34.352,34.31,2.83,0.14855692050269714,0.11832996383118904,0.23471548876109616,0.1400136109852426,0.46555155817658916,0.12339254808283165
34.395,34.36,2.92,0.15020754114691473,0.1182508726761679,0.2374720889186553,0.13966461285608875,0.47159486126396893,0.1235401106108976
34.454,34.42,2.97,0.15189281049792996,0.11816902178020766,0.2402517979202405,0.13930564961410768,0.47770091095329154,0.123687481575234
34.496,34.47,2.79,0.1536121223702388,0.11808440893034901,0.24305375391529516,0.13893681312193923,0.4838680387387421,0.12383455314959185
34.558,34.53,2.86,0.15536483968125683,0.11799703283126323,0.2458770748767233,0.13855819976170794,0.49009451941775567,0.12398121567561435
34.682,34.58,2.94,0.15715029485654844,0.11790689310394227,0.24872085903958366,0.1381699103667744,0.49637857177774,0.12412735774549354
34.702,34.64,2.85,0.15896779027271496,0.11781399028345725,0.2515841853593704,0.1377720501498663,0.5027183593461547,0.12427286628752333
34.722,34.69,2.87,0.16081659873755988,0.1177183258157756,0.25446611398951285,0.13736472862769503,0.5091119912036628,0.1244176266544778
34.783,34.75,3.05,0.16269596400702013,0.11761990205364797,0.2573656867778235,0.13694805954211742,0.5155575228599144,0.12456152271474182
34.846,34.8,3.08,0.1646051013382463,0.11751872225158093,0.26028192778166626,0.13652216077785329,0.52205295719139,0.12470443694611164
34.888,34.86,3.02,0.16654319807812695,0.11741479055990481,0.26321384380158913,0.13608715427672133,0.5285962454406103,0.12484625053216977
34.949,34.91,3.16,0.1685094142864866,0.11730811201793498,0.26616042493309255,0.1356431659483224,0.535185288275952,0.12498684346112339
35.032,34.97,3.25,0.17050288339314207,0.11719869254621423,0.2691206451361565,0.1351903255770795,0.5418179369112629,0.12512609462698318
35.052,35.02,3.12,0.17252271288798218,0.11708653893781656,0.2720934628221104,0.1347287667255506,0.5484919942844332,0.1252638819329538
35.135,35.08,3.19,0.17456798504321866,0.11697165884869157,0.27507782145738113,0.134258626633982,0.5552052162940296,0.1254000823969079
35.156,35.13,3.32,0.17663775766693496,0.11685406078703424,0.27807265018359967,0.13378004611614858,0.5619553130930326,0.1255345722588207
35.239,35.19,3.25,0.17873106488702808,0.11673375410167429,0.2810768644535164,0.13329316945159325,0.5687399504386302,0.1256672270900467
35.3,35.24,3.26,0.18084691796457572,0.11661074896949157,0.28408936668213647,0.13279814427442072,0.5755567510969134,0.1257979219043251
35.341,35.3,3.44,0.18298430613557026,0.11648505638187928,0.2871090469124098,0.13229512145883185,0.5824032963012064,0.12592653127039863
35.403,35.35,3.47,0.1851421974798768,0.11635668813027776,0.2901347834947218,0.13178425500159754,0.5892771272626626,0.12605292942612165
35.445,35.41,3.42,0.1873195398162027,0.11622565679079239,0.29316544377935877,0.1312657019016586,0.596175746731666,0.1261769903939204
35.507,35.46,3.62,0.18951526162181656,0.11609197570789524,0.29619988482107845,0.13073962203701753,0.6030966206085004,0.12629858809745884
35.568,35.52,3.74,0.19172827297573536,0.11595565897719931,0.29923695409494155,0.13020617803906237,0.6100371796017072,0.12641759647935297
35.63,35.57,3.63,0.19395746652410928,0.11581672142729015,0.30227549022261174,0.1296655351644544,0.6169948209325132,0.1265338896197767
35.65,35.63,3.72,0.19620171846655024,0.1156751786006064,0.30531432370837613,0.12911786116474003,0.6239669100836925,0.12664734185580223
35.772,35.68,3.86,0.19845988956214697,0.11553104673337776,0.30835227768415846,0.12856332615390442,0.6309507825912146,0.12675782790132012
35.792,35.74,3.79,0.20073082615389065,0.11538434273464726,0.31138816866281166,0.1280021024741448,0.6379437458770061,0.12686522296738717
35.813,35.79,3.8,0.2030133612101896,0.11523508416442543,0.3144208072989511,0.12743436456019688,0.6449430811211,0.1269694028828507
35.876,35.85,4.0,0.20530631538208735,0.11508328921103954,0.317448999156498,0.12686028880260308,0.6519460451713749,0.12707024421509774
35.958,35.9,3.99,0.2076084980747435,0.11492897666774647,0.3204715454820048,0.12628005341033374,0.658949872489008,0.12716762439077087
35.979,35.96,3.92,0.20991870853169187,0.11477216590867127,0.32348724398274975,0.12569383827316893,0.665951777127687,0.12726142181628677
36.04,36.01,4.13,0.21223573693035178,0.11461287686412715,0.32649488960852346,0.12510182482423032,0.6729489547445486,0.12735151599798786
36.141,36.07,4.28,0.21455836548724494,0.11445112999537055,0.32949327533601985,0.1245041959030296,0.679938584640751,0.12743778766175465
36.162,36.12,4.17,0.21688536957137203,0.11428694626884515,0.3324811929548144,0.1239011356193543,0.6869178318295311,0.1275201188719111
36.203,36.18,4.27,0.2192155188242186,0.11412034712997038,0.33545743385408694,0.12329282921823528,0.6938838491295545,0.1275983931492648
36.263,36.23,4.44,0.2215475782849032,0.1139513544765322,0.3384207898095101,0.12267946294614192,0.7008337792813639,0.12767249558813246
36.324,36.29,4.41,0.22388030951901913,0.11377999063173329,0.341370053769988,0.1220612239184679,0.7077647570847232,0.127742312972211
36.365,36.34,4.4,0.2262124717497539,0.11360627831696098,0.3443040206440754,0.12143829998833393,0.7146739115546262,0.12780773388916503
36.426,36.4,4.59,0.22854282298987094,0.11343024062433256,0.3472214880858892,0.12081087961674236,0.7215583680937041,0.1278686488438049
36.509,36.45,4.66,0.23087012117314182,0.11325190098907018,0.350121257280245,0.120179151744131,0.7284152506787298,0.12792495036973026
36.528,36.51,4.6,0.23319312528380987,0.11307128316174819,0.3530021337266499,0.11954330566337647,0.73524168405888,0.12797653313930785
36.589,36.56,4.8,0.23551059648265205,0.11288841118044957,0.3558629280217001,0.11890353089430754,0.7420347959633805,0.12802329407184976
36.651,36.62,4.93,0.2378212992281806,0.11270330934287517,0.35870245663938377,0.11826001705981151,0.7487917193161455,0.12806513243985326
36.711,36.67,4.82,0.24012400239151258,0.1125160021784649,0.36151954270878695,0.11761295376365002,0.7555095944550216,0.12810194997316451
36.752,36.73,4.92,0.24241748036341704,0.11232651442061406,0.36431301678872163,0.11696253047014829,0.7621855713532516,0.12813365096093335
36.813,36.78,5.13,0.2447005141520467,0.11213487097909368,0.36708171763883213,0.11630893638597141,0.7688168118407859,0.12816014235123538
36.874,36.84,5.09,0.2469718924698859,0.11194109691279569,0.3698244929868043,0.11565236034422409,0.775400491823075,0.1281813338482473
36.98,36.89,5.09,0.24923041280849373,0.11174521740292345,0.3725402002913572,0.11499299069110266,0.7819338034949537,0.12819713800687232
37.001,36.95,5.24,0.25147488249967376,0.11154725772673585,0.37522770750070034,0.11433101517530223,0.7884139575472273,0.12820747032471594
37.042,37.0,5.33,0.25370411976175716,0.11134724323193491,0.377885893806132,0.11366662084034146,0.7948381853635733,0.12821224933131076
37.103,37.06,5.24,0.2559169547297228,0.11114519931177047,0.3805136503904372,0.11299999391991974,0.8012037412053515,0.12821139667448844
37.163,37.11,5.44,0.2581122304678817,0.11094115138092898,0.3831098811707318,0.11233131973637728,0.8075079043819033,0.12820483720379705
37.266,37.17,5.6,0.2602888039638512,0.11073512485227925,0.3856735035354045,0.111660782602304,0.8137479814039005,0.12819249905086472
37.286,37.22,5.54,0.2624455471025416,0.11052714511455893,0.3882034490748252,0.11098856572534396,0.819921308117301,0.1281743137066152
37.308,37.28,5.65,0.26458134761888996,0.11031723751110188,0.3906986643054877,0.11031485111628264,0.8260252518154785,0.12815021609524924
37.368,37.33,5.87,0.2666951100281035,0.11010542731972077,0.393158111387253,0.10963981950056036,0.8320572133271387,0.12812014464491414
37.431,37.39,5.85,0.2687857565322468,0.10989173973386257,0.3955807688333946,0.10896365023338918,0.8380146290776889,0.1280840413549916
37.491,37.44,5.86,0.27085222790208874,0.10967619984514466,0.39796563221318776,0.10828652121864997,0.8438949731217954,0.12804185185994182
37.533,37.5,6.01,0.2728934843332228,0.10945883262736031,0.40031171484679107,0.1076086088317259,0.8496957591449263,0.12799352548964368
37.593,37.55,6.05,0.2749085062755719,0.10923966292201572,0.40261804849214194,0.10693008784640423,0.8554145424317554,0.1279390153261699
37.677,37.61,5.98,0.27689629523549186,0.10901871542543635,0.40488368402353925,0.10625113136595554,0.8610489217993447,0.12787827825693668
37.698,37.66,6.17,0.278855874549767,0.10879601467746199,0.4071076921015381,0.10557191075849566,0.8665965414930454,0.12781127502417117
37.781,37.72,6.37,0.2807862901308442,0.10857158505174348,0.4092891638337923,0.10489259559673064,0.8720550930430646,0.12773797027064948
37.823,37.77,6.32,0.2826866111826878,0.10834545074765252,0.4114272114265474,0.10421335360216115,0.8774223170796548,0.12765833258166617
37.864,37.83,6.44,0.28455593088666536,0.10811763578381357,0.4135209688265268,0.10353435059377415,0.8826960051049292,0.12757233452320313
37.904,37.88,6.68,0.2863933670569283,0.10788816399326147,0.41556959235290813,0.1028557504411909,0.8878740012193945,0.12747995267627052
37.966,37.94,6.65,0.28819806276483684,0.10765705902021291,0.4175722613189736,0.10217771502217608,0.8929542038014189,0.12738116766738847
38.027,37.99,6.63,0.28996918693207047,0.1074243443184244,0.41952817864292513,0.10150040418435746,0.8979345671379829,0.12727596419517592
38.089,38.05,6.79,0.2917059348921444,0.10719004315109519,0.421436571447308,0.1008239757109631,0.9028131030052049,0.1271643310530048
38.15,38.1,6.85,0.29340752892012373,0.1069541785922587,0.42329669164649447,0.10014858529035071,0.9075878821972405,0.12704626114767184
38.21,38.16,6.56,0.29507321873037945,0.10671677352959281,0.42510781652167795,0.09947438648908388,0.9122570360022507,0.1269217515140413
38.251,38.21,6.72,0.2967022819422616,0.1064778506685719,0.42686924928283665,0.09880153072831091,0.9168187576241633,0.12679080332562348
38.394,38.27,6.88,0.2982940245135712,0.10623743253788769,0.4285803196171622,0.09813016726321173,0.9212713035489447,0.1266534219010799
38.415,38.32,6.85,0.2998477811417169,0.10599554149607807,0.4302403842234932,0.09746044316530272,0.9256129948540377,0.1265096167066804
38.435,38.38,6.92,0.30136291563243267,0.10575219973932291,0.431848827332237,0.0967925033074395,0.9298422184595402,0.12635940135477877
38.456,38.43,7.11,0.3028388212359378,0.10550742931038821,0.43340506121007716,0.09612649035143253,0.9339574283196702,0.12620279359839762
38.517,38.49,7.07,0.3042749209504639,0.10526125210870994,0.4349085266485419,0.09546254473824159,0.9379571465531056,0.1260398153220233
38.558,38.54,7.08,0.30567066779315194,0.105013689901606,0.43635869343536027,0.09480080468072188,0.9418399645108743,0.1258704925287076
38.621,38.6,7.25,0.3070255450384114,0.1047647643365893,0.4377550608075059,0.09414140615886603,0.9456045437805489,0.12569485532356992
38.702,38.65,7.32,0.3083390664239278,0.10451449695473271,0.43909715788488046,0.0934844829174402,0.9492496171255883,0.12551293789379075
38.742,38.71,7.21,0.3096107763245706,0.10426290920501934,0.4403845440836774,0.09283016646587512,0.9527739893587398,0.12532477848519186
38.782,38.76,7.37,0.3108402498944776,0.10401002245960442,0.44161680950861704,0.09217858608025241,0.9561765381484825,0.12513041937550365
38.843,38.82,7.49,0.31202709317758387,0.10375585802992467,0.442793575323509,0.0915298688072067,0.9594562147575645,0.12492990684442681
38.904,38.87,7.44,0.3131709431868556,0.10350043718360198,0.4439144940999412,0.09088413946953484,0.9626120447127513,0.12472329114060153
38.965,38.93,7.68,0.3142714679524757,0.10324378116210547,0.4449792501440936,0.0902415206732883,0.9656431284049666,0.12451062644560365
39.027,38.98,7.87,0.3153283665392363,0.1029859111991474,0.4459875598016485,0.08960213281613456,0.968548641619086,0.12429197083508686
39.089,39.04,7.84,0.31634136903343274,0.10272684853979208,0.44693917174061054,0.08896609409678373,0.971327835992785,0.12406738623718422
39.15,39.09,7.79,0.3173102364996024,0.10246661446025046,0.4478338672117198,0.08833352052526879,0.9739800394040298,0.12383693838827184
39.17,39.15,8.04,0.3182347609075192,0.10220523028831989,0.4486714602861154,0.08770452593384441,0.9765046562870262,0.12360069678618447
39.232,39.2,8.11,0.31911476502993014,0.10194271742440723,0.44945179806994795,0.08707922198823465,0.9789011678766506,0.12335873464096143
39.292,39.26,7.94,0.31995010231158677,0.10167909736305664,0.45017476089567476,0.08645771819893576,0.9811691323815519,0.12311112882319393
39.353,39.31,8.06,0.32074065671016755,0.10141439171489382,0.4508402624896781,0.08584012193229401,0.9833081850862633,0.12285795981003884
39.435,39.37,8.15,0.3214863425097144,0.1011486222289053,0.45144825011563905,0.08522653842113671,0.985318038382799,0.12259931162895696
39.456,39.42,8.06,0.32218710410721674,0.10088181081498226,0.4519987046928195,0.08461707077482855,0.9871984817323172,0.12233527179923223
39.515,39.48,8.1,0.3228429157729783,0.10061397956667602,0.4524916408881638,0.08401181998874628,0.988949381557502,0.1220659312713321
39.557,39.53,8.29,0.3234537813854063,0.10034515078412694,0.4529271071810229,0.08341088495328114,0.9905706810663688,0.12179138436417018
39.619,39.59,8.22,0.32401973414088003,0.10007534699713344,0.453305185899338,0.08281436246254009,0.9920624000082655,0.12151172870032864
39.681,39.64,8.14,0.32454083623939334,0.09980459098832116,0.4536259932262239,0.08222234722291565,0.993424634362924,0.1212270651392896
39.741,39.7,8.26,0.32501717854670276,0.09953290581635815,0.4538896791760028,0.0816349318616524,0.9946575559635055,0.1209374977087158
39.803,39.75,8.3,0.32544888023376767,0.09926031483914044,0.4540964275388782,0.08105220693548357,0.9957614120546738,0.12064313353381581
39.865,39.81,8.17,0.325836088394311,0.09898684173685614,0.45424645579359446,0.08047426093936651,0.9967365247867973,0.12034408276483195
39.906,39.86,8.28,0.3261789776413421,0.09871251053483518,0.454340014987577,0.07990118031533193,0.9975832906474126,0.1200404585026994
39.967,39.92,8.36,0.3264777496834818,0.09843734562610472,0.4543773895842216,0.07933304946146438,0.9983021798311382,0.11973237672293573
40.03,39.97,8.25,0.32673263288192955,0.09816137179358579,0.45435889727721135,0.07876995074102955,0.9988937355492643,0.11941995619782904
40.072,40.03,8.24,0.3269438817889101,0.097884614231884,0.4542848887719381,0.07821196449176365,0.9993585732802927,0.11910331841699713
40.176,40.08,8.37,0.3271117766684298,0.09760709856863815,0.45415574753425075,0.07765916903534213,0.9996973799627525,0.11878258750638762
40.197,40.14,8.31,0.3272366230001742,0.0973288508853931,0.4539718895068834,0.07711164068703194,0.9999109131316575,0.11845789014578033
40.239,40.19,8.24,0.3273187509673911,0.0970498977379525,0.4537337627940053,0.07656945376549934,1.0,0.1181293554848445
40.28,40.25,8.37,0.32735851492961265,0.09677026617615349,0.45344184731438425,0.07603268060270255,0.9999655364867069,0.11779711505779467
40.321,40.3,8.42,0.3273562928811003,0.09648998376298791,0.4530966544236925,0.07550139155375704,0.9998084861925237,0.11746130269668537
40.402,40.36,8.28,0.32731248589592477,0.09620907859297848,0.4526987265065091,0.07497565500663418,0.999529879325323,0.11712205444338732
40.465,40.41,8.39,0.3272275175606089,0.09592757930971478,0.45224863653858455,0.07445553739156442,0.9991308115763902,0.1167795084602953
40.527,40.47,8.45,0.3271018333952589,0.09564551512246228,0.4517469876199488,0.07394110319006496,0.9986124429492902,0.1164338049398275
40.547,40.52,8.26,0.3269359002640909,0.09536291582177543,0.4511944124794604,0.07343241494358306,0.9979759965429876,0.11608508601278535
40.608,40.58,8.25,0.3267302057762267,0.09507981179406946,0.4505915729513794,0.07292953326183392,0.9972227572909318,0.11573349565565122
40.67,40.63,8.37,0.3264852576775902,0.09479623403512945,0.4499391594244991,0.07243251683099367,0.9963540706578475,0.11537917959690462
40.712,40.69,8.28,0.32620158323469134,0.0945122141625553,0.4492378902643428,0.0719414224219486,0.9953713412959693,0.11502228522243647
40.772,40.74,8.21,0.3258797286110249,0.09422778442715968,0.4484885112089258,0.07145630489879612,0.9942760316624287,0.11466296148013683
40.833,40.8,8.32,0.3255202582367437,0.09394297772335197,0.4476917947385695,0.07097721722776286,0.9930696605994829,0.11430135878372617
40.935,40.85,8.37,0.3251237541722317,0.09365782759854713,0.44684853942025377,0.07050421048666919,0.991753801879265,0.11393762891589644
40.955,40.91,8.22,0.3246908154661935,0.09337236826163409,0.44595956922701,0.07003733387503444,0.9903300827147463,0.1135719249308315
40.996,40.96,8.34,0.3242220575088835,0.09308663459053777,0.4450257328329141,0.0695766347248984,0.9888001822386157,0.11320440105618544
41.057,41.02,8.42,0.32371811138109796,0.09280066213891651,0.44404790288434515,0.06912215851242696,0.9871658299518185,0.11283521259460735
41.099,41.07,8.31,0.3231796231995472,0.09251448714205077,0.4430269752483242,0.06867394887036708,0.9854288041435538,0.11246451582490892
41.161,41.13,8.32,0.32260725345920344,0.09222814652199839,0.4419638682388482,0.0682320476014273,0.9835909302845779,0.11209246790297624
41.222,41.18,8.41,0.32200167637319194,0.09194167789210804,0.44085952182217664,0.06779649469267615,0.981654079395729,0.1117192267625227
41.283,41.24,8.27,0.32136357921076836,0.09165511956098558,0.4397148968020389,0.06736732833105093,0.9796201663936592,0.11134495101576913
41.36,41.29,8.18,0.3206936616339172,0.09136851053599658,0.4385309739857247,0.06694458492004779,0.977491148415801,0.11096979985411862
41.398,41.35,8.29,0.31999263503309805,0.09108189052636577,0.4373087533319996,0.06652829909763462,0.975269023126626,0.11059393294887686
41.44,41.4,8.3,0.31926122186268513,0.09079529994590381,0.4360492530817947,0.06611850375539047,0.9729558270072437,0.11021751035205457
41.52,41.46,8.13,0.31850015497669104,0.09050877991535757,0.43475350887268227,0.06571523005882901,0.9705536336303585,0.10984069239728413
41.541,41.51,8.2,0.317710176965405,0.09022237226435377,0.43342257283824775,0.06531850746882163,0.9680645519225837,0.10946363960088537
41.601,41.57,8.25,0.31689203949360567,0.08993611953289345,0.43205751269361786,0.06492836376400005,0.9654907244161032,0.10908651256312075
41.642,41.62,8.12,0.3160465026410027,0.08965006497235421,0.43065941080855985,0.06454482506399985,0.9628343254916765,0.10870947186968924
41.723,41.68,8.08,0.3151743342455228,0.08936425254596907,0.4292293632696533,0.06416791585341514,0.9600975596149685,0.10833267799351831
41.785,41.73,8.16,0.31427630924999456,0.08907872692876549,0.42776847893302455,0.06379765900636855,0.9572826595681924,0.10795629119692009
41.826,41.79,8.04,0.31335320905273634,0.08879353350695568,0.42627787846907333,0.06343407581162924,0.9543918846790337,0.10758047143417714
41.887,41.84,7.92,0.3124058208625186,0.08850871837676204,0.42475869340054623,0.0630771859982189,0.9514275190488097,0.10720537825461837
41.949,41.9,7.94,0.3114349370583571,0.08822432834264746,0.42321206513526705,0.06272700776143349,0.9483918697817739,0.10683117070623677
42.01,41.95,7.95,0.3104413545545958,0.08794041091489668,0.4216391439948275,0.062383557789183065,0.9452872652174217,0.10645800723989286
42.03,42.01,7.75,0.30942587417175144,0.08765701430647559,0.42004108824058295,0.06204685128852491,0.9421160531675713,0.10608604561414736
42.092,42.06,7.8,0.3083893000136132,0.08737418742908375,0.4184190630983621,0.061716902012248456,0.9388805991598947,0.10571544280077498
42.174,42.12,7.86,0.3073324388511065,0.08709197988831803,0.41677423978338685,0.06139372228537112,0.9355832846894819,0.10534635489102409
42.194,42.17,7.71,0.30625609951343163,0.0868104419778778,0.41510779452698165,0.061077323031414506,0.9322265054799332,0.10497893700270258
42.256,42.23,7.68,0.30516109228694593,0.08652962467276593,0.4134209076066611,0.060767713798365194,0.9288126697554008,0.10461334318818082
42.4,42.28,7.76,0.30404822832219186,0.08624957962146666,0.41171476238110183,0.06046490278427334,0.9253441965249379,0.10424972634340736
42.422,42.34,7.63,0.30291831904941324,0.08597035913709322,0.4099905443313898,0.06016889686247637,0.9218235138804779,0.1038882381180277
42.442,42.39,7.43,0.30177217560287,0.08569201618749236,0.40824944010982045,0.05987970160643754,0.9182530573097032,0.10352902882668755
42.484,42.45,7.49,0.30061060825424196,0.08541460438427531,0.4064926365974355,0.05959732131416978,0.9146352680250069,0.10317224736158988
42.526,42.5,7.47,0.29943442585541513,0.08513817797071994,0.40472131997143035,0.05932175903218017,0.9109725913096526,0.10281804110636603
42.587,42.56,7.3,0.2982444352909513,0.08486279180846977,0.40293667478355044,0.05905301657883301,0.9072674748820968,0.10246655585131803
42.648,42.61,7.35,0.2970414409405313,0.08458850136294684,0.401139883050591,0.058791094567006735,0.9035223672792917,0.10211793571009475
42.731,42.67,7.43,0.2958262441516369,0.08431536268740292,0.39933212335809604,0.05853599242591937,0.8997397162596408,0.10177232303787045
42.752,42.72,7.29,0.2945996427226951,0.08404343240554919,0.3975145699782993,0.05828770842202268,0.8959219672261752,0.10142985835110165
42.814,42.78,7.24,0.2933624303968441,0.08377276769273047,0.3956883920032432,0.058046239678922466,0.8920715616704282,0.10109068024894462
42.856,42.83,7.35,0.2921153963663924,0.08350342625563677,0.39385475249385604,0.05781158219635632,0.8881909356374305,0.10075492533641532
42.918,42.89,7.29,0.2908593247879717,0.08323546631056189,0.392014807645623,0.0575837308683067,0.8842825182122024,0.10042272814936955
42.979,42.94,7.14,0.28959499430833274,0.08296894656021826,0.3901697059713797,0.05736267950033095,0.8803487300280636,0.10009422108137013
43.041,43.0,7.22,0.288323177600703,0.0827039261691061,0.38832058750166726,0.057148420826161894,0.8763919817970327,0.09976953431249695
43.123,43.05,7.23,0.2870446409116194,0.08244046473741691,0.3864685830030343,0.05694094652359189,0.8724146728625557,0.0994487957401405
43.144,43.11,7.05,0.28576014361814966,0.08217862227343302,0.3846148132146389,0.05674024722961132,0.8684191897747308,0.0991321309118098
43.185,43.16,7.08,0.2844704377954077,0.08191845916437773,0.3827603881034848,0.05654631255474458,0.8644079048881368,0.09881966295997896
43.247,43.22,7.19,0.2831762677942492,0.08166003614567717,0.38090640613860804,0.05635913109651692,0.8603831749823035,0.0985115125389947
43.308,43.27,7.08,0.28187836982900727,0.08140341426860999,0.3790539535845028,0.05617869045199259,0.8563473399047948,0.09820779776406742
43.369,43.33,7.06,0.2805774715750877,0.08114865486634569,0.3772041038139954,0.05600497722935546,0.8523027212368133,0.09790863415237118
43.492,43.38,7.2,0.27927429177620094,0.08089581951839904,0.37535791664063173,0.05583797705854867,0.8482516209812092,0.09761413456627752
43.512,43.44,7.17,0.2779695398609799,0.08064497001354307,0.3735164376705042,0.05567767460101949,0.8441963202727686,0.09732440915873984
43.532,43.49,7.01,0.2766639155687401,0.0803961683112236,0.3716806976733292,0.05552405355861615,0.8401390781106747,0.09703956532083423
43.573,43.55,7.06,0.2753581085841749,0.08014947650150848,0.3698517119725048,0.05537709668167252,0.8360821301130659,0.09675970763144887
43.635,43.6,7.08,0.27405279818085027,0.07990495676358825,0.36803047985383275,0.05523678577630333,0.8320276872936376,0.09648493780909981
43.695,43.66,6.91,0.2727486528734547,0.07966267132282985,0.36621798399257355,0.05510310171092194,0.8279779348602334,0.09621535466584698
43.758,43.71,6.95,0.2714463300788202,0.07942268240637965,0.3644151898985081,0.05497602442198638,0.8239350310353242,0.09595105406328579
43.84,43.77,7.09,0.27014647578575224,0.07918505219731871,0.36262304537868023,0.05485553291897805,0.8199011058982296,0.09569212887059653
43.86,43.82,6.95,0.2688497242337016,0.07894984278738779,0.3608424800175076,0.05474160528861999,0.8158782602488893,0.09543866892464127
43.902,43.88,6.93,0.2675566976002795,0.0787171161283187,0.3590744046739191,0.054634218698360465,0.8118685644929604,0.09519076099210406
43.963,43.93,7.07,0.2662680056975759,0.0784869339818284,0.35731971099512866,0.05453334939917429,0.8078740575480381,0.09494848873367182
44.025,43.99,7.04,0.2649842456772147,0.0782593578683407,0.35557927094663305,0.05443897272774502,0.8038967457708144,0.09471193267025164
44.088,44.04,6.94,0.2637060017440801,0.07803444901449676,0.3538539363580245,0.05435106310807321,0.7999386019050398,0.09448117015121676
44.15,44.1,7.05,0.2624338448786675,0.07781226829950581,0.3521445384842441,0.05426959405252398,0.7960015640501957,0.09425627532466786
44.21,44.15,7.07,0.26116833256804567,0.07759287620037589,0.3504518875819613,0.05419453816229232,0.7920875346508595,0.09403731910968981
44.23,44.21,6.9,0.25991000854547064,0.07737633273605145,0.3487767725008387,0.054125867127236625,0.7881983795068037,0.09382436917057652
44.292,44.26,6.91,0.2586594025387281,0.0771626974104776,0.3471199602894963,0.05406355172502833,0.7843359268039337,0.09361748989299323
44.376,44.32,7.03,0.25741703002731303,0.07695202915461101,0.34548219581601797,0.05400756181958116,0.780501966166206,0.09341674236204306
44.396,44.37,6.91,0.25618339200857065,0.076744386267403,0.3438642014028748,0.05395786635874097,0.7766982477287013,0.0932221843422065
44.459,44.43,6.89,0.25495897477292195,0.07653982635579223,0.3422666764761577,0.053914433371226644,0.772926481232031,0.09303387025913085
44.521,44.48,7.03,0.25374424968827614,0.07633840627376723,0.34069029722902144,0.053877229962816166,0.7691883351382824,0.09285185118325014
44.585,44.54,7.0,0.2525396729936981,0.07614018206058265,0.33913571629926365,0.05384622231175946,0.765485435768754,0.09267617481521946
44.646,44.59,6.88,0.251345685602376,0.07594520887823221,0.33760356246098566,0.053821375663375526,0.7618193664637982,0.09250688547314494
44.729,44.65,6.97,0.2501627129139299,0.07575354094828746,0.33609444033031766,0.05380265432376457,0.7581916667651717,0.09234402408158848
44.75,44.7,6.98,0.24899116463615423,0.0755652314881981,0.33460893008524517,0.053790021652545345,0.7546038316213902,0.09218762816231926
44.791,44.76,6.77,0.24783143461635126,0.07538033264712983,0.3331475871996429,0.05378344005451929,0.7510573106166625,0.09203773182678099
44.832,44.81,6.78,0.24668390068245014,0.07519889544141009,0.33171094219169134,0.05378287097017879,0.7475535072240416,0.09189436577024324
44.895,44.87,6.9,0.24554892449409393,0.0750209696896662,0.330299500386927,0.05378827486500579,0.7440937780834657,0.09175755726760806
44.956,44.92,6.73,0.24442685140384085,0.07484660394776103,0.3289137416962636,0.05379961121752606,0.7406794323053667,0.09162733017084979
45.038,44.98,6.67,0.24331801032859196,0.07467584544365309,0.3275541204093625,0.053816838506094665,0.7373117308005146,0.09150370490807556
45.079,45.03,6.82,0.24222271363133954,0.0745087400123216,0.326221065003709,0.053839914194396925,0.7339918856367729,0.09138669848419939
45.14,45.09,6.82,0.24114125701336017,0.07434533203089921,0.3249149779696874,0.05386879471565316,0.7307210594234571,0.09127632448322366
45.181,45.14,6.69,0.2400739194170212,0.07418566435414677,0.3236362356518969,0.053903435455514924,0.7275003647240202,0.09117259307212162
45.243,45.2,6.78,0.23902096293941136,0.07402977825039733,0.32238518810691374,0.05394379073364726,0.724330863497843,0.09107551100631125
45.324,45.25,6.79,0.237982632757033,0.07387771333808972,0.32116215897769085,0.05398981378400428,0.7212135665719984,0.09098508163670585
45.367,45.31,6.54,0.23695915706181675,0.07372950752300704,0.31996744538482413,0.05404145673382523,0.718149433143952,0.0909013049183195
45.387,45.36,6.52,0.23595074700873403,0.07358519693633642,0.3188013178349492,0.054098670581410505,0.7151393703162333,0.09082417742040388
45.448,45.42,6.62,0.23495759667527907,0.07344481587366992,0.3176640201465837,0.05416140517277612,0.7121842326641424,0.09075369233809222
45.509,45.47,6.47,0.23397988303309078,0.07330839673507074,0.3165557693937923,0.05422960917731173,0.709284821837543,0.09068983950553261
45.551,45.53,6.41,0.23301776593196527,0.07317596996633169,0.31547675586808144,0.05430323006258313,0.7064418861977482,0.09063260541050118
45.611,45.58,6.53,0.23207138809648878,0.07304756400155688,0.3144271430588998,0.05438221406843509,0.7036561204904626,0.09058197321049176
45.713,45.64,6.5,0.23114087513550305,0.07292320520719549,0.31340706765306364,0.05446650618055654,0.7009281655557353,0.09053792275028
45.734,45.69,6.32,0.23022633556460653,0.0728029178276517,0.3124166395533659,0.05455605010366769,0.6982586080758879,0.0905004305809585
45.775,45.75,6.37,0.22932786084189,0.0726867239325898,0.3114559419165829,0.05465078823448535,0.6956479803624045,0.09046946998043581
45.836,45.8,6.39,0.22844552541711113,0.07257464336604998,0.31052503121108005,0.054750661634619696,0.6930967601828238,0.09044501097538897
45.898,45.86,6.15,0.22757938679452544,0.07246669369748635,0.3096239372942412,0.05485561000355412,0.6906053706286762,0.09042702036465881
45.94,45.91,6.1,0.22672948560959696,0.07236289017484128,0.3087526635099707,0.05496557165186844,0.6881741800255039,0.09041546174408152
46.042,45.97,6.18,0.22589584571979598,0.07226324567977732,0.30791118680653384,0.05508048347488009,0.6858035018859637,0.09041029553275436
46.062,46.02,6.03,0.22507847430966363,0.07216777068519958,0.3070994578750195,0.05520028092688155,0.6834935949069417,0.0904114790007369
46.102,46.08,5.97,0.2242773620102686,0.07207647321521268,0.306317401308708,0.05532489799614579,0.6812446630115156,0.09041896629819068
46.163,46.13,6.02,0.2234924830331081,0.071989358807668,0.3055649157835804,0.05545426718086222,0.6790568554365114,0.09043270848596052
46.225,46.19,5.98,0.22272379531843825,0.07190643047946035,0.3048418742601499,0.05558831946614752,0.6769302668663338,0.09045265356759327
46.289,46.24,5.82,0.22197124069797308,0.07182768869472483,0.3041481242067334,0.055726984302248775,0.6748649376136976,0.09047874652278545
46.35,46.3,5.89,0.22123474507186705,0.07175313133606896,0.30348348784423634,0.055870189584026904,0.6728608538478372,0.0905109293422479
46.435,46.35,5.87,0.2205142185999053,0.07168275367895367,0.3028477624125085,0.05601786163178006,0.6709179478707347,0.0905491410639749
46.455,46.41,5.64,0.21980955590684959,0.07161654836931258,0.3022407204583366,0.056169925173441486,0.6690360984418565,0.09059331781090879
46.496,46.46,5.62,0.21912063630190995,0.0715545054044806,0.30166211014516375,0.05632630332817393,0.6672151311518294,0.09064339282999373
46.557,46.52,5.66,0.21844732401230973,0.0714966121174938,0.30111165558463415,0.05648691759138022,0.6654548188454126,0.09069929653261674
46.659,46.57,5.5,0.2177894684308866,0.07144285316481991,0.3005890571900746,0.05665168782114969,0.6637548820940087,0.09076095653643937
46.679,46.63,5.45,0.21714690437761788,0.07139321051758216,0.3000939920520049,0.05682053222615967,0.6621149897178205,0.0908282977086272
46.721,46.68,5.56,0.21651945237488968,0.0713476634563402,0.2996261143357052,0.05699336735505382,0.6605347593576245,0.09090124221048473
46.785,46.74,5.53,0.21590691893626968,0.07130618856948424,0.29918505570079856,0.057170108087310434,0.6590137580960117,0.0909797095434971
46.825,46.79,5.4,0.2153090968685134,0.07126875975527946,0.2987704257427281,0.05735066762559595,0.6575515031278495,0.09106361659677219
46.866,46.85,5.45,0.21472576558650933,0.07123534822757696,0.2983818124559563,0.0575349574895796,0.6561474624796596,0.09115287769586868
46.929,46.9,5.45,0.2141566914408664,0.07120592252518887,0.2980187827186789,0.05772288751116777,0.6548010557775717,0.09124740465298636
47.012,46.96,5.22,0.21360162805785232,0.07118044852491041,0.2976808827988469,0.057914365831108434,0.6535116550634746,0.09134710681849334
47.033,47.01,5.2,0.21306031669138378,0.07115888945816531,0.29736763888127804,0.058109298896927924,0.6522785856589246,0.09145189113376806
47.094,47.07,5.24,0.21253248658675106,0.07114120593125611,0.2970785576156289,0.05830759146218789,0.6511011270762783,0.09156166218534174
47.156,47.12,5.08,0.21201785535573034,0.07112735594920756,0.29681312668499277,0.0585091465870707,0.6499785139763856,0.0916763222603368
47.217,47.18,5.04,0.21151612936268843,0.0711172949431988,0.29657081539484964,0.05871386564031876,0.6489099371720101,0.09179577140320563
47.279,47.23,5.17,0.2110270041212165,0.07111097580158764,0.29635107528200455,0.05892164830257408,0.6478945446759824,0.09191990747378002
47.32,47.29,5.16,0.2105501647007714,0.07110834890452492,0.29615334074304256,0.05913239257117091,0.6469314427929412,0.09204862620663705
47.361,47.34,5.01,0.21008528614276645,0.0711093621621385,0.29597702968173856,0.059345994766419254,0.6460196972533957,0.09218182127177836
47.422,47.4,5.13,0.2096320338855548,0.07111396105623839,0.29582154417478324,0.05956234953939012,0.6451583343887664,0.09231938433660575
47.527,47.45,5.13,0.2091900641977823,0.07112208868546073,0.2956862711551289,0.05978134988119088,0.6443463423460197,0.09246120512916088
47.548,47.51,4.93,0.20875902461963558,0.07113368581374245,0.2955705831121803,0.060002887133712976,0.6435826723404771,0.09260717150258661
47.588,47.56,4.96,0.2083385544115487,0.07114869092200367,0.2954738388079747,0.06022685100185447,0.6428662399453148,0.09275716950076297
47.65,47.62,5.01,0.20792828500993682,0.07116704026291559,0.2953953840084214,0.06045312956725187,0.6421959264162126,0.09291108342507233
47.732,47.67,4.84,0.20752784048951092,0.07118866791864288,0.2953345522286491,0.06068160930358114,0.6415705800494923,0.0930687959022508
47.752,47.73,4.84,0.20713683803166494,0.07121350586146838,0.29529066549147154,0.06091217509350676,0.640989017571972,0.09323018795328972
47.814,47.78,4.98,0.20675488839834263,0.07124148401723134,0.295263035097914,0.06114471024737187,0.6404500255606229,0.09339513906335146
47.898,47.84,4.92,0.20638159641070236,0.07127253033152028,0.29525096240865845,0.06137909652372279,0.6399523618899915,0.09356352725265919
47.918,47.89,4.82,0.20601656143183555,0.07130657083855767,0.2952537396351786,0.061615214151740996,0.6394947572052442,0.09373522914830805
47.979,47.95,4.95,0.20565937785276742,0.07134352973269303,0.2952706506392725,0.061852941855624476,0.6390759164186179,0.09391012005693193
48.04,48.0,4.99,0.20530963558098403,0.07138332944239664,0.29530097173965647,0.062092156880924045,0.6386945202270125,0.09408807403814735
48.102,48.06,4.86,0.20496692053078655,0.0714258907066126,0.2953439725242896,0.062332735022805556,0.6383492266484208,0.09426896397869125
48.143,48.11,4.95,0.20463081511483328,0.07147113265331001,0.2953989166671219,0.06257455065618467,0.6380386725748524,0.09445266166717238
48.203,48.17,5.03,0.20430089873628485,0.07151897288005525,0.29546506274802475,0.06281747676766485,0.6377614753393822,0.09463903786936108
48.266,48.22,4.92,0.2039767482809948,0.07156932753642693,0.29554166507472823,0.06306138498920083,0.6375162342949385,0.09482796240394624
48.328,48.28,4.92,0.2036579386091794,0.07162211140810179,0.2956279745056205,0.06330614563341651,0.6373015324024235,0.09501930421869424
48.369,48.33,5.0,0.2033440430459724,0.07167723800245111,0.29572323927223193,0.06355162773052797,0.637115937825743,0.09521293146694403
48.411,48.39,4.94,0.20303463387025103,0.07173461963548855,0.2958267058001778,0.0637976990668301,0.6369580055313067,0.09540871158436762
48.474,48.44,4.85,0.20272928280111902,0.07179416751999697,0.29593761952727904,0.06404422622469218,0.6368262788895105,0.09560651136591782
48.516,48.5,5.02,0.2024275614814424,0.07185579185464072,0.2960552257175227,0.06429107462397847,0.6367192912756732,0.09580619704287675
48.618,48.55,5.1,0.20212904195786244,0.07191940191384456,0.2961787702694854,0.06453810856478126,0.6366355676678354,0.0960076343599156
48.639,48.61,5.01,0.20183329715674564,0.07198490613819963,0.2963075005178182,0.06478519127134373,0.63657362623879,0.09621068865208116
