Time_Host,Time_Arduino,easingdata,CH1_Oxy,CH1_Deoxy,CH2_Oxy,CH2_Deoxy,CH3_Oxy,CH3_Deoxy
0.064,0.04,0.0,0.03156949336134333,0.15553565813980635,0.0,0.18037665659898142,0.0,0.14849363185689457
0.126,0.1,0.0,0.0336240277285679,0.1529405298578989,0.0032214371452911105,0.17914315936138595,0.0012461507894828419,0.1468067455948411
0.188,0.15,0.0,0.03566554242561992,0.15036075671627003,0.006429276061081127,0.17790888412135164,0.00249514267379769,0.14512847214332958
0.271,0.21,0.0,0.037693005706079856,0.14779703227824376,0.009622164116206469,0.17667420607783904,0.003746444216441319,0.14345945919218747
0.292,0.26,0.0,0.03970539401381195,0.1452500278149107,0.012798762362045054,0.17543949704741346,0.004999520993038403,0.14180034681933532
0.396,0.32,0.0,0.041701693059466215,0.14272039183283267,0.01595774693383264,0.17420512510634387,0.006253836118088813,0.14015176704012852
0.416,0.37,0.0,0.04368089889658788,0.14020874964953903,0.019097810438948187,0.17297145424325966,0.007508850779663821,0.13851434337959867
0.479,0.43,0.0,0.04564201899627222,0.13771570301724095,0.02221766333040581,0.17173884402306894,0.008764024781435717,0.13688869046855423
0.52,0.48,0.0,0.047584073319296254,0.13524182979504823,0.02531603526380323,0.1705076492628121,0.010018817091403136,0.13527541366445378
0.583,0.54,0.0,0.04950609538465048,0.13278768366983398,0.028391676435985294,0.1692782197200958,0.0112726863966509,0.13367510869791824
0.624,0.59,0.03,0.05140713333338339,0.13035379392575858,0.03144335890368749,0.16805089979472532,0.012525091663458835,0.13208836134570315
0.686,0.65,0.07,0.05328625098665791,0.12794066526233727,0.03446987788042628,0.16682602824413098,0.013775492702051195,0.1305157471309016
0.749,0.7,0.05,0.055142528896902125,0.12554877766082842,0.037470053009901756,0.16560393791317285,0.01502335073526405,0.1289578310510806
0.811,0.76,0.05,0.0569750653909267,0.12317858629860118,0.04044272961418202,0.1643849554788924,0.01626812897040954,0.12741516733493843
0.871,0.81,0.07,0.058782977603888995,0.12083052151096368,0.043386779914966166,0.16316940121071782,0.017509293173630293,0.1258882992279215
0.912,0.87,0.08,0.060565402503007536,0.11850498879967278,0.046301104226286555,0.16195758874648108,0.01874631224604932,0.12437775880708504
0.995,0.92,0.07,0.06232149789993998,0.11620236888708645,0.04918463211710113,0.1607498248843855,0.01997865880102021,0.12288406682536322
1.014,0.98,0.07,0.06405044345071845,0.11392301781474004,0.052036323542323376,0.15954640939084178,0.021205809741773794,0.12140773258531538
1.157,1.03,0.13,0.06575144164209833,0.11166726708501792,0.054855169940929885,0.15834763482392827,0.022427246838749172,0.11994925384230856
1.178,1.09,0.1,0.06742371876313376,0.10943542384450482,0.05764019529985855,0.15715378637215038,0.023642457305887658,0.11850911673696413
1.198,1.14,0.1,0.069066525860747,0.10722777110751687,0.06039045718245238,0.15596514170818004,0.02485093437516103,0.11708779575651074
1.218,1.2,0.13,0.07067913967801473,0.1050445680182185,0.0631050477202209,0.1547819708572869,0.026052177868604507,0.11568575372442297
1.28,1.25,0.12,0.07226086357386226,0.10288605014961581,0.06578309456671011,0.1536045360801721,0.027245694767127696,0.11430344181743397
1.34,1.31,0.1,0.07381102842283177,0.10075242983761641,0.068423761812297,0.15243309176986158,0.028430999775372476,0.11294129960879494
1.402,1.36,0.12,0.07532899349356922,0.09864389654828364,0.0710262508587586,0.15126788436224048,0.029607615881873477,0.11159975513655114
1.485,1.42,0.13,0.07681414730466515,0.09656061727636724,0.07358980125251025,0.15010915225972696,0.030775074913755286,0.11027922499559037
1.505,1.47,0.11,0.07826590845648983,0.0945027369731437,0.07611369147545213,0.1489571257675263,0.03193291808517375,0.10898011445225862
1.566,1.53,0.13,0.07968372643767312,0.09247037900156922,0.07859723969238959,0.14781202704190208,0.0330806965386789,0.10770281758040286
1.626,1.58,0.13,0.08106708240488854,0.09046364561675499,0.08103980445399851,0.14667407004996058,0.034217971878649014,0.10644771741776736
1.688,1.64,0.11,0.08241548993459304,0.08848261846982738,0.08344078535429947,0.14554346054053668,0.03534431669591964,0.10521518614171191
1.793,1.69,0.13,0.08372849574534197,0.08652735913332928,0.08579962364158726,0.14442039602587567,0.036459315082706896,0.10400558526322756
1.812,1.75,0.16,0.08500568038924508,0.08459790964640293,0.08811580278173244,0.14330506577389393,0.03756256313689855,0.10281926583818367
1.852,1.8,0.19,0.08624665891105969,0.08269429307801926,0.090388848972747,0.14219765081085833,0.03865366945476073,0.10165656869466558
1.894,1.86,0.2,0.08745108147331876,0.08081651410652853,0.09261833160948359,0.14109832393435898,0.03973225561108687,0.10051782467517807
1.934,1.91,0.23,0.08861863394576677,0.0789645596138692,0.09480386369732112,0.14000724973648665,0.040797956625811434,0.09940335489240898
1.996,1.97,0.26,0.08974903845727543,0.07713839929287328,0.09694510221370428,0.13892458463714571,0.04185042141612742,0.09831347099717799
2.057,2.02,0.26,0.09084205390837875,0.07533798626621305,0.09904174841645468,0.13785047692742886,0.04288931323317502,0.09724847545714765
2.117,2.08,0.28,0.09189747644259323,0.07356325771566943,0.10109354809783919,0.13678506682298996,0.043914310082402624,0.09620866184484839
2.158,2.13,0.32,0.09291513987473876,0.07181413552058309,0.10310029178345102,0.13572848652739058,0.044925105126735435,0.09519431513355156
2.219,2.19,0.3,0.09389491607453015,0.07009052690452748,0.10506181487503613,0.13468086030544177,0.0459214070717181,0.09420571199950784
2.28,2.24,0.29,0.09483671530376005,0.06839232508936467,0.10697799773646792,0.13364230456659484,0.046902940531825026,0.09324312112904834
2.342,2.3,0.32,0.09574048650544358,0.066719409955878,0.10884876572212401,0.13261292795846572,0.04786944637715248,0.09230680352902587
2.404,2.35,0.35,0.09660621754334739,0.06507164871012203,0.11067408914695251,0.13159283147060255,0.04882068205971717,0.09139701283906669
2.446,2.41,0.35,0.09743393539038013,0.06344889655453997,0.11245398319754804,0.13058210854862734,0.049756421918587264,0.09051399564413122
2.488,2.46,0.4,0.0982237062643905,0.06185099736284053,0.11418850778360183,0.12958084521890118,0.05067645746307694,0.08965799178594061
2.592,2.52,0.43,0.09897563571001693,0.06027778435765178,0.11587776732916336,0.12858912022388513,0.05158059763325513,0.0888292346719052
2.613,2.57,0.41,0.09968986862535395,0.05872908079009559,0.1175219105032426,0.12760700516841983,0.052468669037052995,0.08802795158028559
2.653,2.63,0.44,0.1003665892323242,0.05720470062064671,0.11912112988935661,0.12663456467726258,0.053340516163298095,0.08725436396041648
2.715,2.68,0.47,0.10100602098976037,0.055704449200881384,0.1206756615936556,0.12567185656440058,0.05419600157004822,0.08650868772692169
2.777,2.74,0.52,0.10160842644832581,0.054228123955887525,0.12218578479127253,0.12471893201485074,0.05503500604763908,0.08579113354695136
2.839,2.79,0.52,0.10217410704652649,0.052775515067191435,0.12365182121057018,0.12377583577976908,0.05585742875589798,0.08510190711957374
2.9,2.85,0.54,0.10270340284718622,0.0513464061560961,0.12507413455506902,0.1228426063856341,0.056663187335022784,0.0844412094465149
2.961,2.9,0.57,0.10319669221386966,0.04994057496734582,0.126453129863053,0.12191927635798615,0.057452217989687734,0.08380923709343885
2.981,2.96,0.6,0.1036543914268485,0.04855779405304953,0.1277892528051216,0.12100587245981419,0.058224475546002914,0.08320618244092638
3.043,3.01,0.61,0.10407695423831204,0.04719783145685779,0.1290829889201895,0.12010241594439497,0.0589799334810172,0.08263223392427355
3.103,3.07,0.65,0.10446487136663135,0.04586045139852229,0.13033486279059348,0.1192089228222993,0.05971858392451684,0.08208757626121246
3.164,3.12,0.67,0.10481866992959854,0.04454541495915382,0.13154543715708217,0.11832540414231693,0.06044043763294192,0.08157239066666201
3.227,3.18,0.67,0.10513891281667,0.043252480767700587,0.13271531197456157,0.11745186628612189,0.06114552393531702,0.08108685505365597
3.309,3.23,0.71,0.1054261980003518,0.04198140568931845,0.13384512340956795,0.11658831127656535,0.06183389065116861,0.08063114421966179
3.329,3.29,0.73,0.10568115778700059,0.04073194551630962,0.13493554278055805,0.11573473709948653,0.06250560398047647,0.08020543001757781
3.391,3.34,0.73,0.10590445800748698,0.03950385566214985,0.13598727544227235,0.11489113803883076,0.06316074836577747,0.07980988151077552
3.431,3.4,0.76,0.10609679714837304,0.03829689185886878,0.13700105961564749,0.11405750502463713,0.06379942632661022,0.0794446651116303
3.492,3.45,0.77,0.10625890542447089,0.03711081085775468,0.13797766516502388,0.11323382599313764,0.06442175826655863,0.07910994470305188
3.553,3.51,0.75,0.10639154379386964,0.03594537113305065,0.1389178923246651,0.11242008625787188,0.06502788225322088,0.07880588174259082
3.595,3.56,0.75,0.1064955029167268,0.03480033358800618,0.13982257037683893,0.11161626889046293,0.06561795377149156,0.0785326353487616
3.721,3.62,0.77,0.10657160205931536,0.03367546226233643,0.14069255628389377,0.11082235510953588,0.06619214545059822,0.07829036236927667
3.742,3.67,0.76,0.10662068794499377,0.03257052503979501,0.1415287332769173,0.1100383246761331,0.06675064676537382,0.07807921743092602
3.763,3.73,0.77,0.10664363355392571,0.03148529435418025,0.1423320094037004,0.1092641562938561,0.06729366371227576,0.07789935297087548
3.805,3.78,0.8,0.10664133687354142,0.03041954789168683,0.14310331603883633,0.10849982801184997,0.06782141846069083,0.07775091924919893
3.865,3.84,0.82,0.10661471960191828,0.029373069287130134,0.1438436063588888,0.10774531762865293,0.06833414898009793,0.07763406434251173
3.949,3.89,0.81,0.10656472580645647,0.02834564881129307,0.14455385378565966,0.10700060309487862,0.06883210864370418,0.07754893411862927
3.97,3.95,0.8,0.10649232054041134,0.02733708404653468,0.1452350504006749,0.10626566291270044,0.06931556580922427,0.07749567219223169
4.072,4.0,0.84,0.10639848842000812,0.026347180547831067,0.14588820533407626,0.10554047653017247,0.06978480337753563,0.07747441986157745
4.092,4.06,0.83,0.10628423216500563,0.02537575248653405,0.14651434313115477,0.10482502472852835,0.07024011832999827,0.07748531602639866
4.154,4.11,0.82,0.10615057110568066,0.02442262327431626,0.14711450209978816,0.10411929000074328,0.07068182124527676,0.07752849708722448
4.216,4.17,0.83,0.10599853965926209,0.023487626165035084,0.14768973264204524,0.10342325691979015,0.07111023579654584,0.07760409682647273
4.277,4.22,0.81,0.1058291857788523,0.022570604832583937,0.14824109557321824,0.10273691249513227,0.07152569823000206,0.07771224627168606
4.338,4.28,0.78,0.1056435693778538,0.02167141392314615,0.148769660431539,0.1020602465160629,0.07192855682564048,0.07785307354128916
4.442,4.33,0.79,0.10544276073289612,0.02078991958052994,0.1492765037818178,0.1013932518805639,0.07231917134127885,0.07802670367324771
4.462,4.39,0.8,0.10522783886825242,0.0199259999434002,0.1497627075162098,0.10073592490844419,0.0726979124408237,0.07823325843704945
4.482,4.44,0.77,0.1049998899247379,0.01907954561329708,0.15022935715525434,0.10008826563765376,0.07306516110777346,0.0784728561295171
4.524,4.5,0.78,0.10476000551607886,0.018250460092437575,0.1506775401522458,0.09945027810286226,0.07342130804495578,0.07874561135507657
4.584,4.55,0.81,0.10450928107573852,0.017438660190453325,0.15110834420389915,0.09882197059561793,0.07376675306150067,0.07905163479121229
4.646,4.61,0.8,0.10424881419720144,0.016644076399377858,0.1515228555702029,0.0982033559056102,0.07410190444806591,0.07939103293993173
4.688,4.66,0.81,0.10397970297074757,0.015866653236320322,0.15192215740630102,0.09759445154271759,0.0744271783413486,0.07976390786612457
4.791,4.72,0.82,0.10370304431977877,0.015106349553339352,0.15230732810920156,0.09699527993963299,0.07474299807894694,0.0801703569237188
4.811,4.77,0.81,0.10341993233978693,0.01436313881406784,0.15267943968206232,0.09640586863491943,0.07504979354567255,0.08061047247050718
4.853,4.83,0.78,0.10313145664306188,0.013637009336666927,0.15303955611875142,0.09582625043637436,0.07534800051245436,0.08108434157247596
4.914,4.88,0.78,0.10283870071223379,0.012927964502730533,0.1533887318113246,0.09525646356460757,0.07563805996900959,0.08159204569844564
4.976,4.94,0.78,0.10254274026573078,0.012236022931823905,0.15372800998299893,0.09469655177679807,0.07592041745147955,0.08213366040584297
5.057,4.99,0.74,0.10224464163820078,0.011561218621443856,0.1540584211491303,0.09414656447069861,0.07619552236623371,0.08270925501845676
5.077,5.05,0.71,0.10194546017888167,0.01090360105235916,0.1543809816086075,0.09360655676910246,0.07646382731103447,0.08331889229706688
5.159,5.1,0.74,0.10164623867081264,0.010263235259475083,0.15469669196797134,0.09307658958512682,0.07672578739473691,0.0839626281038479
5.18,5.16,0.73,0.10134800577369203,0.009640201868458978,0.15500653570048117,0.0925567296687358,0.07698185955667045,0.08464051106142939
5.241,5.21,0.72,0.10105177449311906,0.009034597098327416,0.15531147774228715,0.09204704963491005,0.07723250188682165,0.08535258220745826
5.303,5.27,0.73,0.10075854067891014,0.00844653273009663,0.15561246312780252,0.09154762797381961,0.07747817294791995,0.08609887464546119
5.364,5.32,0.73,0.10046928155514093,0.007876136041541458,0.15591041566631403,0.09105854904332251,0.07771933110052319,0.08687941319275434
5.406,5.38,0.71,0.10018495428449915,0.007323549708178312,0.15620623666180591,0.09057990304410893,0.0779564338322071,0.08769421402611131
5.465,5.43,0.69,0.09990649456942073,0.006788931670804393,0.15650080367791916,0.09011178597781029,0.07818993709196964,0.08854328432588876
5.547,5.49,0.69,0.09963481529233978,0.006272454970201432,0.15679496934992793,0.08965429958834464,0.07842029463096356,0.08942662191931372
5.567,5.54,0.64,0.09937080519725655,0.00577430754982673,0.15708956024560575,0.08920755128665697,0.07864795735066414,0.09034421492365852
5.628,5.6,0.62,0.09911532761472587,0.005294692027411909,0.15738537577684322,0.0887716540588851,0.0788733726595557,0.09129604139005734
5.71,5.65,0.62,0.09886921923227524,0.004833825436388351,0.15768318716384852,0.08834672635787423,0.0790969838393845,0.09228206894874622
5.731,5.71,0.59,0.09863328891213888,0.00439193893801733,0.15798373645370872,0.08793289197787925,0.0793192294219739,0.09330225445654063
5.792,5.76,0.57,0.09840831655801664,0.003969277505099963,0.15828773559500414,0.08753027991223963,0.07954054257753859,0.09435654364740434
5.855,5.82,0.58,0.09819505203234681,0.0035660995782085822,0.15859586557003502,0.08713902419381682,0.07976135051537266,0.09544487078699354
5.894,5.87,0.59,0.09799421412537052,0.0031826766954817162,0.15890877558605623,0.08675926371805372,0.07998207389773014,0.09656715833207556
5.957,5.93,0.57,0.09780648957709197,0.0028192930971432223,0.15922708232671895,0.08639114204864416,0.08020312626766696,0.09772331659572642
6.018,5.98,0.57,0.09763253215310158,0.0024762453060652805,0.15955136926468302,0.08603480720598426,0.08042491349157538,0.09891324341921329
6.06,6.04,0.6,0.0974729617751179,0.0021538416858746723,0.15988218603608584,0.0856904114387931,0.08064783321711767,0.10013682385145349
6.122,6.09,0.58,0.09732836370701732,0.0018524019782337844,0.16022004787726787,0.08535811097949161,0.08087227434724951,0.10139392983691031
6.183,6.15,0.56,0.09719928779704608,0.0015722568209755173,0.1605654351239087,0.08503806578407987,0.08109861653100559,0.10268441991273143
6.307,6.2,0.57,0.09708624777683049,0.001313747248745686,0.160918792772542,0.08473043925734668,0.08132722967170705,0.10400813891585287
6.327,6.26,0.57,0.09698972061771556,0.0010772241777379187,0.16128053010428262,0.08443539796428859,0.0815584734532327,0.10536491770069821
6.367,6.31,0.51,0.09691014594486093,0.000863047876041466,0.16165102037049378,0.08415311132863933,0.08179269688497244,0.10675457286803425
6.409,6.37,0.48,0.09684792550941744,0.0006715874210828578,0.1620306005400174,0.08388375131945276,0.08203023786604907,0.10817690650551928
6.451,6.42,0.47,0.0968034227190206,0.0005032201455690118,0.16241957110749844,0.08362749212671482,0.08227142276934617,0.10963170594050232
6.513,6.48,0.42,0.09677696222678621,0.0003583310731663462,0.1628181959622732,0.08338450982692998,0.08251656604581326,0.11111874350570636
6.575,6.53,0.43,0.09676882957895326,0.00023731234491902492,0.1632267023172452,0.08315498203953908,0.0827659698494288,0.11263777631854112
6.638,6.59,0.47,0.09677927092125078,0.0001405626372274212,0.16364528069710588,0.08293908757493053,0.08301992368310189,0.11418854607488674
6.677,6.64,0.47,0.09680849276396473,6.848657213246346e-05,0.16407408498517806,0.08273700607472483,0.08327870406569977,0.11577077885823205
6.74,6.7,0.47,0.09685666180556766,2.1494120660791408e-05,0.1645132325280798,0.08254891764491847,0.08354257422031626,0.11738418496503789
6.801,6.75,0.52,0.09692390481468235,0.0,0.16496280429733348,0.08237500248237666,0.0838117837838567,0.11902845874714536
6.884,6.81,0.53,0.09701030857009682,4.4230651917094025e-06,0.1654228451069672,0.08221544049512,0.08408656853800434,0.12070327847197355
6.904,6.86,0.49,0.09711591985853375,3.518569582053071e-05,0.1658933638860698,0.0820704109168639,0.08436715016163976,0.12240830620116847
6.945,6.92,0.5,0.09724074552987227,9.27131779086251e-05,0.1663743340052118,0.08194009191625824,0.08465373600479613,0.12414318768826894
7.027,6.97,0.54,0.09738475260951339,0.0001774330809726582,0.16686569365565182,0.0818246602011689,0.0849465188842388,0.1259075522958664
7.067,7.03,0.51,0.09754786846756044,0.00028977462998077747,0.16736734628029412,0.08172429061817175,0.08524567690074897,0.12770101293267264
7.107,7.08,0.51,0.09772998104444797,0.00043016807176129903,0.16787916105538428,0.08163915574728405,0.08555137327817093,0.12952316601087271
7.169,7.14,0.52,0.09793093913258984,0.0005990440352491377,0.1684009734219026,0.08156942549187705,0.0858637562242609,0.1313735914240722
7.23,7.19,0.52,0.09815055271354053,0.0007968328847829754,0.16893258566554883,0.081515266663676,0.08618295881335615,0.13325185254604224
7.273,7.25,0.5,0.09838859335006937,0.0010239640655075053,0.1694737675441236,0.08147684256273635,0.08650909889085946,0.13515749625035522
7.376,7.3,0.53,0.09864479463243761,0.0012808654398628256,0.17002425696101583,0.08145431255230176,0.08684227899950547,0.13709005295091467
7.396,7.36,0.56,0.09891885267805882,0.001567962614186504,0.17058376068341166,0.08144783162850729,0.08718258632734574,0.13904903666333862
7.436,7.41,0.55,0.09921042668363324,0.0018856782545892284,0.1711519551037612,0.08145754998498721,0.0875300926773636,0.14103394508716194
7.539,7.47,0.57,0.09951913952877288,0.002234431391468438,0.17172848704296345,0.08148361257258434,0.08788485445861174,0.14304425970884907
7.56,7.52,0.59,0.09984457843007599,0.0026146367122482357,0.17231297459365072,0.08152615865451067,0.08824691269876347,0.14507944592559865
7.602,7.58,0.55,0.1001862956445666,0.0030267038420996348,0.17290500800188255,0.08158532135743043,0.08861629307797705,0.14713895318985987
7.684,7.63,0.55,0.10054380922138283,0.0034710366124687904,0.17350415058549762,0.08166122721901692,0.08899300598397816,0.14922221517440723
7.746,7.69,0.56,0.10091660380056966,0.003948032317252216,0.17410993968730934,0.08175399573260386,0.08937704658826277,0.1513286499577632
7.787,7.74,0.56,0.10130413145779751,0.004458080956449881,0.17472188766127744,0.08186373888962294,0.08976839494330277,0.15345766022972926
7.828,7.8,0.51,0.10170581259378093,0.00500156446714504,0.17533948288974646,0.08199056072058669,0.09016701610060227,0.1556086335167701
7.89,7.85,0.51,0.10212103686710224,0.0055788559417493154,0.1759621908298075,0.0821345568354583,0.0905728602494142,0.15778094242698634
7.931,7.91,0.53,0.10254916416905754,0.006190318833617921,0.17658945508679974,0.082295813964346,0.09098586287588713,0.15997394491441638
7.992,7.96,0.53,0.10298952563904291,0.006836306150350519,0.17722069851293082,0.08247440949956336,0.09140594494235914,0.1621869845624482
8.053,8.02,0.54,0.10344142471889155,0.007517159635319837,0.17785532432894136,0.08267041104019938,0.09183301308645951,0.16441939088617347
8.095,8.07,0.58,0.1039041382444725,0.008233208938186546,0.17849271726667593,0.08288387594043697,0.09226695983962985,0.16667047965351697
8.177,8.13,0.59,0.10437691757278829,0.008984770775338673,0.17913224473036854,0.08311485086289364,0.09270766386465129,0.16893955322490994
8.219,8.18,0.57,0.10485898974276603,0.00977214808134591,0.17977325797443208,0.08336337133821088,0.09315499021175974,0.17122590091117873
8.26,8.24,0.59,0.10534955866791613,0.010595629152683651,0.18041509329555058,0.08362946133204575,0.09360879059293577,0.17352879934923368
8.342,8.29,0.61,0.10584780635901711,0.011455486785191094,0.18105707323689058,0.08391313282059963,0.0940689036739635,0.17584751289509265
8.383,8.35,0.61,0.10635289417496151,0.012351977407000864,0.1816985078022608,0.08421438537588147,0.09453515538385204,0.17818129403376942
8.466,8.4,0.61,0.10686396409985609,0.013285340209006862,0.18233869567806676,0.08453320576199465,0.095007359241208,0.18052938380557396
8.487,8.46,0.64,0.10738014004442302,0.014255796275234814,0.18297692546094474,0.08486956754376185,0.0954853166971471,0.182891012248364
8.548,8.51,0.62,0.10790052916971503,0.015263547715622243,0.18361247688904586,0.08522343070889062,0.09596881749433124,0.18526539885523505
8.609,8.57,0.62,0.10842422323113396,0.016308776803678968,0.1842446220750448,0.08559474130467314,0.0964576400417184,0.18765175304704024
8.651,8.62,0.65,0.10895029994070494,0.017391645121385774,0.18487262673902038,0.08598343109003373,0.09695155180460625,0.19004927465900806
8.712,8.68,0.61,0.10947782434549334,0.01851229271360568,0.1854957514393773,0.0863894172036617,0.0974503097095422,0.19245715444058734
8.774,8.73,0.61,0.11000585021996877,0.019670837254275868,0.1861132527999576,0.08681260184899514,0.09795366056365648,0.19487457456754984
8.857,8.79,0.64,0.11053342147003865,0.02086737322672896,0.18672438473144667,0.0872528719969295,0.09846134148795345,0.19730070916536374
8.877,8.84,0.67,0.11105957354641972,0.022101971120659536,0.18732839964513068,0.08771009910728456,0.09897308036406964,0.1997347248429459
8.919,8.9,0.67,0.1115833348649852,0.023374676648502603,0.187924549657028,0.08818413887024272,0.09948859629398096,0.2021757812360571
9.0,8.95,0.67,0.1121037282317069,0.024685509984301367,0.18851208778039072,0.0886748309691528,0.10000760007212602,0.20462303155973519
9.04,9.01,0.69,0.11261977226979898,0.026034465028443324,0.18909026910454985,0.08918199886626195,0.10052979466941968,0.20707562316919928
9.102,9.06,0.69,0.11313048284667057,0.02742150870185585,0.18965835195806968,0.0897054496130596,0.10105487572864606,0.20953269812861466
9.205,9.12,0.67,0.11363487449830838,0.028846580273325834,0.19021559905419289,0.09024497368695598,0.10158253207073097,0.2119933937870286
9.225,9.17,0.68,0.11413196184875035,0.03030959072350417,0.19076127861660874,0.09080034485595875,0.1021124462113993,0.21445684336069984
9.267,9.23,0.67,0.1146207610223851,0.0318104221488673,0.1912946654836745,0.09137132007285483,0.10264429488771763,0.21692217652096674
9.329,9.28,0.64,0.11510029104689869,0.03334892720853394,0.19181504218934917,0.0919576394001962,0.10317774959400493,0.21938851998675826
9.39,9.34,0.64,0.1155695752447551,0.0349249286165194,0.19232170001923915,0.0925590259671879,0.10371247712656217,0.22185499812084652
9.452,9.39,0.68,0.11602764261113246,0.03653821868177601,0.19281394004028773,0.09317518595939278,0.10424814013663333,0.22432073352896223
9.493,9.45,0.67,0.11647352917627572,0.0381885588981324,0.19329107410278176,0.0938058086419671,0.10478439769096476,0.22678484766093565
9.574,9.5,0.67,0.11690627935028913,0.03987567958595966,0.1937524258134786,0.09445056641692186,0.1053209058392926,0.2292464614130855
9.594,9.56,0.7,0.1173249472484828,0.04159927958709322,0.19419733147875334,0.09510911491472403,0.10585731818806492,0.23170469573111852
9.655,9.61,0.73,0.11772859799548697,0.04335902601429987,0.194625141016708,0.09578109312046111,0.10639328647969495,0.23415867221282297
9.717,9.67,0.71,0.11811630900643472,0.045154554056476774,0.19503521883716748,0.09646612353482202,0.10692846117663768,0.2366075137098481
9.758,9.72,0.71,0.11848717124358134,0.04698546684082311,0.19542694468843402,0.09716381237027984,0.10746249204958304,0.23905034492787808
9.82,9.78,0.73,0.1188402904467898,0.04885133535334519,0.19579971446962569,0.09787374978301022,0.1079950287690654,0.24148629302451488
9.881,9.83,0.71,0.11917478833637385,0.05075169841911473,0.19615294100743833,0.0985955101411404,0.10852572149979245,0.24391448820421524
9.942,9.89,0.72,0.11948980378685868,0.05268606274362718,0.1964860547962507,0.09932865232984377,0.10905422149699136,0.24633406430968333
10.004,9.94,0.74,0.11978449397029409,0.05465390301639996,0.19679850470063895,0.10007272009357239,0.1095801817040566,0.2487441594091741
10.046,10.0,0.75,0.1200580354678342,0.056654662077639535,0.19708975861954495,0.10082724241540005,0.11010325735077203,0.25114391637914774
10.088,10.05,0.75,0.12030962534837093,0.05868775114844972,0.19735930411151353,0.10159173393310587,0.11062310655137102,0.2535324834816233
10.149,10.11,0.77,0.12053848221306347,0.060752550124718134,0.19760664898055,0.10236569539134993,0.11113939090169686,0.25590901493544627
10.211,10.16,0.78,0.12074384720465753,0.06284840793455315,0.19783132182224186,0.10314861412912012,0.11165177607473079,0.258272671480573
10.315,10.22,0.76,0.12092498498053901,0.06497464295899084,0.1980328725298459,0.10393996460157554,0.11215993241376025,0.26062262093443866
10.336,10.27,0.8,0.12108118464852113,0.0671305435156449,0.198210872760079,0.10473920893542726,0.11266353552246668,0.26295803873952506
10.376,10.33,0.8,0.1212117606644294,0.06931536840495024,0.19836491635841302,0.1055457975169933,0.11316226685121128,0.2652781085013466
10.419,10.38,0.79,0.12131605369063585,0.07152834751856325,0.19849461974378133,0.10635916961197127,0.11365581427879747,0.26758202251620045
10.479,10.44,0.78,0.12139343141479318,0.07376868250932293,0.19859962225273847,0.1071787540158231,0.11414387268898528,0.2698689822881218
10.542,10.49,0.8,0.12144328932812365,0.07603554752194658,0.19867958644322758,0.10800396973351353,0.11462614454103136,0.2721381990345481
10.582,10.55,0.79,0.12146505146273598,0.07832808998325343,0.1987341983582322,0.10883422668716845,0.11510234043352274,0.27438889418022955
10.685,10.6,0.76,0.12145817108758661,0.08064543145011444,0.19876316774975508,0.10966892644996735,0.11557217966075674,0.2766202998389465
10.706,10.66,0.78,0.1214221313628577,0.08298666851258364,0.19876622826380835,0.11050746300423113,0.1160353907609011,0.2788316592826143
10.747,10.71,0.78,0.12135644595267028,0.08535087374893997,0.19874313758738338,0.11134922352125716,0.11649171205514566,0.2810222273973847
10.809,10.77,0.76,0.12126065959615466,0.08773709672882102,0.19869367755861336,0.11219358916009396,0.11694089217702724,0.2831912711264168
10.871,10.82,0.79,0.12113434863695739,0.09014436506035867,0.19861765424148095,0.11303993588226446,0.11738269059107663,0.2853380698990935
10.933,10.88,0.84,0.12097712151129346,0.09257168547720386,0.19851489796645444,0.11388763527945998,0.11781687809990816,0.2874619160465961
10.954,10.93,0.83,0.12078861919468382,0.09501804496143573,0.1983852633384156,0.11473605541135416,0.11824323733885331,0.28956211520389646
11.056,10.99,0.84,0.12056851560755358,0.09748241189849607,0.19822862921320528,0.11558456165083726,0.11866156325723717,0.29163798669834157
11.077,11.04,0.88,0.12031651797989455,0.09996373726043596,0.19804489864406769,0.11643251753412277,0.11907166358541645,0.29368886392503485
11.119,11.1,0.89,0.1200323671752151,0.10246095581389353,0.19783399879921643,0.11727928561333571,0.11947335928672918,0.29571409470918497
11.18,11.15,0.87,0.11971583797401114,0.10497298734934579,0.1975958808516765,0.11812422830936499,0.11986648499353796,0.29771304165553375
11.243,11.21,0.88,0.11936673931700022,0.1074987379283123,0.19733051984247638,0.11896670876295494,0.12025088942657611,0.299685082484916
11.305,11.26,0.89,0.11898491450836053,0.11003710114534224,0.19703791451819497,0.11980609168220668,0.12062643579682934,0.301629610357945
11.409,11.32,0.88,0.11857024137920441,0.11258695940180752,0.19671808714380853,0.12064174418483968,0.12099300218919803,0.3035460341857713
11.43,11.37,0.88,0.11812263241147553,0.11514718518875736,0.19637108329172767,0.12147303663373417,0.12135048192718546,0.3054337789278498
11.472,11.43,0.91,0.11764203482240955,0.11771664237632606,0.1959969716078643,0.12229934346442921,0.12169878391784814,0.3072922858766509
11.535,11.48,0.91,0.1171284306096674,0.1202941875073574,0.19559584355552387,0.12312004400335397,0.12203783297623769,0.30912101292925737
11.577,11.54,0.91,0.11658183655726058,0.12287867109297798,0.1951678131379032,0.12393452327559025,0.12236757012855899,0.31091943484579815
11.659,11.59,1.0,0.1160023042024404,0.12546893890782568,0.19471301659998638,0.12474217280090885,0.12268795289327883,0.31268704349467874
11.701,11.65,1.01,0.11538991976380301,0.12806383328256463,0.19423161211068216,0.12554239137672848,0.12299895553944043,0.3144233480845746
11.783,11.7,1.0,0.11474480403093795,0.13066219439127474,0.19372377942610317,0.12633458584658253,0.12330056932147895,0.316127875383172
11.804,11.76,1.02,0.1140671122160055,0.13326286153133562,0.19318971953491232,0.1271181718526952,0.12359280268988887,0.3178001699226692
11.845,11.81,1.05,0.11335703376767389,0.1358646743935188,0.1926296542866624,0.12789257457134673,0.12387568147716414,0.319439794192082
11.906,11.87,1.02,0.11261479214788218,0.13846647432012682,0.1920438260040459,0.12865722942980645,0.12414924905849269,0.32104632881643635
11.946,11.92,1.01,0.11184064457191187,0.1410671055491631,0.19143249707995968,0.1294115828037149,0.12441356648673241,0.32261937272295804
12.008,11.98,1.04,0.11103488171224707,0.14366541644264993,0.19079594956026316,0.13015509269389075,0.12466871260122743,0.3241585432943689
12.068,12.03,1.04,0.11019782736668954,0.1462602606972815,0.19013448471307637,0.1308872293815957,0.1249147841100414,0.3256634765093654
12.151,12.09,1.04,0.10932983809117526,0.14885049853559476,0.18944842258542172,0.1316074760613181,0.12515189564519516,0.32713382707030686
12.172,12.14,1.07,0.10843130279772778,0.15143499787579642,0.18873810154795656,0.13231532945017266,0.1253801797905066,0.32856926851809326
12.254,12.2,1.1,0.10750264231799155,0.15401263547833072,0.18800387782849065,0.13301030037307124,0.1255997870816479,0.3299694933341722
12.274,12.25,1.1,0.10654430893282328,0.15658229806728127,0.18724612503494525,0.13369191432288613,0.1258108859780678,0.33133421302961963
12.336,12.31,1.12,0.10555678586845717,0.15914288342483787,0.18646523366839712,0.13435971199490782,0.1260136628064663,0.33266315822128223
12.398,12.36,1.16,0.10454058675979445,0.16169330145730149,0.18566161062684094,0.1350132497949997,0.12620832167556117,0.33395607869503313
12.459,12.42,1.15,0.10349625508140632,0.16423247523134074,0.18483567870029732,0.1356521003209581,0.1263950843619429,0.3352127434562526
12.501,12.47,1.16,0.10242436354688274,0.1667593419793884,0.18398787605787226,0.13627585281669688,0.1265741901668748,0.3364329407676779
12.563,12.53,1.19,0.10132551347720138,0.16927285407318846,0.1831186557273342,0.1368841135989719,0.1267458957439586,0.33761647817475127
12.645,12.58,1.19,0.10020033413882168,0.17177197996459764,0.18222848506772651,0.1374765064564231,0.12691047489764856,0.33876318251853765
12.665,12.64,1.16,0.09904948205222305,0.1742557050928145,0.1813178452354869,0.13805267302074128,0.12706821835265386,0.3398728999362108
12.726,12.69,1.17,0.09787364027161786,0.17672303275721968,0.18038723064451653,0.13861227310976187,0.12721943349432058,0.3409454958490355
12.788,12.75,1.19,0.0966735176365857,0.17917298495496212,0.17943714842064742,0.13915498504224916,0.12736444408012637,0.34198085493772157
12.889,12.8,1.19,0.09544984799639325,0.1816046031823681,0.17846811785098304,0.1396805059240999,0.1275035899224511,0.3429788811050185
12.91,12.86,1.21,0.09420338940777079,0.18401694919928518,0.1774806698286002,0.14018855190571655,0.1276372265428095,0.3439394974254592
12.952,12.91,1.23,0.09293492330692421,0.18640910575561653,0.17647534629309422,0.14067885841039265,0.12776572479776335,0.3448626460822124
13.014,12.97,1.24,0.09164525365658498,0.18878017727949073,0.1754526996674375,0.14115118033364582,0.12788947047677549,0.34574828829105236
13.077,13.02,1.24,0.09033520606894212,0.19112929052668765,0.17441329229160946,0.1416052922134908,0.12800886387232266,0.3465964042115036
13.139,13.08,1.26,0.08900562690535409,0.19345559519105976,0.17335769585344316,0.14204098837165854,0.12812431932264542,0.34740699284525867
13.159,13.13,1.27,0.0876573823538037,0.1957582644757378,0.17228649081712893,0.1424580830257668,0.12823626472757504,0.3481800719220033
13.24,13.19,1.26,0.08629135748512165,0.1980364956249383,0.17120026584980738,0.14285641037246635,0.1283451410379395,0.3489156777728244
13.281,13.24,1.27,0.08490845528904771,0.20028951041626405,0.17009961724667014,0.14323582464166737,0.12845140171910754,0.3496138651914316
13.342,13.3,1.28,0.0835095956912226,0.20251655561351692,0.16898514835496342,0.14359620012209323,0.1285555121892854,0.3502747072834869
13.424,13.35,1.25,0.08209571455220699,0.2047169033802095,0.1678574689972622,0.1439374311585832,0.12865794923323134,0.3508982953044148
13.464,13.41,1.24,0.08066776264961069,0.20688985165415757,0.16671719489435016,0.14425943212173728,0.12875920039209882,0.35148473848614564
13.527,13.46,1.28,0.07922670464439,0.20903472448372182,0.1655649470880042,0.14456213735064624,0.12885976333015584,0.35203416385330966
13.548,13.52,1.27,0.0777735180323466,0.2111508723263904,0.1644013513639665,0.14484550106953586,0.12896014517915516,0.35254671602943
13.609,13.57,1.26,0.07630919208183627,0.2132376723104346,0.16322703767541988,0.14510949727913774,0.12906086186115479,0.35302255703365004
13.671,13.63,1.31,0.07483472675867647,0.2152945284603518,0.16204263956738127,0.14535411962346936,0.1291624373906192,0.3534618660684656
13.733,13.68,1.32,0.07335113163925135,0.21732087188675936,0.16084879360257617,0.14557938123250808,0.1292654031566757,0.3538648392988494
13.796,13.74,1.31,0.07185942481285243,0.2193161609413667,0.15964613878948747,0.14578531454107732,0.1293702971864553,0.3542316896230979
13.837,13.79,1.3,0.07036063177435574,0.22127988133769097,0.15843531601334288,0.14597197108420387,0.12947766339051187,0.3545626464356993
13.899,13.85,1.34,0.0688557843084108,0.223211546238275,0.15721696747081423,0.14613942126924534,0.12958805079138533,0.35485795538252635
13.982,13.9,1.31,0.06734591936639363,0.22511069630927644,0.15599173610918837,0.1462877541251818,0.1297020127364386,0.35511787810868384
14.003,13.96,1.3,0.0658320779374381,0.22697689974340268,0.15476026507072346,0.146417077029597,0.12982010609615346,0.35534269199938645
14.044,14.01,1.33,0.06431530391490263,0.22880975225224182,0.15352319714284363,0.14652751541403186,0.1299428904491189,0.35553268991426706
14.105,14.07,1.3,0.06279664295965988,0.2306088770290432,0.15228117421476287,0.14661921244852985,0.13007092725498953,0.35568817991548196
14.147,14.12,1.27,0.061277141361617826,0.2323739246829329,0.15103483674107634,0.14669232870628107,0.13020477901673094,0.3558094849899014
14.209,14.18,1.26,0.05975784490088386,0.23410457314547017,0.14978482321281172,0.1467470418093155,0.13034500843349747,0.35589694276557204
14.271,14.23,1.26,0.05823979770996724,0.2358005275504001,0.1485317696363911,0.14678354605622787,0.13049217754550888,0.35595090522254896
14.353,14.29,1.23,0.056724041138380886,0.23746152008745444,0.14727630902090175,0.1468020520329683,0.1306468468722987,0.35597173839815704
14.373,14.34,1.23,0.05521161262095718,0.23908730983110418,0.1460190708740114,0.14680278620782525,0.13080957454570427,0.3559598220867558
14.435,14.4,1.27,0.0537035445511587,0.24067768254525213,0.14476068070679526,0.14678599051183555,0.13098091543896453,0.3559155495341326
14.477,14.45,1.25,0.05220086316066927,0.24223245046490627,0.1435017595477077,0.14675192190593245,0.13116142029329333,0.35583932712671246
14.558,14.51,1.24,0.05070458740659567,0.24375145205586427,0.1422429234659189,0.14670085193616475,0.13135163484330664,0.35573157407582934
14.599,14.56,1.25,0.04921572786767524,0.24523455175337736,0.14098478310424783,0.14663306627830436,0.131552098942708,0.3555927220973139
14.641,14.62,1.25,0.047735285650942774,0.2466816396806762,0.13972794322193852,0.14654886427311709,0.1317633456916679,0.3554232150866322
14.723,14.67,1.21,0.04626425131033705,0.24809263134818518,0.1384730022475409,0.14644855845352947,0.13198590056736484,0.3552235087897736
14.763,14.73,1.21,0.0448036037787163,0.24946746733425987,0.1372205518421509,0.14633247406491492,0.13222028055917867,0.35499407047007975
14.804,14.78,1.21,0.043354309314717836,0.25080611294835686,0.13597117647324958,0.14620094857974641,0.13246699331004355,0.3547353785712195
14.866,14.84,1.19,0.04191732046585275,0.2521085578776448,0.13472545299937141,0.14605433120789033,0.13272653626547054,0.3544479223765479
14.929,14.89,1.16,0.04049357504918488,0.25337481581815563,0.13348395026583482,0.14589298240382423,0.13299939583174325,0.3541322016651134
14.971,14.95,1.17,0.03908399515090445,0.25460492409161084,0.1322472287117875,0.1457172733720349,0.13328604654478107,0.35378872636455594
15.073,15.0,1.14,0.037689486146070234,0.25579894324901586,0.13101583998884747,0.14552758557178952,0.13358695025115475,0.35341801620106317
15.093,15.06,1.11,0.03631093573975366,0.2569569566619905,0.1297903265916235,0.14532431022239478,0.13390255530272452,0.35302060034644855
15.153,15.11,1.12,0.03494921303078245,0.25807907010262576,0.12857122150038014,0.14510784780998803,0.13423329576635323,0.3525970170623337
15.214,15.17,1.11,0.03360516759926473,0.25916541131244275,0.1273590478360681,0.1448786075968538,0.13457959065011965,0.35214781334137957
15.256,15.22,1.08,0.03227962861907581,0.2602161295608407,0.1261543185278919,0.14463700713424266,0.13494184314743043,0.35167354454554073
15.318,15.28,1.08,0.03097340399649576,0.26123139519330424,0.12495753599352591,0.14438347177969155,0.135320439900399,0.3511747740413845
15.38,15.33,1.06,0.029687279536190297,0.2622113991696121,0.12376919183204477,0.14411843421985288,0.13571575028383337,0.3506520728326037
15.461,15.39,1.04,0.028422018135721296,0.2631563525923533,0.12258976652963627,0.14384233399977112,0.13612812571114677,0.35010601918993717
15.481,15.44,1.02,0.027178359009741828,0.2640664862262146,0.12141972917820895,0.14355561705938094,0.1365578989634732,0.349537198278793
15.524,15.5,1.03,0.02595701694496985,0.2649420500087106,0.12025953720708404,0.14325873527777744,0.13700538354323333,0.3489462017849291
15.585,15.55,1.0,0.024758681586952953,0.2657833125531982,0.11910963612803586,0.1429521460255653,0.13747087305335473,0.34833362753856184
15.648,15.61,0.96,0.023584016759540975,0.26659056064509834,0.11797045929399858,0.1426363117253662,0.13795464060330892,0.3477000791372265
15.71,15.66,0.95,0.022433659817884408,0.2673640987322221,0.11684242767177597,0.14231169942038358,0.13845693824308744,0.3470461655676239
15.771,15.72,0.94,0.02130822103568849,0.26810424840998365,0.11572594962908611,0.14197878035078954,0.1389779964261911,0.3463725008265772
15.852,15.77,0.91,0.02020828302737803,0.2688113479021284,0.11462142073626075,0.14163802953760551,0.13951802350264778,0.3456797035411616
15.873,15.83,0.9,0.019134400205768436,0.2694857515374926,0.11352922358290157,0.1412899253737027,0.14007720524300252,0.3449683965880676
15.914,15.88,0.91,0.01808709827580772,0.2701278292232622,0.11244972760978554,0.1409349492215426,0.14065570439415181,0.3442392067123331
15.976,15.94,0.88,0.01706687376495877,0.27073796591519916,0.11138328895631411,0.1405735850173009,0.14125366026782274,0.3434927641456879
16.036,15.99,0.86,0.01607419359080725,0.2713165610853356,0.1103302503238003,0.14020631888106572,0.14187118836243498,0.3427297022248627
16.097,16.05,0.87,0.015109494666483328,0.2718640281876856,0.10929094085486363,0.13983363873286736,0.14250838001902263,0.341950657010291
16.138,16.1,0.85,0.014173183544470003,0.27238079412255134,0.10826567602916061,0.1394560339143547,0.14316530211183598,0.34115626690567386
16.178,16.16,0.81,0.01326563609934057,0.2728672986999746,0.10725475757562844,0.13907399481596372,0.1438419967741803,0.3403471722789061
16.24,16.21,0.82,0.012387197249922901,0.27332399410283464,0.10625847340136853,0.13868801250943896,0.1445384811599836,0.3395240150848867
16.301,16.27,0.81,0.011538180721327604,0.27375134435002296,0.10527709753725227,0.13829857838558504,0.14525474724151285,0.3386874384907562
16.363,16.32,0.77,0.010718868847193128,0.27414982476008704,0.10431089010028585,0.13790618379715336,0.14599076164358593,0.33783808650411834
16.404,16.38,0.77,0.009929512412393074,0.2745199214157437,0.10336009727271692,0.13751131970682415,0.14674646551454454,0.3369766036048112
16.485,16.43,0.79,0.009170330536336388,0.27486213062970655,0.10242495129781659,0.13711447634029658,0.14752177443417758,0.3361036343807821
16.547,16.49,0.77,0.008441510596893036,0.2751769584122922,0.1015056704922466,0.13671614284451625,0.1483165783587049,0.3352198231686194
16.568,16.54,0.76,0.007743208194905811,0.27546491994127226,0.100602459274923,0.13631680695103565,0.14913074160285342,0.3343258136993208
16.63,16.6,0.79,0.007075547159202818,0.27572653903440775,0.09971550821229606,0.13591695464444195,0.14996410285898662,0.33342224874990034
16.69,16.65,0.78,0.006438619591997515,0.2759623476250387,0.09884499407997406,0.13551706983570722,0.15081647525318734,0.33250976980144237
16.732,16.71,0.76,0.005832485954535487,0.27617288524100736,0.09799107994061963,0.13511763404024363,0.15168764643813387,0.33158901670421015
16.794,16.76,0.78,0.005257175192802358,0.2763586984871279,0.09715391523803152,0.13471912606039946,0.15257737872255459,0.33066062735041835
16.856,16.82,0.79,0.004712684903043916,0.27652034053139646,0.09633363590729846,0.13432202167213197,0.1534854092369946,0.3297252373552762
16.919,16.87,0.78,0.00419898153677188,0.2766583705951664,0.09553036450087042,0.1339267933156469,0.1544114501355748,0.3287834797469095
16.98,16.93,0.75,0.0037160006448397295,0.27677335344758053,0.09474421033033016,0.13353390978991161,0.15535518883336635,0.32783598466575686
17.021,16.98,0.79,0.003263647160081882,0.2768658589046101,0.0939752696235705,0.13314383595109067,0.156316288278948,0.32688337907398884
17.082,17.04,0.78,0.0028417957179281616,0.27693646133304334,0.09322362569700976,0.13275703241505113,0.15729438726165476,0.3259262864754128
17.124,17.09,0.77,0.002450291014337911,0.276985739159684,0.09248934914242296,0.13237395526409862,0.15828910075296332,0.32496532664623873
17.185,17.15,0.81,0.002088948200347726,0.27701427438589415,0.09177249802793022,0.13199505575804577,0.15930002028139725,0.3240011153770139
17.289,17.2,0.81,0.0017575533124974023,0.2770226521074922,0.09107311811266845,0.13162078004962333,0.16032671434028176,0.3230342642259942
17.31,17.26,0.89,0.0014558637383796987,0.27701146003992544,0.09039124307467557,0.13125156890414452,0.16136872882763237,0.3220653802842081
17.35,17.31,0.89,0.0011836087165377593,0.27698128804862465,0.0897268947515323,0.13088785742325923,0.1624255875174301,0.32109506595243326
17.392,17.37,0.91,0.0009404898699083482,0.276932727684504,0.08908008339332688,0.13053007477259362,0.16349679256152588,0.32012391873018264
17.453,17.42,0.88,0.0007261817719759036,0.2768663717246759,0.08845080792752046,0.1301786439130876,0.16458182502142576,0.3191525310165716
17.515,17.48,0.86,0.0005403325447499385,0.27678281371860564,0.08783905623527606,0.12983398133590815,0.16568014542922394,0.31818148992266115
17.556,17.53,0.88,0.00038256448760349345,0.27668264754008715,0.08724480543877543,0.1294964968009076,0.16679119437694576,0.317211377094671
17.658,17.59,0.87,0.0002524747359235065,0.27656646694551956,0.08666802219899918,0.12916659307865253,0.167914393133528,0.3162427685473718
17.678,17.64,0.85,0.00014963594843149617,0.27643486513898025,0.08610866302339029,0.1288446656960628,0.1690491442885987,0.3152762345069594
17.721,17.7,0.89,7.359702194504308e-05,0.27628843434454414,0.08556667458275771,0.1285311026856927,0.17019483242215014,0.31431233926272806
17.783,17.75,0.9,2.3883832285061377e-05,0.2761277653862116,0.08504199403672014,0.1282262843386742,0.17135082479912953,0.31335164102687396
17.843,17.81,0.9,0.0,0.27595344727571963,0.08453454936694618,0.1279305829613456,0.17251647208791335,0.31239469180180196
17.885,17.86,0.92,1.4276795670694285e-06,0.27576606680847804,0.0840442597174165,0.1276443626356206,0.17369110910158203,0.31144203725438513
17.947,17.92,1.0,2.7628370733271045e-05,0.2755662081679128,0.08357103574092473,0.12736797898319688,0.17487405556087945,0.31049421659671117
18.029,17.97,0.98,7.804375066406027e-05,0.27535445253859864,0.08311477995105258,0.1271017789337435,0.1760646168777196,0.3095517624729078
18.049,18.03,0.98,0.00015209652556191287,0.27513137772869184,0.08267538707888157,0.12684610049723113,0.17726208495809598,0.3086152008516286
18.111,18.08,1.02,0.00024919130040046585,0.27489755780228486,0.08225274443371874,0.1266012725405966,0.17846573902325663,0.3076850509236707
18.172,18.14,1.0,0.00036871546539816595,0.2746535627223391,0.08184673226711307,0.12636761456894405,0.179674846448019,0.30676182500402027
18.234,18.19,0.97,0.0005100400978242229,0.27439995800481887,0.08145722413942158,0.12614543651148188,0.18088866361509592,0.3058460284374683
18.297,18.25,1.01,0.0006725208776875015,0.2741373043845728,0.08108408728815815,0.12593503851237783,0.18210643678427998,0.3049381595068581
18.421,18.3,1.02,0.0008554990158213448,0.2738661574934088,0.08072718299734641,0.1257367107266885,0.183327402975294,0.3040387093430078
18.442,18.36,1.02,0.0010583021928605612,0.27358706755069817,0.08038636696710187,0.1255507331215006,0.18455079086306428,0.30314816183540694
18.462,18.41,1.04,0.0012802455076130058,0.2733005790667722,0.0800614896826679,0.12537737528245146,0.18577582168412665,0.3022669935428992
18.504,18.47,1.09,0.0015206324333590896,0.2730072305593643,0.07975239678212033,0.12521689622588264,0.18700171015283937,0.30139567360370545
18.546,18.52,1.09,0.001778755780666638,0.27270755428335924,0.07945892942195294,0.12506954421697475,0.1882276653860517,0.30053466364429565
18.607,18.58,1.09,0.002053898665371078,0.27240207597411564,0.07918092463977411,0.12493555659427079,0.18945289183486644,0.2996844176867528
18.668,18.63,1.14,0.0023453354804290295,0.27209131460459113,0.07891821571338606,0.12481515960100202,0.19067659022213282,0.2988453820543526
18.79,18.69,1.15,0.0026523328704033304,0.2717757821564024,0.07867063251557582,0.12470856822358889,0.19189795848431215,0.29801799527511436
18.81,18.74,1.14,0.0029741507073775646,0.2714559834048212,0.0784380018640064,0.12461598603762485,0.19311619271636343,0.2972026879830899
18.852,18.8,1.17,0.00331004306712136,0.27113241571759206,0.07822014786563489,0.12453760506162165,0.19433048811829678,0.29639988281715485
18.913,18.85,1.19,0.0036592592043302855,0.27080556886740775,0.07801689225509544,0.12447360561881347,0.1955400399420447,0.29560999431705914
18.934,18.91,1.21,0.00402104452574859,0.27047592485788696,0.07782805472647841,0.12442415620738011,0.19674404443729915,0.29483342881649954
18.997,18.96,1.23,0.004394641559961135,0.2701439577629578,0.07765345325791961,0.1243894133795383,0.19794169979495768,0.29407058433301053
19.06,19.02,1.28,0.004779290922638425,0.2698101335796141,0.07749290442839617,0.12436952163004932,0.19913220708681983,0.29332185045451165
19.121,19.07,1.29,0.005174232276050222,0.2694749100940489,0.07734622372613308,0.12436461329475834,0.20031477120018806,0.292587608222401
19.161,19.13,1.32,0.005578705281716478,0.26913873676118505,0.0772132258480502,0.12437480845980221,0.20148860176604877,0.291868230011128
19.202,19.18,1.36,0.005991950545113719,0.26880205459762335,0.07709372498971866,0.12440021488210172,0.20265291407954275,0.29116407940422545
19.265,19.24,1.38,0.006413210551385957,0.2684652960880142,0.07698753512534545,0.12444092792169666,0.20380693001147362,0.2904755110668206
19.327,19.29,1.37,0.006841730591021798,0.26812888510484006,0.0768944702773634,0.12449703048640427,0.20494987890964553,0.28980287061469306
19.388,19.35,1.41,0.0072767596744662995,0.2677932368415878,0.0768143447752654,0.12456859298920023,0.20608099848886163,0.2891464944800086
19.428,19.4,1.42,0.007717551434649181,0.2674587577593087,0.07674697350338604,0.12465567331866151,0.20719953570845553,0.2885067097739397
19.489,19.46,1.41,0.008163365016424371,0.26712584554661134,0.07669217213739338,0.12475831682278442,0.20830474763625634,0.2878838341464653
19.551,19.51,1.45,0.008613465951917282,0.26679488909320853,0.07664975736929475,0.12487655630650013,0.20939590229791166,0.28727817564372904
19.613,19.57,1.51,0.009067127020772127,0.2664662684772007,0.07661954712079107,0.12501041204322297,0.21047227951051153,0.28669003256338
19.696,19.62,1.51,0.009523629094296934,0.26614035496627675,0.07660136074485033,0.1251598918007184,0.21153317169947594,0.2861196933083352
19.737,19.68,1.53,0.009982261962525583,0.26581751103296014,0.07659501921542408,0.12532499088144244,0.21257788469770075,0.28556743623937075
19.758,19.73,1.58,0.01044232514325736,0.2654980903839417,0.07660034530529351,0.1255056921773195,0.21360573852600404,0.2850335295268927
19.86,19.79,1.61,0.010903128672194217,0.2651824380034561,0.07661716375208352,0.1257019662387645,0.21461606815397377,0.28451823100217566
19.88,19.84,1.59,0.011363993873360356,0.2648708902106017,0.0766453014125054,0.12591377135767878,0.21560822424038117,0.28402178800835004
19.92,19.9,1.64,0.011824254109045796,0.26456377473050574,0.07668458740486908,0.12614105366417638,0.21658157385238405,0.28354443725144246
20.043,19.95,1.66,0.01228325550857022,0.26426141077928267,0.07673485323987365,0.1263837472368894,0.21753550116280757,0.28308640465181106
20.063,20.01,1.66,0.012740357675216066,0.2639641091627812,0.07679593293966377,0.12664177422679662,0.2184694081248478,0.2826479051963523
20.084,20.06,1.65,0.01319493437072056,0.26367217238916546,0.07686766314514308,0.12691504499458864,0.21938271512359553,0.2822291427918882
20.147,20.12,1.69,0.01364637417674294,0.2633858947954029,0.07694988321156385,0.12720345826159776,0.22027486160382395,0.28183031012015475
20.23,20.17,1.65,0.01409408113274197,0.263105562687691,0.07704243529247061,0.1275069012742738,0.22114530667352286,0.28145158849480295
20.251,20.23,1.64,0.014537475349707946,0.2628314544957552,0.07714516441216022,0.1278252499820753,0.22199352968269034,0.2810931477208038
20.332,20.28,1.68,0.014975993599191991,0.26256384094080454,0.07725791852690965,0.12815836922850599,0.222819030776904,0.28075514595661294
20.393,20.34,1.72,0.01540908987707937,0.26230298521675033,0.0773805485753026,0.12850611295488476,0.2236213314251993,0.2804377295794262
20.435,20.39,1.72,0.015836235941578698,0.2620491431841265,0.07751290851804621,0.12886832441631668,0.22439997492178448,0.28014103305386384
20.497,20.45,1.74,0.016256921824945595,0.26180256357604664,0.07765485536770958,0.12924483640925213,0.22515452686113627,0.279865178804468
20.598,20.5,1.8,0.016670656318523915,0.2615634882155216,0.07780624920884747,0.12963547150998833,0.22588457558606137,0.27961027709245473
20.619,20.56,1.8,0.017076967430769047,0.2613321522434561,0.07796695320900131,0.1300400423234669,0.22658973260836668,0.27937642589721007
20.66,20.61,1.81,0.017475402818011146,0.2611087843565904,0.07813683362109206,0.13045835174174736,0.22726963300184852,0.27916371080303887
20.721,20.67,1.86,0.0178655301878103,0.26089360705452075,0.07831575977774202,0.13089019321156525,0.22792393576738565,0.27897220489164626
20.763,20.72,1.86,0.018246937674832944,0.2606868368947773,0.07850360407807984,0.13133535101039834,0.22855232416999968,0.27880196864072837
20.826,20.78,1.84,0.018619234189225217,0.2604886847548106,0.07870024196757487,0.13179360053047862,0.22915450604782003,0.27865304982890815
20.886,20.83,1.84,0.01898204973747994,0.2602993560996384,0.07890555191140562,0.13226470857023034,0.2297302140929602,0.27852548344709277
20.947,20.89,1.85,0.0193350357158092,0.26011905125381213,0.07911941536181048,0.13274843363267558,0.23027920610437247,0.27841929161617557
21.008,20.94,1.81,0.019677865176046628,0.25994796567628636,0.07934171671982217,0.13324452623040114,0.23080126521278435,0.27833448351089307
21.049,21.0,1.83,0.020010233064099946,0.2597862902367728,0.07957234329174825,0.1337527291967273,0.23129620007784382,0.27827105528957724
21.091,21.05,1.86,0.02033185643095615,0.2596342114922283,0.0798111852407242,0.1342727780027647,0.23176384505760264,0.2782289900295015
21.131,21.11,1.79,0.0206424746162281,0.2594919119622162,0.08005813553362998,0.13480440108008662,0.23220406035047153,0.2782082576675063
21.193,21.16,1.79,0.02094184940424073,0.2593595704019431,0.08031308988363046,0.1353473201487631,0.23261673210978132,0.27820881494561084
21.255,21.22,1.81,0.02122976515269329,0.25923736207180653,0.08057594668857566,0.13590125055048838,0.23300177253108886,0.2782306053613661
21.357,21.27,1.83,0.021506028893993313,0.2591254590022693,0.08084660696549671,0.13646590158647506,0.23335911991236027,0.27827355912278434
21.399,21.33,1.83,0.021770470409419998,0.2590240302528393,0.08112497428144472,0.13704097685970318,0.2336887386871517,0.2783375931077989
21.419,21.38,1.85,0.02202294227632709,0.25893324216391866,0.08141095468092698,0.13762617462104146,0.2339906194309044,0.2784226108283345
21.461,21.44,1.87,0.022263319888643537,0.25885325860031083,0.08170445661019063,0.1382211881187274,0.23426477884048916,0.27852850239917887
21.523,21.49,1.84,0.0224915014509743,0.2587842411852461,0.08200539083859323,0.13882570595070717,0.2345112596871739,0.2786551445119189
21.607,21.55,1.83,0.0227074079466371,0.25872634952390466,0.08231367037728383,0.13943941241939276,0.23473013074323176,0.2788024004142527
21.627,21.6,1.84,0.02291098307999062,0.25867974141555633,0.08262921039540946,0.14006198788844995,0.23492148668244703,0.2789701198950163
21.688,21.66,1.81,0.023102193193419916,0.25864457305354155,0.08295192813407284,0.14069310914123653,0.23508544795480224,0.2791581392752828
21.75,21.71,1.8,0.02328102715934023,0.25862099921236625,0.08328174281828209,0.14133244974045547,0.23522216063563414,0.27936628140590103
21.811,21.77,1.82,0.02344749624756033,0.25860917342116907,0.08361857556713899,0.14197968038851402,0.23533179624953762,0.27959435567181967
21.853,21.82,1.82,0.023601633968317375,0.25860924812276614,0.08396234930250245,0.1426344692880079,0.23541455156928137,0.27984215800349527
21.916,21.88,1.83,0.02374349589126208,0.25862137481743963,0.08431298865633705,0.1432964825017046,0.23547064838998452,0.2801094708956379
21.979,21.93,1.87,0.02387315944064023,0.25864570419070876,0.0846704198769183,0.1439653843113955,0.2355003332787997,0.2803960634335324
22.08,21.99,1.9,0.023990723666899166,0.2586823862245194,0.08503457073403344,0.14464083757502008,0.23550387730036332,0.28070169132719064
22.1,22.04,1.89,0.024096308994960427,0.2587315702915473,0.08540537042329654,0.14532250408152772,0.23548157571830836,0.2810260969536259
22.141,22.1,1.89,0.024190056949445114,0.25879340523254063,0.08578274946967399,0.1460100449030317,0.23543374767318564,0.281369009407573
22.183,22.15,1.93,0.024272129857208516,0.25886803941678727,0.0861666396302787,0.14670312074390196,0.23536073583720427,0.2817301445609931
22.244,22.21,1.91,0.024342710527622085,0.2589556207858681,0.08655697379644631,0.1474013922864877,0.23526290604626482,0.2821092051316964
22.306,22.26,1.89,0.02440200191111778,0.25905629688086484,0.08695368589506584,0.14810452053314713,0.2351406469098132,0.2825058807613999
22.388,22.32,1.9,0.024450226736574383,0.259170214853127,0.08735671078911336,0.14881216714422546,0.23499436939908755,0.2829198481034968
22.428,22.37,1.89,0.024487627128171728,0.25929752145860874,0.08776598417732905,0.14952399477159733,0.23482450641436536,0.2833507709207475
22.448,22.43,1.85,0.02451446420235673,0.259438363035704,0.08818144249296855,0.15023966738740083,0.2346315123318367,0.2837983001930577
22.51,22.48,1.84,0.024531017645554373,0.2595928854664911,0.08860302280153246,0.15095885060764036,0.23441586253073107,0.28426207423551614
22.571,22.54,1.83,0.024537585273231043,0.25976123412131946,0.08903066269734959,0.1516812120104018,0.23417805290131694,0.2847417188269075
22.612,22.59,1.82,0.02453448257088507,0.25994355378671957,0.08946430019888027,0.1524064214484645,0.2339185993343689,0.28523684734898413
22.694,22.65,1.84,0.024522042217490544,0.2601399885767242,0.08990387364261475,0.15313415135611597,0.23363803719266685,0.2857470609368474
22.735,22.7,1.88,0.02450061359185336,0.2603506818278735,0.09034932157546256,0.15386407704998042,0.23333692076506268,0.2862719486408271
22.797,22.76,1.86,0.024470562262268108,0.26057577597840925,0.0908005826455653,0.15459587702365046,0.23301582270364196,0.28681108760024365
22.899,22.81,1.86,0.024432269459813177,0.2608154124323752,0.09125759549151492,0.15532923323584685,0.23267533344451988,0.2873640432293838
22.92,22.87,1.92,0.02438613153560854,0.2610697314094932,0.09172029863000959,0.15606383139175395,0.23231606061284873,0.287930369415938
22.961,22.92,1.93,0.024332559402391683,0.2613388717817477,0.0921886303420216,0.15679936121709634,0.23193862841265755,0.2885096087320469
23.001,22.98,1.9,0.024271977960825974,0.2616229708976283,0.09266252855758103,0.15753551672446423,0.23154367700219583,0.2891012926580133
23.061,23.03,1.92,0.024204825511024358,0.2619221643949893,0.09314193073929691,0.15827199647136916,0.23113186185551007,0.28970494181863893
23.166,23.09,1.91,0.024131553149840213,0.26223658600351674,0.09362677376476113,0.1590085038095189,0.23070385311103933,0.29032006623204654
23.186,23.14,1.89,0.024052624154532826,0.2625663673378765,0.09411699380802335,0.1597447471248202,0.2302603349080654,0.2909461655707923
23.228,23.2,1.87,0.023968513353439958,0.26291163768276404,0.09461252622038017,0.16048044006765375,0.22980200471188103,0.2915827294350574
23.288,23.25,1.88,0.023879706484289442,0.2632725237712496,0.09511330541077025,0.16121530177301074,0.22932957262855608,0.292229237637705
23.351,23.31,1.83,0.023786699540770742,0.26364914955791696,0.09561926472610575,0.16194905707012047,0.22884376071018556,0.29288516050097196
23.392,23.36,1.8,0.02368999810797228,0.2640416359882944,0.09613033633189251,0.16268143668121413,0.22834530225149893,0.2935499591645265
23.454,23.42,1.83,0.023590116687271744,0.26445010076598013,0.09664645109349793,0.16341217740906971,0.2278349410786951,0.29422308590456114
23.558,23.47,1.83,0.023487578011251658,0.2648746581186954,0.0971675384584183,0.16414102231298003,0.22731343083134525,0.2949039844635364
23.579,23.53,1.81,0.0233829123492078,0.2653154185643178,0.0976935263398676,0.16486772087280327,0.2267815342381791,0.2955920903901534
23.62,23.58,1.82,0.023276656803828885,0.26577248867782793,0.09822434100197151,0.1655920291408018,0.2262400223875535,0.29628683138913753
23.702,23.64,1.84,0.023169354599662167,0.26624597086006496,0.09875990694683,0.16631370988102773,0.2256896739934056,0.29698762768042325
23.724,23.69,1.82,0.023061554364039283,0.2667359631091943,0.0993001468037211,0.16703253269605337,0.22513127465750382,0.2976938923673543
23.784,23.75,1.81,0.02295380940120432,0.2672425587958252,0.09984498122074502,0.16774827414086757,0.22456561612883383,0.2984050318135478
23.825,23.8,1.82,0.022846676960451093,0.2677658464427526,0.1003943287592268,0.168460717823777,0.2239934955609745,0.2991204460281073
23.927,23.86,1.79,0.022740717499141368,0.2683059095102952,0.10094810579120325,0.1691696544941648,0.2234157147683439,0.2998395290588846
23.949,23.91,1.76,0.02263649394154715,0.2688628261881448,0.101506226400312,0.1698748821169847,0.2228330794822052,0.30056166939351114
24.01,23.97,1.76,0.02253457093454146,0.26943666919450304,0.10206860228638195,0.170576205933906,0.222246398607324,0.30128625036791573
24.071,24.02,1.74,0.02243551410124861,0.27002750558308036,0.1026351426740141,0.17127343851106855,0.22165648348015693,0.30201265058206606
24.133,24.08,1.7,0.022339889293839062,0.27063539655831204,0.10320575422544395,0.1719663997734382,0.2210641471294267,0.30274024432271
24.174,24.13,1.71,0.022248261846695514,0.2712603972989818,0.10378034095799189,0.1726549170257659,0.2204702035399062,0.30346840199294994
24.278,24.19,1.68,0.02216119583117902,0.2719025567903472,0.10435880416643546,0.17333882496013472,0.21987546692019666,0.3041964905485292
24.299,24.24,1.65,0.022079253313178154,0.27256191766483423,0.10494104235067689,0.1740179656500381,0.21928075097524757,0.30492387394071147
24.341,24.3,1.63,0.022002993614532135,0.2732385160514124,0.10552695114909905,0.17469218853091936,0.21868686818432764,0.3056499135655996
24.382,24.35,1.69,0.021932972579315136,0.273932381433827,0.10611642327799466,0.1753613503671281,0.21809462908511373,0.30637396871970424
24.443,24.41,1.67,0.021869741845902846,0.2746435365178946,0.10670934847743149,0.17602531520527356,0.21750484156452612,0.3070953970615648
24.505,24.46,1.66,0.02181384812572938,0.27537199710804666,0.10730561346390684,0.17668395431395412,0.2169183101569036,0.3078135550792468
24.546,24.52,1.68,0.021765832489672492,0.2761177719932355,0.10790510189015147,0.17733714610982934,0.2163358353501023,0.3085277985635438
24.649,24.57,1.68,0.021726229663065352,0.27688086284220037,0.10850769431245881,0.17798477607000235,0.21575821290010974,0.3092374830866871
24.671,24.63,1.66,0.02169556733040741,0.2776612641079506,0.10911326816590682,0.17862673663072687,0.21518623315477609,0.3099419644863488
24.712,24.68,1.66,0.02167436545090927,0.27845896294123773,0.10972169774777737,0.1792629270725729,0.21462068038727466,0.3106405993547333
24.773,24.74,1.67,0.021663135586038086,0.279273939112794,0.11033285420937491,0.17989325339236742,0.21406233213991055,0.3113327455325719
24.814,24.79,1.64,0.021662380240225983,0.2801061649441987,0.11094660555634603,0.18051762816241146,0.21351195857890354,0.3120177626078444
24.876,24.85,1.6,0.02167259221586542,0.2809556052473295,0.1115628166575296,0.1811359703776294,0.2129703218607697,0.3126950124190356
24.937,24.9,1.62,0.0216942539836575,0.2818222172724029,0.11218134926231557,0.18174820529140168,0.21243817551091668,0.3133638595626718
25.021,24.96,1.6,0.021727837069316722,0.2827059506645443,0.11280206202644845,0.18235426424086262,0.2119162638150467,0.31402367190480185
25.06,25.01,1.58,0.02177380145757013,0.2836067474286752,0.11342481054616023,0.18295408446243167,0.21140532122392572,0.31467382109600034
25.101,25.07,1.59,0.02183259501432502,0.28452454190233567,0.11404944740044759,0.18354760889835064,0.21090607177203957,0.3153136830894057
25.142,25.12,1.6,0.02190465292783546,0.2854592607359005,0.11467582220124439,0.1841347859950188,0.21041922851062625,0.31594263866125094
25.204,25.18,1.57,0.021990397169680723,0.28641082287955205,0.11530378165120843,0.18471556949394521,0.20994549295554885,0.31656007393334124
25.266,25.23,1.58,0.022090235976363174,0.2873791395763907,0.1159331696088443,0.18528991821617222,0.20948555455045803,0.3171653808969644
25.328,25.29,1.6,0.022204563352322376,0.2883641143611863,0.11656382716072247,0.18585779584107115,0.20904009014568206,0.3177579579377731
25.368,25.34,1.58,0.022333758595139544,0.289365643064445,0.11719559270062914,0.18641917068044087,0.20860976349327698,0.31833721036121415
25.45,25.4,1.55,0.022478185843668008,0.29038361382163097,0.11782830201557151,0.18697401544883613,0.20819522475866423,0.31890255091808645
25.512,25.45,1.58,0.02263819364977494,0.2914179070875038,0.11846178837863364,0.18752230703102288,0.2077971100492809,0.3194534003297812
25.533,25.51,1.56,0.022814114574325983,0.29246839565558275,0.11909588264871532,0.18806402624739624,0.207416040960664,0.3199891878126974
25.596,25.56,1.51,0.023006264807989694,0.2935349446827271,0.11973041337720172,0.1885991576181104,0.20705262414037745,0.32050935160126753
25.657,25.62,1.5,0.023214943817381498,0.29461741171876,0.12036520692161405,0.1891276891265748,0.20670745087016903,0.321013339468968
25.74,25.67,1.49,0.02344043401700587,0.29571564674097883,0.1210000875662899,0.18964961198288227,0.20638109666671828,0.3215006092466349
25.76,25.73,1.46,0.023683000467382562,0.2968294921933313,0.12163487765014269,0.19016492038765814,0.20607412090129207,0.32197062933739284
25.823,25.78,1.46,0.023942890599652947,0.29795878303002155,0.12226939770154696,0.19067361129676558,0.20578706643857178,0.32242287922753
25.864,25.84,1.5,0.024220333966867423,0.2991033467633441,0.12290346658038902,0.19117568418728206,0.20552045929485452,0.32285684999271175
25.927,25.89,1.47,0.024515542022080002,0.3002630035155925,0.12353690162731196,0.1916711408251616,0.2052748083157784,0.32327204479897387
25.99,25.95,1.48,0.02482870792333503,0.3014375660749208,0.12416951882016578,0.19215998503500653,0.20505060487368734,0.3236679793979518
26.03,26.0,1.51,0.02516000636562375,0.30262683995504674,0.12480113293765382,0.19264222247236687,0.20484832258473434,0.32404418261575885
26.132,26.06,1.49,0.02550959343989531,0.30383062345865114,0.12543155773015663,0.19311786039894424,0.20466841704581923,0.32440019683483745
26.153,26.11,1.46,0.02587760651920136,0.30504870774429205,0.12606060609770117,0.1935869074610239,0.20451132559146054,0.32473557846799767
26.194,26.17,1.46,0.026264164172023798,0.30628087689662387,0.12668809027502023,0.1940493734714443,0.20437746707070126,0.3250498984237603
26.256,26.22,1.44,0.026669366102790984,0.30752690799970267,0.1273138220236045,0.19450526919545347,0.20426724164414342,0.3253427425620495
26.318,26.28,1.4,0.027093293119530296,0.3087865712131801,0.12793761283060776,0.19495460614088447,0.2041810306011808,0.3256137121392662
26.38,26.33,1.38,0.027536007128525095,0.3100596298512743,0.12855927411441148,0.19539739635318412,0.20411919619745705,0.32586242424181006
26.484,26.39,1.4,0.027997551155742487,0.3113458404645442,0.12917861743659523,0.19583365221592006,0.20408208151251847,0.3260885122071831
26.504,26.44,1.38,0.02847794939468483,0.3126449529246418,0.12979545472001214,0.19626338625742273,0.20407001032756486,0.3262916260318767
26.546,26.5,1.38,0.02897720728020634,0.31395671051233265,0.13040959847263572,0.19668661096417955,0.20408328702313114,0.326471432765286
26.608,26.55,1.4,0.029495311587744707,0.3152808500091529,0.13102086201683183,0.19710333860149784,0.20412219649647975,0.32662761688890246
26.629,26.61,1.41,0.030032230557363395,0.3166171017930678,0.13162905972371428,0.19751358104181438,0.20418700409844207,0.3267598806800185
26.692,26.66,1.39,0.030587914041982727,0.3179651899384446,0.1322340072522519,0.19791734960090504,0.20427795558941936,0.32686794455918033
26.754,26.72,1.43,0.03116229367918676,0.3193248323205652,0.13283552179277783,0.19831465488218714,0.20439527711423733,0.3269515474206512
26.838,26.77,1.43,0.03175528308601754,0.3206957407248317,0.13343342231452962,0.19870550662931916,0.2045391751955362,0.3270104469451844
26.858,26.83,1.41,0.03236677807618935,0.32207762096079157,0.13402752981682614,0.1990899135873397,0.20470983674537838,0.3270444198944462
26.922,26.88,1.4,0.032996656899150024,0.3234701729811842,0.134617667583488,0.1994678833726203,0.20490742909475368,0.32705326238648186
26.981,26.94,1.42,0.033644780500382714,0.3248730910063598,0.13520366144011695,0.1998394223519206,0.20513210004066218,0.3270367901516745
27.023,26.99,1.38,0.03431099280228544,0.326286063654568,0.13578534001386827,0.20020453553082068,0.20538397791044097,0.3269948387687101
27.085,27.05,1.34,0.034995121004891244,0.3277087740787088,0.13636253499535933,0.20056322645176192,0.20566317164297515,0.3269272638801107
27.127,27.1,1.37,0.03569697590560573,0.32914090011015285,0.13693508140234806,0.200915497101867,0.20596977088639448,0.3268339413869129
27.229,27.16,1.38,0.036416352237056665,0.33058211441015944,0.13750281784478438,0.2012613478306377,0.20630384611180852,0.3267147676220691
27.25,27.21,1.37,0.03715302902208906,0.33203208462928774,0.13806558679078532,0.20160077727758105,0.20666544874257822,0.3265696595021541
27.291,27.27,1.43,0.03790676994490708,0.33349047357508854,0.1386232348330147,0.20193378230980868,0.20705461129856947,0.3263985546569951
27.373,27.32,1.44,0.03867732373736756,0.33495693938832444,0.13917561295489686,0.20226035796967703,0.20747134755480648,0.3262014115368851
27.434,27.38,1.43,0.03946442457945838,0.33643113572798444,0.13972257679606942,0.20258049743254142,0.20791565271394027,0.32597820949708856
27.475,27.43,1.43,0.040267792513036575,0.33791271196542555,0.14026398691649333,0.202894191974679,0.20838750359196542,0.32572894885939896
27.577,27.49,1.46,0.041087133867947066,0.3394013133880288,0.14079970905866104,0.20320143095139298,0.20888685881663946,0.3254536509505721
27.597,27.54,1.44,0.041922141699687526,0.34089658141279433,0.1413296144073895,0.2035022017852424,0.20941365903807535,0.3251523581175359
27.638,27.6,1.43,0.04277249623781144,0.34239815381031824,0.14185357984673647,0.2037964899642442,0.20996782715097728,0.3248251337193569
27.721,27.65,1.47,0.04363786534426225,0.34390566493961244,0.14237148821363488,0.20408427904978488,0.21054926852798275,0.3244720620959941
27.742,27.71,1.47,0.04451790498080808,0.3454187459942233,0.1428832285478823,0.20436555069386483,0.21115787126356503,0.32409324851387145
27.783,27.76,1.48,0.045412259684709994,0.3469370252600543,0.14338869633813317,0.20464028466522777,0.21179350642794298,0.323688819088265
27.865,27.82,1.52,0.04632056305173478,0.34846012838513035,0.14388779376351843,0.20490845888391643,0.212456028330443,0.32325892068244544
27.97,27.87,1.56,0.047242438225653126,0.3499876786611955,0.1443804299304838,0.20517004946383213,0.21314527479176718,0.3228037207834578
28.01,27.93,1.56,0.0481774983934475,0.35151929731658604,0.1448665211044221,0.20542503076292962,0.21386106742464545,0.32232340735441206
28.03,27.98,1.59,0.04912534728555691,0.3530546038194624,0.14534599093568065,0.20567337544074335,0.21460321192238554,0.32181818866318207
28.071,28.04,1.62,0.050085579680581534,0.35459321619030626,0.1458187706795481,0.2059150545230088,0.21537149835488645,0.321288293087458
28.132,28.09,1.61,0.05105778191395663,0.35613475132254196,0.14628479940985342,0.20615003747320573,0.21616570147173447,0.3207339688961234
28.173,28.15,1.56,0.0520415323901742,0.35767882531017225,0.14674402422582783,0.20637829227091053,0.21698558101205356,0.3201554840069469
28.237,28.2,1.58,0.0530364020981778,0.3592250537814008,0.14719640045188126,0.20659978549688499,0.21783088202082132,0.3195531257205883
28.317,28.26,1.58,0.05404195512958162,0.36077305223727907,0.14764189182994583,0.20681448242482442,0.218701335171383,0.3189272004309658
28.337,28.31,1.55,0.055057749199368754,0.3623224363944324,0.14808047070404476,0.2070223471196331,0.21959665709389045,0.3182780333121322
28.399,28.37,1.56,0.05608333616870536,0.36387282253089237,0.14851211819675456,0.20722334254203834,0.22051655070936718,0.31760596798195107
28.461,28.42,1.57,0.05711826256947719,0.36542382783401256,0.14893682437724098,0.20741743065930826,0.22146070556907008,0.3169113661429935
28.502,28.48,1.58,0.05816207013011248,0.36697507074941765,0.14935458842057645,0.20760457256181913,0.22242879819879063,0.31619460720116854
28.565,28.53,1.61,0.05921429630220703,0.36852617132997445,0.1497654187580684,0.2077847285852394,0.22342049244771808,0.3154560878626574
28.689,28.59,1.64,0.06027447478743094,0.37007675158387116,0.1501693332183532,0.20795785843814737,0.22443543984147554,0.3146962217097562
28.71,28.64,1.62,0.06134213606419444,0.3716264358210131,0.15056635915904215,0.20812392133494206,0.22547327993895036,0.31391543875625716
28.73,28.7,1.64,0.062416807913575886,0.37317485099707465,0.15095653358873795,0.2082828761339264,0.2265336406925636,0.3131141849830124
28.792,28.75,1.69,0.0634980159440538,0.3747216270546566,0.15133990327925526,0.2084346814804605,0.22761613881165718,0.3122929218543351
28.832,28.81,1.69,0.06458528411462759,0.3762663972610451,0.15171652486788165,0.2085792959550934,0.2287203801287099,0.31145212581590376
28.893,28.86,1.67,0.0656781352559494,0.37780879854204996,0.15208646494950973,0.2087166782265922,0.22984595996812332,0.3105922877748397
28.953,28.92,1.67,0.06677609158912169,0.3793484718113445,0.15244980015845006,0.20884678720980182,0.23099246351735256,0.3097139125626033
29.076,28.97,1.67,0.06787867524184432,0.3808850622946476,0.15280661723971592,0.20896958222828815,0.2321594662001924,0.3088175183813153
29.096,29.03,1.63,0.06898540876161822,0.3824182198480136,0.1531570131095605,0.20908502318172192,0.23334653405204522,0.30790363623409767
29.138,29.08,1.66,0.07009581562571769,0.3839475992694806,0.15350109490504626,0.20919307071796517,0.23455322409699428,0.30697280934006127
29.158,29.14,1.69,0.07120942074763033,0.38547286060335806,0.15383898002243224,0.20929368640983634,0.23577908472648074,0.3060255925346521
29.221,29.19,1.67,0.0723257509796434,0.3869936694364993,0.15417079614417592,0.20938683293654634,0.23702365607935585,0.3050625516561664
29.283,29.25,1.68,0.0734443356112404,0.3885096971859722,0.15449668125435934,0.209472474269816,0.23828647042305864,0.3040842629193465
29.345,29.3,1.73,0.07456470686297173,0.39002062137761806,0.15481678364236753,0.20955057586468576,0.23956705253566307,0.3030913122770338
29.407,29.36,1.72,0.07568640037549115,0.3915261259150226,0.1551312618946773,0.20962110485498997,0.24086492008855048,0.3020842947708939
29.449,29.41,1.73,0.07680895569349293,0.3930259013384132,0.15544028487464473,0.20968403025339727,0.24217958402947945,0.30106381387223596
29.491,29.47,1.76,0.07793191674433289,0.3945196450729628,0.15574403169020987,0.2097393231558558,0.24351054896584876,0.30003048081393885
29.552,29.52,1.76,0.07905483231116006,0.3960070616659476,0.156042691649482,0.20978695695020544,0.2448573135479802,0.2989849139144525
29.613,29.58,1.74,0.0801772565004249,0.397487863012183,0.1563364642042516,0.20982690752860209,0.24621937085227094,0.2979277378947934
29.676,29.63,1.74,0.08129874920366097,0.39896176856716686,0.1566255588815857,0.2098591535032295,0.24759620876408797,0.29685958318941935
29.718,29.69,1.75,0.082418876553451,0.4004285055473961,0.15691019520377059,0.20988367642461012,0.24898731036028904,0.2957810852518517
29.78,29.74,1.74,0.08353721137348286,0.4018878091173721,0.1571906025969386,0.20990046100171758,0.2503921542912518,0.29469288385592646
29.842,29.8,1.74,0.08465333362257083,0.4033394225628714,0.1574670202887321,0.2099094953230719,0.2518102151622766,0.2935956223935648
29.902,29.85,1.8,0.08576683083247304,0.40478309745011337,0.15773969719532963,0.20991077107803466,0.25324096391421014,0.2924899471699506
29.944,29.91,1.79,0.08687729853930044,0.4062185937704853,0.15800889179811556,0.2099042837775572,0.2546838682031185,0.2913765066969731
30.005,29.96,1.79,0.08798434070829406,0.4076456800705308,0.1582748720102543,0.20989003297363149,0.2561383927788394,0.2902559509857532
30.047,30.02,1.83,0.08908757015174887,0.4090641335669756,0.15853791503343753,0.20986802247664108,0.2576039998622568,0.28912893083901675
30.152,30.07,1.84,0.09018660893988191,0.41047374024664846,0.15879830720514124,0.20983826056971153,0.2590801495211685,0.2879960971440202
30.172,30.13,1.83,0.09128108880446707,0.41187429495123756,0.15905634383684122,0.2098007602190284,0.26056630004464104,0.28685810016668395
30.212,30.18,1.85,0.09237065153508364,0.41326560144690644,0.15931232904374765,0.2097555392789859,0.26206190831577103,0.285715588847576
30.272,30.24,1.85,0.09345494936784783,0.4146474724788857,0.15956657556667045,0.20970262069097725,0.26356643018279013,0.2845692101003944
30.313,30.29,1.83,0.09453364536651837,0.416019729811226,0.15981940458663202,0.20964203267463863,0.26507932082846963,0.28341960811362205
30.395,30.35,1.82,0.09560641379588286,0.41738220425194283,0.1600711455328247,0.20957380891037916,0.2666000351377871,0.2822674236560743
30.437,30.4,1.87,0.09667294048733337,0.41873473566379316,0.16032213588450162,0.20949798871204223,0.2681280280638122,0.2811132933870987
30.518,30.46,1.86,0.09773292319652431,0.4200771729608984,0.1605727209673905,0.20941461718852575,0.26966275499175385,0.27995784917220473
30.58,30.51,1.86,0.09878607195298023,0.42140937409138735,0.1608232537452221,0.20932374539315324,0.2712036721010906,0.278801717404887
30.601,30.57,1.88,0.09983210940150149,0.42273120600618624,0.16107409460696895,0.2092254304595476,0.27275023672569837,0.27764551833534423
30.664,30.62,1.89,0.10087077113522017,0.4240425446140344,0.1613256111504003,0.20911973572273063,0.27430190771189056,0.27648986540674425
30.725,30.68,1.88,0.10190180602017732,0.4253432747227597,0.16157817796257926,0.20900673082416876,0.27585814577428935,0.27533536459966523
30.787,30.73,1.92,0.10292497651131348,0.42663328996683975,0.1618321763979351,0.2088864917995172,0.2774184138494523,0.274182613785381
30.828,30.79,1.94,0.10394005895977958,0.4279124927213154,0.16208799435456855,0.2087591011478708,0.2789821774471791,0.2730322020887149
30.889,30.84,1.92,0.1049468439114806,0.42918079400220815,0.16234602604947151,0.2086246478813874,0.28054890499943286,0.2718847092612359
30.931,30.9,1.92,0.10594513639675246,0.4304381133537603,0.16260667179336455,0.20848322755422063,0.2821180682068211,0.27074070506559766
30.993,30.95,1.94,0.10693475621104387,0.4316843787230129,0.16287033776583668,0.20833494226980845,0.28368914238259735,0.2696007486718168
31.056,31.01,1.92,0.10791553818644892,0.4329195263223756,0.16313743579139386,0.20817990066576741,0.28526160679414586,0.268465388066258
31.097,31.06,1.92,0.10888733245391286,0.43414350048086403,0.1634083831168653,0.20801821787598318,0.2868349450019071,0.2673351594740288
31.16,31.12,1.95,0.10985000469591773,0.43535625348461127,0.16368360219041123,0.20785001546990142,0.2884086451956815,0.266210586795403
31.264,31.17,1.98,0.11080343638944597,0.43655774540715436,0.163963520442195,0.20767542136936568,0.2899822005282294,0.26509218105680343
31.285,31.23,1.98,0.11174752503901982,0.4377479439299453,0.1642485700666668,0.20749456974353886,0.291555109446064,0.26398043987682407
31.327,31.28,2.0,0.11268218439961207,0.4389268241536015,0.16453918780633714,0.2073076008825449,0.2931268760173305,0.2628758469477522
31.369,31.34,2.0,0.11360734468922044,0.44009436840056254,0.1648358147368832,0.20711466105055026,0.29469701025667083,0.26177887153303897
31.429,31.39,2.01,0.11452295279090066,0.44125056601000573,0.16513889605341667,0.206915902319092,0.2962650284469936,0.2606899679811614
31.491,31.45,1.98,0.1154289724440615,0.44239541312605274,0.16544888085773593,0.2067114823815654,0.2978304534580864,0.2596095752563507
31.531,31.5,2.02,0.11632538442484294,0.44352891248045756,0.16576622194637972,0.20650156434991288,0.29939281506201076,0.25853811648673186
31.615,31.56,2.0,0.11721218671541545,0.4446510731710559,0.16609137559929507,0.2062863165346668,0.3009516502452133,0.2574759985304925
31.635,31.61,1.98,0.11808939466203881,0.4457619104372802,0.1664248013689367,0.20606591220955103,0.30250650351727093,0.2564236115607443
31.718,31.67,2.03,0.11895704112169224,0.4468614454339935,0.1667669618695993,0.2058405293618415,0.30405692721616334,0.2553813286697152
31.759,31.72,2.06,0.11981517659704066,0.44794970500476616,0.1671183225667189,0.2056103504296806,0.30560248180994276,0.25434950549284285
31.821,31.78,2.05,0.12066386935944455,0.44902672145557826,0.16747935156577193,0.20537556202756294,0.3071427361946473,0.2533284798532514
31.863,31.83,2.08,0.12150320555966664,0.4500925323298287,0.167850519400286,0.2051363546612674,0.30867726798829576,0.25231857142701475
31.925,31.89,2.1,0.1223332893259053,0.45114718018547795,0.16823229881840218,0.20489292243356555,0.3102056638208097,0.25132008142953827
31.985,31.94,2.08,0.12315424284879499,0.45219071237510927,0.16862516456740156,0.20464546274207884,0.31172751961972806,0.2503332923233554
32.047,32.0,2.07,0.12396620645304135,0.4532231808296751,0.1690295931756051,0.20439417597069265,0.3132424408915912,0.24935846754762955
32.11,32.05,2.11,0.12476933865538557,0.4542446418466693,0.16944606273107085,0.20413926517597022,0.31475004299888343,0.24839585126967026
32.151,32.11,2.08,0.1255638162086159,0.4552551558834205,0.16987505265653957,0.2038809357700169,0.3162499514324097,0.24744566815880095
32.213,32.16,2.05,0.12634983413135725,0.45625478735611363,0.17031704348011506,0.20361939520120806,0.31774180207896563,0.24650812318294918
32.276,32.22,2.09,0.12712760572337561,0.4572436044450019,0.1707725166012021,0.20335485263411615,0.31922524148412873,0.24558340142832838
32.359,32.27,2.09,0.12789736256613599,0.4582216789060436,0.1712419540512546,0.20308751862987034,0.3206999271099678,0.24467166794252726
32.379,32.33,2.09,0.12865935450834087,0.45918908588893703,0.1717258382488972,0.2028176048280862,0.32216552758742545,0.24377306760123366
32.421,32.38,2.12,0.1294138496361353,0.4601459037612973,0.17222465174899035,0.20254532363142044,0.32362172296309366,0.2428877249987266
32.482,32.44,2.15,0.13016113422759895,0.46109221393858635,0.17273887698523335,0.20227088789371583,0.32506820494007,0.242015744362182
32.523,32.49,2.15,0.13090151269107386,0.46202810071936445,0.173268996005949,0.20199451061260845,0.326504677112569,0.24115720948977964
32.586,32.55,2.16,0.13163530748682764,0.46295365112548514,0.1738154902027412,0.20171640462740228,0.32793085519395687,0.2403121837125644
32.627,32.6,2.18,0.13236285903153205,0.46386895474696593,0.1743788400317479,0.20143678232298948,0.32934646723788485,0.23948070987998754
32.732,32.66,2.13,0.13308452558504263,0.4647741035913923,0.17495952472723036,0.20115585534058264,0.33075125385220255,0.23866281036902784
32.753,32.71,2.13,0.13380068311897778,0.4656691919378238,0.17555802200725165,0.20087383429600805,0.33214496840533625,0.23785848711678167
32.794,32.77,2.17,0.13451172516660956,0.4665543161952233,0.17617480777121386,0.20059092850625382,0.3335273772247949,0.2370677216764042
32.856,32.82,2.16,0.13521806265358968,0.4674295747654029,0.17681035578905532,0.20030734572483588,0.33489825978743454,0.23629047529627295
32.916,32.88,2.17,0.1359201237090338,0.4682950679103569,0.1774651373819615,0.20002329188632076,0.3362574089010616,0.23552668902221777
32.957,32.93,2.2,0.13661835345648266,0.46915089762366413,0.17813962109451106,0.1997389708600732,0.3376046308769229,0.2347762838226078
33.103,32.99,2.24,0.13731321378426933,0.46999716750540804,0.17883427235824956,0.19945458421305018,0.3389397456926071,0.23403916073602762
33.124,33.04,2.24,0.1380051830948619,0.4708339826398324,0.17954955314674556,0.19917033098129117,0.34026258714487645,0.23331520104124556
33.144,33.1,2.27,0.13869475603281878,0.47166144947479416,0.180285921622225,0.19888640744967603,0.34157300299195237,0.23260426644918392
33.227,33.15,2.3,0.13938244319107704,0.47247967570202015,0.18104383177391167,0.1986030069395,0.34287085508479404,0.23190619931662915
33.248,33.21,2.3,0.1400687707953799,0.47328877013721543,0.18182373304824276,0.19832031960341448,0.3441560194869286,0.23122082288145293
33.309,33.26,2.31,0.1407542803667155,0.47408884259921613,0.18262606997117184,0.19803853222731638,0.34542838658241803,0.23054794151914176
33.371,33.32,2.38,0.1414395283616702,0.4748800037876207,0.1834512817627946,0.19775782803886402,0.3466878611715672,0.22988734102043556
33.454,33.37,2.34,0.14212508579059518,0.4756623651585879,0.18429980194451243,0.19747838652243,0.3479343625540019,0.22923878888982394
33.474,33.43,2.33,0.14281153781345296,0.4764360387986329,0.1851720579388945,0.19720038324039135,0.34916782459876683,0.2286020346645362
33.536,33.48,2.38,0.14349948331317794,0.4772011372962213,0.1860684706623479,0.19692398966066665,0.3503881958011117,0.22797681025348526
33.577,33.54,2.39,0.14418953444636454,0.4779577736107662,0.18698945411067747,0.1966493729903398,0.3515954393256482,0.22736283029544724
33.638,33.59,2.4,0.1448823161710957,0.4787060609383826,0.1879354149376194,0.19637669601512606,0.3527895330355557,0.22675979253564574
33.699,33.65,2.44,0.14557846575173733,0.4794461125735942,0.18890675202644805,0.19610611694440463,0.3539704695075119,0.22616737821988914
33.762,33.7,2.47,0.1462786322405502,0.4801780417661515,0.18990385605477816,0.1958377892615794,0.3551382560320312,0.2255852525054427
33.823,33.76,2.47,0.1469834759360069,0.48090196157221043,0.19092710905273888,0.19557186157961645,0.3562929145989216,0.2250130648878732
33.843,33.81,2.48,0.1476936678177351,0.4816179846992709,0.19197688395477866,0.19530847750171193,0.3574344818675978,0.22445044964316369
33.906,33.87,2.54,0.14840988895804608,0.4823262233444306,0.19305354414545062,0.19504777548714958,0.35856300912203226,0.22389702628445105
33.947,33.92,2.53,0.1491328299100443,0.4830267890256061,0.19415744299960702,0.19478988872246747,0.3596785622101572,0.22335240003277124
34.01,33.98,2.52,0.14986319007234677,0.48371979240539237,0.19528892341748313,0.19453494499804888,0.36078122146757063,0.22281616230119267
34.071,34.03,2.55,0.15060167703045535,0.4844053431071765,0.19644831735518664,0.19428306659018046,0.36187108162543524,0.22228789119165815
34.113,34.09,2.57,0.15134900587482744,0.4850835495230255,0.1976359453511359,0.19403437014853225,0.3629482517024989,0.22176715200376615
34.195,34.14,2.57,0.1521058984956874,0.48575451861275726,0.19885211604898484,0.1937889665889488,0.36401285488118723,0.22125349775465442
34.237,34.2,2.6,0.1528730828546371,0.48641835569355524,0.20009712571754443,0.19354696099143268,0.36506502836773225,0.22074646970911696
34.278,34.25,2.63,0.1536512922331761,0.4870751642195352,0.20137125776821743,0.1933084525032083,0.3661049232363214,0.22024559791908754
34.359,34.31,2.64,0.15444126445833595,0.4877250455508351,0.2026747822705841,0.19307353424673013,0.36713270425727484,0.21975040177165897
34.42,34.36,2.65,0.15524374110574873,0.48836809871206843,0.20400795546698353,0.19284229323245855,0.3681485497092961,0.21926039054487645
34.44,34.42,2.69,0.15605946668059076,0.4890044201402881,0.20537101928713772,0.19261481027620594,0.3691526511758799,0.21877506397063282
34.503,34.47,2.67,0.15688918777696115,0.48963410342291214,0.20676420086402378,0.1923911599208656,0.37014521332601186,0.2182939128040735
34.585,34.53,2.67,0.15773365221636562,0.4902572390263164,0.2081877120522939,0.19217141036236202,0.37112645367933567,0.21781641939898747
34.606,34.58,2.71,0.15859360816607285,0.4908739140159857,0.2096417489505905,0.1919556233797042,0.37209660235600167,0.217342058288698
34.668,34.64,2.67,0.1594698032382089,0.4914842117691847,0.2111264914291006,0.19174385426907053,0.37305590181144055,0.21687029677199016
34.73,34.69,2.66,0.16036298357057124,0.4920882116810553,0.2126421026636644,0.19153615178189665,0.3740046065563225,0.21640059550362697
34.771,34.75,2.69,0.1612738928902921,0.49268598886488824,0.21418872867771319,0.19133255806697566,0.3749429828619729,0.21593240908902486
34.834,34.8,2.72,0.16220327156164735,0.49327761384711416,0.21576649789328112,0.19113310861660499,0.3758713084515123,0.21546518668270379
34.936,34.86,2.72,0.1631518556194543,0.4938631522573975,0.21737552069233304,0.1909378322168101,0.376789872176983,0.21499837259021468
34.957,34.91,2.73,0.16412037578959368,0.4944426645142124,0.21901588898965876,0.1907467509016549,0.3776989736827265,0.2145314068733476
34.998,34.97,2.75,0.16510955649825548,0.4950162055064315,0.2206876758186024,0.19055987991162496,0.37859892305529497,0.21406372595849635
35.061,35.02,2.73,0.16612011487155284,0.4955838242716958,0.22239093493091697,0.19037722765606022,0.379490040460215,0.2135947632481061
35.102,35.08,2.73,0.16715275972718283,0.4961455636725951,0.2241257004120305,0.19019879567962913,0.38037265576594986,0.21312394973518206
35.164,35.13,2.75,0.16820819055983435,0.4967014600718871,0.2258919863129802,0.19002457863287256,0.3812471081554331,0.21265071462089952
35.226,35.19,2.81,0.16928709652206,0.49725154300807056,0.2276897863002102,0.1898545642468751,0.3821137457255595,0.21217448593540975
35.307,35.24,2.78,0.1703901554023339,0.4977958348726198,0.2295190733243389,0.18968873331213243,0.3829729250750286,0.2116946911619582
35.328,35.3,2.79,0.17151803260201462,0.49833435059010334,0.23137979930888553,0.18952705966168804,0.38382501088095466,0.21121075786435237
35.412,35.35,2.8,0.1726713801129208,0.49886709730228157,0.2332718948598315,0.18936951015860679,0.38467037546469196,0.21072211431761834
35.433,35.41,2.79,0.1738508354972085,0.49939407405712133,0.2351952689968,0.18921604468784417,0.3855093983473667,0.21022819014142363
35.495,35.46,2.81,0.17505702087122002,0.4999152715035485,0.23714980890656526,0.1890666161525858,0.3863424657956308,0.209728416935646
35.559,35.52,2.83,0.17629054189495572,0.5004306715927257,0.23913537971954527,0.18892117047517873,0.3871699703581684,0.20922222891737757
35.6,35.57,2.81,0.17755198676882675,0.5009402472866968,0.2411518243098693,0.18877964660284588,0.38799231039349247,0.2087090635586438
35.724,35.63,2.8,0.1788419252393509,0.5014439622753805,0.24319896311954767,0.18864197651844264,0.38880988958958357,0.2081883622241302
35.745,35.68,2.82,0.18016090761545178,0.5019417707030749,0.24527659400719498,0.18850808525657084,0.3896231164759368,0.2076595708082226
35.765,35.74,2.79,0.18150946379700753,0.5024336169057643,0.24738449212170013,0.18837789092537582,0.39043240392859424,0.20712214037068175
35.827,35.79,2.76,0.182888102317277,0.5029194351605594,0.24952240980118393,0.18825130473432264,0.3912381686687376,0.20657552777030458
35.889,35.85,2.77,0.18429730940080372,0.503399149448589,0.2516900764975397,0.18812823102819445,0.3920408307554032,0.20601919629596707
35.951,35.9,2.75,0.18573754803836937,0.5038726732325715,0.253887198726818,0.18800856732747906,0.3928408130728554,0.20545261629448908
36.033,35.96,2.73,0.18720925708053163,0.5043399092501523,0.25611346004568925,0.18789220437521256,0.3936385408131236,0.20487526579482704
36.054,36.01,2.76,0.18871285035123878,0.5048007493239,0.258368521054194,0.1877790261902524,0.39443444095415997,0.20428663112817855
36.096,36.07,2.89,0.19024871578295213,0.5052550741886818,0.26065201942495453,0.18766891012689652,0.39522894173403594,0.20368620754366565
36.158,36.12,2.88,0.19181721457464138,0.5057027533370723,0.26296356995896647,0.18756172694076237,0.3960224721215724,0.20307349981930795
36.219,36.18,2.89,0.19341868037395163,0.5061436448835054,0.26530276466802344,0.18745734086088747,0.39681546128381956,0.2024480228679285
36.262,36.23,2.93,0.195053418484796,0.5065775954480011,0.26766917288376285,0.18735560966806442,0.39760833805086554,0.20180930233740318
36.322,36.29,2.92,0.1967217051016011,0.5070044400604025,0.27006234139327856,0.1872563847794533,0.39840153037855525,0.20115687520433675
36.405,36.34,2.91,0.19842378657141108,0.5074240020861012,0.2724817946012218,0.18715951133949477,0.39919546480978785,0.20049029035997928
36.426,36.4,2.94,0.200159878685039,0.5078360931741713,0.2749270347182818,0.18706482831709956,0.399990565935118,0.19980910918705366
36.487,36.45,2.93,0.20193016599844205,0.5082405132287151,0.27739754197591,0.18697216860903054,0.4007872558534256,0.19911290612611926
36.529,36.51,2.89,0.20373480118547777,0.5086370504040799,0.2798927748671106,0.18688135914935558,0.4015859536334442,0.19840126923008505
36.591,36.56,2.91,0.20557390442315573,0.5090254811245081,0.2824121704130673,0.1867922210248604,0.4023870747769572,0.19767380070549198
36.654,36.62,2.92,0.20744756281043153,0.5094055701287303,0.2849551444553061,0.18670456959635476,0.4031910306844762,0.1969301174392074
36.716,36.67,2.9,0.20935582982151457,0.5097770705399733,0.28752109197303566,0.18661821462585423,0.40399822812420627,0.19616985150923932
36.778,36.73,2.89,0.21129872479458878,0.5101397239617947,0.29010938742524417,0.18653296040965384,0.40480906870508676,0.1953926506784868
36.819,36.78,2.93,0.21327623245679803,0.510493260600077,0.2927193851170916,0.18644860591732706,0.40562394835468746,0.19459817887037295
36.88,36.84,2.91,0.2152883024863306,0.5108373994114014,0.2953504195900962,0.18636494493668257,0.4064432568027305,0.1937861166254586
36.942,36.89,2.93,0.21733484911243642,0.5111718482779084,0.29800180603557475,0.18628176622471895,0.4072673770710104,0.19295616153829867
37.004,36.95,2.95,0.2194157507542056,0.5114963042086806,0.3006728407307394,0.18619885366465883,0.4080966849704826,0.19210802867395138
37.066,37.0,2.95,0.2215308496989107,0.511810453567659,0.30336280149678707,0.18611598642920182,0.40893154860630543,0.19124145096364578
37.128,37.06,2.93,0.22367995182067082,0.5121139723281118,0.30607094817824787,0.1860329391501936,0.4097723278916308,0.19035617957915527
37.149,37.11,2.93,0.22586282634013868,0.5124065263536844,0.3087965231427971,0.18594948209496792,0.4106193740709625,0.18945198428543517
37.191,37.17,2.93,0.22807920562586256,0.5126877717059939,0.31153875180067336,0.18586538134968733,0.4114730292539116,0.1885286537710815
37.252,37.22,2.91,0.23032878503793464,0.5129573549786072,0.31429684314279993,0.1857803990100835,0.4123336259601836,0.1875859959561866
37.313,37.28,2.92,0.23261122281449353,0.5132149136570908,0.31706999029666505,0.18569429338008628,0.4132014866766191,0.18662383827720644
37.376,37.33,2.93,0.2349261400015985,0.5134600765046907,0.3198573710989833,0.18560681917891972,0.41407692342709274,0.1856420279484992
37.415,37.39,2.93,0.23727312042694926,0.513692463973108,0.3226581486841357,0.18551772775731773,0.4149602373560507,0.18464043220024084
37.497,37.44,2.94,0.23965171071789632,0.5139116886377597,0.3254714720873715,0.18542676732352809,0.4158517183264553,0.1836189384924637
37.518,37.5,2.96,0.24206142036418196,0.5141173556568283,0.32829647686177843,0.1853336831796783,0.41675164453289554,0.18257745470500159
37.599,37.55,2.95,0.24450172182586075,0.514309063253272,0.33113228570810127,0.18523821796883627,0.41766028213062417,0.1815159093031385
37.642,37.61,2.93,0.24697205068686134,0.5144864032187871,0.33397800911657727,0.18514011193279473,0.4185778848812869,0.1804342514787508
37.702,37.66,2.94,0.24947180585464868,0.5146489614385408,0.33683274602001595,0.1850391031803791,0.41950469381611866,0.1793324512667128
37.744,37.72,2.93,0.2520003498064207,0.5147963184353738,0.3396955844573604,0.18493492796596636,0.4204409369173872,0.17821049963632563
37.807,37.77,2.87,0.2545570088822139,0.5149280499321555,0.3425656022469552,0.18482732097786353,0.42138682881884854,0.17706840855754463
37.87,37.83,2.87,0.2571410736252014,0.5150437274310145,0.3454418676687398,0.18471601563619383,0.4223425705259515,0.1759062110418259
37.931,37.88,2.88,0.2597517991693644,0.5151429188082235,0.3483234401545933,0.18460074439995194,0.4233083491564829,0.17472396115746583
37.994,37.94,2.85,0.26238840567461524,0.5152251889235256,0.3512093709861019,0.18448123908289307,0.42428433770228074,0.17352173401936866
38.033,37.99,2.83,0.26505007880935116,0.515290100242706,0.35409870399908855,0.18435723117789965,0.4252706948125761,0.17229962575323737
38.095,38.05,2.85,0.26773597028032675,0.5153372134722453,0.3569904762943126,0.18422845218945544,0.4262675645994575,0.17105775343423518
38.156,38.1,2.84,0.2704451984096418,0.5153660882049069,0.3598837189537731,0.18409463397384726,0.42727507646589513,0.16979625500021578
38.3,38.16,2.82,0.27317684875856024,0.5153762835751081,0.36277745776204817,0.18395550908671066,0.4282933449567055,0.1685152891396799
38.32,38.21,2.82,0.2759299747977792,0.5153673589229143,0.3656707139320992,0.18381081113750722,0.4293224696327914,0.16721503515465952
38.342,38.27,2.81,0.2787035986236905,0.515338874465464,0.3685625048350145,0.18366027515045052,0.43036253496893934,0.16589569279875502
38.382,38.32,2.77,0.2814967117200941,0.5152903919745927,0.37145184473323817,0.18350363793129848,0.4314136102754115,0.16455748209055768
38.424,38.38,2.75,0.28430827576473483,0.515221475459433,0.37433774551688315,0.18334063843935985,0.4324757496435056,0.16320064310270996
38.506,38.43,2.76,0.2871372234799173,0.5151316918528381,0.3772192174427344,0.1831710181640445,0.43354899191518487,0.1618254357268962
38.527,38.49,2.75,0.28998245952632357,0.5150206117005875,0.38009526987552933,0.1829945215052968,0.4346333606767898,0.16043213941511267
38.609,38.54,2.76,0.2928428614390215,0.5148878098524603,0.3829649120310806,0.18281089615727114,0.43572886427675434,0.15902105289763438
38.629,38.6,2.79,0.29571728060453234,0.5147328661544066,0.3858271537207943,0.18261989349462643,0.4368354958671608,0.15759249387815533
38.691,38.65,2.77,0.29860454327773545,0.5145553661411634,0.38868100609713413,0.18242126896083402,0.43795323346890547,0.15614679870661527
38.731,38.71,2.76,0.3015034516373219,0.5143549017287395,0.39152548239957047,0.18221478245791337,0.43908204006019,0.1546843220302427
38.793,38.76,2.79,0.30441278487846185,0.5141310719062493,0.39435959870053006,0.18200019873702872,0.44022186368801597,0.15320543642334689
38.854,38.82,2.79,0.30733130034131617,0.5138834834265629,0.3971823746508531,0.1817772877893688,0.4413726376023158,0.15171053199640747
38.895,38.87,2.76,0.3102577346740135,0.5136117514951711,0.3999928342242839,0.18154582523667118,0.44253428041231213,0.1502000159850452
38.977,38.93,2.77,0.3131908050287098,0.5133155004565899,0.4027900064605347,0.18130559272069457,0.44370669626464404,0.14867431231950712
39.04,38.98,2.78,0.31612921028933066,0.5129943644775735,0.40557292620645885,0.18105637829092486,0.44488977504275334,0.1471338611753383
39.082,39.04,2.79,0.3190716323295766,0.5126479882263815,0.4083406348548395,0.18079797678983425,0.4460833925869649,0.1455791185059452
39.144,39.09,2.8,0.32201673729971936,0.5122760275473505,0.41109218108025347,0.18053019023506994,0.4472874109346339,0.14401055555778575
39.204,39.15,2.85,0.3249631769406782,0.5118781501300523,0.41382662157142375,0.1802528281980066,0.4485016785796788,0.14242865836894417
39.245,39.2,2.92,0.3279095899238355,0.5114540361723254,0.4165430217594471,0.17996570817812238,0.4497260307507739,0.14083392725186072
39.328,39.26,2.92,0.330854603215056,0.5110033790364364,0.41924045654126657,0.17966865597264742,0.4509602897074604,0.13922687626096858
39.349,39.31,2.95,0.33379683346139466,0.5105258858975277,0.4219180109977506,0.1793615060408999,0.45220426505344136,0.13760803264590163
39.39,39.37,2.95,0.33673488839900156,0.5100212783833911,0.4245747811057224,0.17904410186268627,0.45345775406636063,0.13597793629075675
39.453,39.42,2.93,0.33966736828074523,0.509489293204478,0.4272098744432672,0.17871629629010716,0.4547205420434077,0.13433713913968823
39.555,39.48,2.95,0.3425928673220714,0.5089296827729857,0.42982241088763906,0.17837795189209252,0.4559924026621097,0.13268620460898434
39.575,39.53,2.96,0.3455099751635987,0.5083422158098401,0.43241152330512217,0.17802894129095662,0.4572730983556724,0.13102570698576907
39.615,39.59,2.97,0.34841727834892083,0.5077266779384347,0.43497635823227226,0.17766914749020052,0.45856238070219907,0.1293562308135437
39.718,39.64,2.94,0.35131336181604417,0.5070828722640501,0.437516076548058,0.17729846419269496,0.4598599908270863,0.12767837026487008
39.76,39.7,2.99,0.35419681040084305,0.5064106199379407,0.4400298541365095,0.17691679610826755,0.4611656598178635,0.125992728501565
39.802,39.75,2.99,0.357066210350881,0.5057097607050877,0.44251688253955446,0.176524059249607,0.462479109150713,0.12429991702285027
39.863,39.81,2.99,0.35992015084793144,0.5049801534345966,0.4449763695997709,0.17612018121530273,0.4638000511278768,0.1226005550020305
39.905,39.86,3.02,0.36275722553753176,0.5042216766317011,0.44740754009280304,0.17570510145879342,0.46512818932512784,0.12089526861243102
39.965,39.92,3.04,0.36557603406390926,0.5034342289303368,0.4498096363491857,0.17527877154200608,0.46646321904845645,0.11918469034347813
40.027,39.97,3.03,0.36837518360862126,0.5026177295652714,0.4521819188653141,0.1748411553725064,0.46780482779910987,0.11746945830793079
40.069,40.03,3.06,0.3711532904312443,0.5017721188228311,0.4545236669032863,0.17439222942306076,0.4691526957461074,0.11575021554138924
40.131,40.08,3.08,0.37390898141042694,0.50089735846933,0.4568341790793353,0.1739319829326079,0.47050649620534235,0.11402760929530774
40.172,40.14,3.07,0.3766408955835991,0.49999343215634795,0.45911277394056277,0.17346041808775478,0.4718658961243724,0.11230229032481005
40.232,40.19,3.09,0.3793476856835957,0.4990603458020337,0.4613587905296614,0.1729775501840557,0.4732305565719903,0.11057491217263535
40.273,40.25,3.14,0.3820280196704128,0.49809812794760155,0.46357158893726175,0.172483407766507,0.4746001332316581,0.10884613045053783
40.334,40.3,3.15,0.38468058225627677,0.4971068300881671,0.4657505508414739,0.17197803274886211,0.47597427689787447,0.10711660211943676
40.396,40.36,3.17,0.38730407642218123,0.4960865269770445,0.46789508003413355,0.17146148051150134,0.47735263397454364,0.10538698476958099
40.459,40.41,3.2,0.38989722492402534,0.4950373169026274,0.47000460293322815,0.17093381997765908,0.4787348469744212,0.10365793590194868
40.499,40.47,3.22,0.39245877178648414,0.49395932193699005,0.472078569080982,0.17039513366780376,0.480120555018734,0.10193011221205812
40.561,40.52,3.22,0.3949874837827291,0.49285268815537736,0.47411645162709554,0.16984551773193926,0.4815093943360935,0.10020416887733796
40.623,40.58,3.25,0.39748215189810254,0.49171758582583536,0.4761177477966276,0.1692850819596133,0.48290099875984616,0.09848075884919709
40.665,40.63,3.26,0.3999415927758183,0.4905542095683408,0.4780819793419801,0.16871394976752122,0.48429500022302224,0.09676053215093675
40.727,40.69,3.26,0.402364650142737,0.48936277848290377,0.48000869297839166,0.16813225816473595,0.48569102925006125,0.09504413518265335
40.871,40.74,3.26,0.4047501962132339,0.48814353624622614,0.48189746080229834,0.1675401576957299,0.48708871544449717,0.09333221003428062
40.891,40.8,3.31,0.40709713306913586,0.486896751176637,0.4837478806918826,0.16693781236143382,0.48848768797178876,0.09162539380789353
40.911,40.85,3.32,0.4094043940136345,0.48562271626720777,0.48555957668912103,0.16632539951859057,0.4898875760364753,0.08992431795034407
40.933,40.91,3.33,0.41167094489701933,0.4843217491871372,0.48733219936264655,0.165703109757619,0.49128800935283923,0.08822960759722644
40.995,40.96,3.39,0.41389578541202604,0.482994192251642,0.4890654261507542,0.1650711467591348,0.4926886186082662,0.0865418809290913
41.057,41.02,3.41,0.41607795035657447,0.4816404123606595,0.4907589616838926,0.1644297271292114,0.494089035918517,0.08486174854074915
41.201,41.07,3.4,0.4182165108616578,0.4802608009067163,0.49241253808598956,0.16377908021342186,0.4954888952741581,0.08318981282443032
41.221,41.13,3.43,0.420310575582129,0.47885577365235854,0.49402591525394385,0.16311944788972763,0.4968878329774392,0.08152666736751184
41.242,41.18,3.46,0.42235929184811777,0.47742577057761953,0.49559888111458106,0.1624510843403583,0.49828548806894185,0.07987289636548237
41.263,41.24,3.43,0.4243618467748022,0.4759712556980723,0.4971312518583571,0.1617742558029236,0.4996815027433598,0.07822907405080232
41.325,41.29,3.44,0.42631746832825756,0.47449271685409194,0.49862287214911044,0.16108924030106295,0.5010755227537951,0.07659576413831184
41.386,41.35,3.46,0.42822542634510563,0.4729906654719753,0.5000736153091968,0.1603963273549697,0.5024671978039731,0.07497351928782668
41.448,41.4,3.47,0.430085033503695,0.4714656362974992,0.5014833834793774,0.15969581767213475,0.5038561819277846,0.07336288058454327
41.551,41.46,3.45,0.43189564624455173,0.4699181871023477,0.5028521077528424,0.15898802281866908,0.50524213385556,0.07176437703785901
41.571,41.51,3.51,0.43365666563785304,0.46834889836364674,0.5041797482827381,0.15827326487158125,0.5066247173664749,0.07017852509919752
41.613,41.57,3.54,0.43536753819570173,0.46675837291662337,0.5054662943625687,0.1575518760523837,0.5080036016264834,0.06860582819942779
41.674,41.62,3.55,0.43702775662702953,0.46514723558021975,0.5067117644788544,0.15682419834236233,0.5093784615111887,0.06704677630649977
41.715,41.68,3.58,0.43863686053301276,0.46351613275536313,0.5079162063354681,0.1560905830798076,0.510748977913076,0.06550184550396759
41.777,41.73,3.6,0.4401944370409617,0.4618657319955071,0.5090796968491111,0.15535139053950262,0.5121148380325758,0.06397149759108728
41.838,41.79,3.58,0.4417001213747339,0.4601967215490159,0.5102023421154505,0.15460698949481055,0.5134757356524717,0.0624561797051511
41.923,41.84,3.6,0.44315359735981436,0.4585098098730107,0.5112842773454853,0.15385775676280278,0.5148313713952137,0.06095632396668268
41.942,41.9,3.63,0.44455459786130935,0.4568057251184748,0.5123256667717611,0.15310407673299112,0.5161814529627302,0.05947234714807832
41.983,41.95,3.6,0.44590290515320746,0.4550852145866715,0.5133267035240892,0.15234634088032195,0.517525695358355,0.0580046503662337
42.044,42.01,3.61,0.4471983512173749,0.4533490441571863,0.5142876094744795,0.151584947263127,0.5188638210904956,0.05655361879961626
42.126,42.06,3.66,0.4484408179708607,0.4515979976881099,0.5152086350510121,0.1508203000067185,0.5201955603576771,0.05511962143012075
42.147,42.12,3.69,0.4496302374201981,0.44983287638901165,0.5160900590203898,0.1500528087732801,0.521520651214602,0.05370301080990085
42.207,42.17,3.7,0.4507665917414964,0.4480544981674555,0.5169321882389211,0.14928288821865998,0.5228388397188759,0.05230412285324504
42.268,42.23,3.73,0.451849913285252,0.4462636969499248,0.5177353573716993,0.148510957436647,0.524149880058078,0.05092327665347164
42.328,42.28,3.77,0.4528802845049697,0.4444613219781579,0.518499928579788,0.14773743939129597,0.5254535346569029,0.04956077432475317
42.39,42.34,3.78,0.453857837808889,0.4426482370820276,0.5192262911752934,0.14696276033788117,0.5267495742641575,0.048216900868750925
42.43,42.39,3.79,0.45478275533432844,0.4408253199302194,0.5199148612442787,0.1461873492331218,0.5280377780194597,0.046891924065945494
42.511,42.45,3.82,0.45565526864439204,0.4389934612600615,0.5205660812375456,0.14541163713543273,0.5293179334995476,0.04558609439156551
42.532,42.5,3.8,0.456475658347022,0.43715356408791933,0.5211804195293697,0.144636056596073,0.5305898367441603,0.044299644956030684
42.593,42.56,3.8,0.4572442536366349,0.4353065429015628,0.5217583699443249,0.1438610410421717,0.5318532922615106,0.04303279146983159
42.654,42.61,3.84,0.45796143175886134,0.4334533228358645,0.5223004512523435,0.1430870241527101,0.533108113013399,0.041785732232763315
42.737,42.67,3.86,0.45862761739917546,0.43159483883307465,0.5228072066321628,0.14231443922861822,0.534354120380054,0.040558648147407596
42.758,42.72,3.87,0.4592432819964121,0.4297320347888205,0.5232792031032909,0.14154371855820577,0.5355911441047975,0.039351702756719925
42.799,42.78,3.92,0.4598089429823019,0.42786586268489646,0.5237170309266078,0.14077529277919382,0.5368190222186665,0.03816504230551529
42.86,42.83,3.94,0.460325162948266,0.4259972817098486,0.524121302973745,0.14000959023861473,0.5380376009451694,0.03699879582555807
42.921,42.89,3.95,0.4607925487408419,0.42412725736831064,0.5244926540654551,0.13924703635178318,0.539246734585408,0.035853075243875925
43.024,42.94,3.97,0.4612117504872629,0.42225676058005757,0.5248317402793208,0.13848805296145264,0.5404462853838761,0.034727975513868026
43.044,43.0,4.02,0.46158346055288385,0.4203867667697977,0.5251392382272959,0.13773305769818905,0.5416361233753099,0.03362357476877283
43.085,43.05,4.0,0.4619084124323219,0.41851825494880546,0.5254158443037269,0.13698246334292655,0.542816126213045,0.032539934497086406
43.146,43.11,4.02,0.4621873795763351,0.41665220678957793,0.5256622739046561,0.13623667719260613,0.5439861789794034,0.03147709973955416
43.207,43.16,4.05,0.4624211741566133,0.41478960569474643,0.525879260619324,0.1354961004297468,0.5451461739787039,0.030435099307377946
43.249,43.22,4.05,0.4626106457707886,0.41293143586143727,0.5260675553948821,0.13476112749675698,0.5462960105135485,0.029413946021282947
43.31,43.27,4.04,0.46275668009009524,0.4110786813421807,0.5262279256754007,0.13403214547576225,0.5474355946450931,0.02841363697107748
43.433,43.33,4.05,0.46286019745221063,0.4092323251033456,0.526361154516299,0.13330953347470947,0.5485648389380653,0.027434153795309096
43.453,43.38,4.05,0.46292215140189125,0.4073933480819519,0.5264680396753905,0.13259366202049905,0.549683662191331,0.02647546298057674
43.474,43.44,4.03,0.4629435271820926,0.4055627282415804,0.5265493926817849,0.13188489245992646,0.5507919891548557,0.025537516180021085
43.514,43.49,4.04,0.4629253401783164,0.4037414396280311,0.5266060378839295,0.1311835763693009,0.5518897502339222,0.024620250550492436
43.575,43.55,4.07,0.4628686343189751,0.4019304514253683,0.5266388114780861,0.1304900549737285,0.5529768811814857,0.023723589107884847
43.636,43.6,4.06,0.46277448043461145,0.4001307270130321,0.5266485605185727,0.1298046585771305,0.5540533227795595,0.02284744110012926
43.739,43.66,4.08,0.46264397457888345,0.39834322302473985,0.5266361419111247,0.12912770600409681,0.5551190205105406,0.021991702397353485
43.76,43.71,4.11,0.46247823631430673,0.3965688884099241,0.526602421390769,0.12845950405467885,0.5561739242194144,0.02115625589872982
43.801,43.77,4.11,0.46227840696584593,0.39480866349842914,0.5265482724856279,0.12780034697320017,0.5572179877678157,0.020340971955534075
43.864,43.82,4.08,0.4620456478455428,0.39306347906915945,0.526474575468113,0.12715051593211107,0.5582511686809679,0.019545708809938372
43.926,43.88,4.09,0.46178113845144325,0.39133425542337674,0.5263822162950087,0.12651027853186209,0.5592734277885636,0.01877031304905247
43.968,43.93,4.1,0.4614860746441504,0.3896219014633869,0.5262720855380025,0.12587988831772778,0.5602847288606915,0.01801462007371853
44.009,43.99,4.06,0.4611616668043871,0.387927313777432,0.5261450773062942,0.12525958431449388,0.5612850382399356,0.01727845458156654
44.111,44.04,4.04,0.46080913797498085,0.38625137573173024,0.5260020881629649,0.12464959057995388,0.5622743244707816,0.016561631063852805
44.132,44.1,4.07,0.4604297219906817,0.3845949565707626,0.5258440160368317,0.12405011577824732,0.5632525579274678,0.015863954315616505
44.173,44.15,4.04,0.4600246615991853,0.38295891052703257,0.5256717591315299,0.1234613527741576,0.564219710441399,0.015185219958689423
44.234,44.21,4.04,0.45959520657667646,0.3813440759415843,0.5254862148335693,0.12288347824954003,0.5651757549292287,0.014525214977067345
44.295,44.26,4.06,0.4591426118411555,0.379751274396539,0.5252882786211037,0.12231665234306845,0.5661206650226841,0.013883718264083352
44.356,44.32,4.07,0.45866813556677516,0.3781813098608311,0.5250788429751301,0.12176101831448218,0.5670544147012031,0.013260501180726846
44.417,44.37,4.05,0.45817303730240405,0.37663496785028,0.52485879629482,0.12121670223450533,0.5679769779284433,0.012655328124363766
44.479,44.43,4.06,0.45765857609763355,0.37511301460315377,0.5246290218186681,0.12068381270160543,0.5688883282937249,0.012067957107042135
44.52,44.48,4.06,0.4571260086394578,0.37361619627245485,0.5243903965531187,0.120162440586748,0.5697884386594859,0.011498140342504378
44.561,44.54,4.03,0.4565765874028768,0.3721452381362385,0.5241437902103306,0.11965265880724545,0.5706772808158216,0.010945624840979717
44.645,44.59,4.01,0.45601155881868755,0.3707008438273467,0.5238900641567529,0.11915452213068368,0.5715548251431937,0.010410153010803305
44.706,44.65,4.03,0.45543216146174753,0.3692836945839613,0.5236300703742179,0.11866806700973999,0.5724210402843658,0.009891463265892237
44.727,44.7,3.99,0.45483962426301333,0.3678944485223223,0.5233646504353123,0.11819331144851483,0.5732758928266081,0.009389290638082375
44.79,44.76,3.96,0.4542351647486508,0.3665337399328392,0.5230946344948048,0.11773025490083477,0.574119346995167,0.00890336739326975
44.851,44.81,3.99,0.45361998730947073,0.36520217860069193,0.5228208402989023,0.11727887820085799,0.5749513643589617,0.008433423650194609
44.912,44.87,3.99,0.45299528150387025,0.3639003491518538,0.5225440722140602,0.11683914352620046,0.5757719035494168,0.007979188000578138
44.953,44.92,3.98,0.45236222039736407,0.36262881042530826,0.5222651202770234,0.11641099439369786,0.5765809199932984,0.007540388129213307
45.037,44.98,4.0,0.4517219589416879,0.3613880948721106,0.521984759267733,0.11599435568784461,0.5773783656603749,0.007116751432530178
45.077,45.03,4.0,0.4510756323963558,0.3601787079819142,0.5217037478066955,0.11558913372190137,0.5781641888267065,0.006708005634099612
45.14,45.09,3.98,0.45042435479544324,0.3590011277376633,0.5214228274783952,0.11519521633162529,0.578938333854353,0.006313879395529749
45.223,45.14,3.98,0.44976921746223697,0.357855804099348,0.5211427219823064,0.1148124730015755,0.5797007409882792,0.005934102921267461
45.244,45.2,4.0,0.44911128757425134,0.3567431585179514,0.5208641363130107,0.11444075502398257,0.5804513461712192,0.005568408555931146
45.285,45.25,3.97,0.4484516067809858,0.35566358348088173,0.5205877559708881,0.11407989569019833,0.5811900808772418,0.005216531372939037
45.347,45.31,3.94,0.4477911898766971,0.3546174420902424,0.5203142462048188,0.11372971051471284,0.5819168719647265,0.004878209753316353
45.408,45.36,3.94,0.4471310235303676,0.35360506767524474,0.5200442512883267,0.11338999749161997,0.5826316415494297,0.004553185953639645
45.469,45.42,3.92,0.4464720650749404,0.35262676343994004,0.5197783938305802,0.1130605373832543,0.5833343068982815,0.004241206662124572
45.51,45.47,3.9,0.44581524135775996,0.35168280214728803,0.5195172741236344,0.11274109404055348,0.5840247803444969,0.003942023541918154
45.593,45.53,3.93,0.44516144765400184,0.35077342584045085,0.5192614695272151,0.11243141475458399,0.5847029692245179,0.0036553937607233487
45.614,45.58,3.94,0.4445115466447241,0.34989884560208484,0.5190115338922627,0.11213123063861176,0.5853687758372339,0.0033810805059484813
45.677,45.64,3.92,0.4438663674610523,0.3490592413523041,0.5187679970243415,0.11184025704009003,0.5860220974258696,0.003118853484632171
45.717,45.69,3.91,0.4432267047959107,0.34825476168594727,0.5185313641879377,0.11155819398196021,0.5866628261828885,0.002868489407446477
45.777,45.75,3.92,0.44259331808460955,0.34748552374982095,0.51830211565258,0.11128472663267239,0.5872908492782247,0.0026297724561277856
45.838,45.8,3.9,0.44196693075549426,0.3467516131606492,0.5180807062816595,0.11101952580428136,0.5879060489111249,0.0024024947337407876
45.899,45.86,3.87,0.44134822955175285,0.3460530839644353,0.5178675651647822,0.11076224847785564,0.5885083023858286,0.0021864566972521083
46.001,45.91,3.87,0.44073786392537095,0.345389958637806,0.51766309529444,0.11051253835529527,0.5890974822112678,0.0019814675719630206
46.021,45.97,3.86,0.44013644550409975,0.34476222813168544,0.5174676732877245,0.11027002643651482,0.5896734562248966,0.0017873457474148046
46.062,46.02,3.83,0.439544547632153,0.3441698519574022,0.5172816491537231,0.11003433162082052,0.5902360877406909,0.0016039191544385556
46.123,46.08,3.86,0.43896270498516926,0.34361275831511584,0.5171053461071373,0.10980506133120517,0.5907852357212734,0.0014310256230727764
46.184,46.13,3.87,0.4383914132597761,0.34309084426428643,0.5169390604285348,0.10958181216022354,0.5913207549740441,0.001268513221102976
46.225,46.19,3.85,0.4378311289378886,0.3426039759358371,0.5167830613714843,0.10936417053611783,0.5918424963711214,0.001116240572983651
46.329,46.24,3.85,0.4372822691256812,0.34215198878568415,0.5166375911166177,0.10915171340795334,0.592350307092835,0.0009740771588849144
46.35,46.3,3.88,0.4367452114669957,0.34173468788941774,0.5165028647724369,0.10894400894865101,0.5928440308944682,0.000841903593569919
46.432,46.35,3.85,0.4362202941307975,0.3413518482780462,0.5163790704224985,0.10874061727488775,0.5933235083958911,0.0007196118847687279
46.452,46.41,3.84,0.4357078158721471,0.3410032153148277,0.5162663692184524,0.10854109118284773,0.5937885773936807,0.0006071056706724887
46.494,46.46,3.85,0.4352080361660146,0.34068850511322685,0.5161648955182854,0.10834497689876774,0.5942390731952717,0.0005043004361234274
46.577,46.52,3.84,0.43472117541315786,0.34040740499585587,0.5160747570690162,0.10815181484313821,0.5946748289746238,0.00041112370703206815
46.619,46.57,3.8,0.43424741521719723,0.3401595739938604,0.5159960352330211,0.10796114040732045,0.5950956761488361,0.00032751522254445385
46.681,46.63,3.82,0.4337868987319407,0.33994464338571345,0.5159287852571258,0.10777248474124529,0.5955014447750628,0.00025342708450954153
46.722,46.68,3.82,0.43333973107789925,0.33976221727397493,0.5158730365835612,0.10758537555079163,0.5958919639670194,0.00018882388384305866
46.763,46.74,3.8,0.4329059798267806,0.3396118731983628,0.515828793201843,0.10739933790339094,0.5962670623302806,0.00013368280343802906
46.824,46.79,3.81,0.4324856755525872,0.3394931627834441,0.5157960340406014,0.10721389504036181,0.5966265684154967,8.799369733216647e-05
46.885,46.85,3.85,0.4320788124477852,0.33940561241929257,0.5157747133983752,0.10702856919442731,0.5969703111885721,5.175914590185551e-05
46.947,46.9,3.82,0.43168534900288114,0.33934872397350585,0.5157647614123879,0.10684288241078603,0.5972981205167917,2.4994486902463306e-05
46.987,46.96,3.8,0.43130520874758976,0.3393219755330083,0.5157660845643176,0.10665635737000044,0.597609827669818,7.727822197411273e-06
47.07,47.01,3.8,0.43093828105159726,0.33932482217408155,0.5157785662220264,0.10646851821083993,0.5979052658344322,0.0
47.112,47.07,3.79,0.4305844219827302,0.33935669675903474,0.5158020672161652,0.10627889135108472,0.5981842706418358,1.8645724256824978e-06
47.175,47.12,3.75,0.43024345522016155,0.3394170107578437,0.5158364264505145,0.1060870063041788,0.5984466807062527,1.3387728170106038e-05
47.216,47.18,3.78,0.4299151730201187,0.3395051550929981,0.5158814615448711,0.10589239648956332,0.5986923381734899,3.4648200201112806e-05
47.277,47.23,3.81,0.429599337231403,0.3396205010057252,0.5159369695091959,0.10569460003453099,0.5989210892780109,6.573714844491655e-05
47.318,47.29,3.81,0.42929568035787574,0.33976240094174204,0.516002727447661,0.10549316056549031,0.5991327849069902,0.00010675801752046174
47.379,47.34,3.82,0.4290039066649389,0.3399301894547073,0.5160784932911298,0.10528762798659189,0.599327281169736,0.00015782636961483127
47.421,47.4,3.86,0.4287236933269471,0.3401231841255852,0.5161640065565091,0.10507755924372914,0.5995044399708136,0.00021906969260262712
47.483,47.45,3.86,0.42845469161244876,0.3403406864961389,0.5162589891313379,0.10486251907196241,0.599664129585168,0.00029062718352091993
47.545,47.51,3.88,0.42819652810414044,0.3405819830147543,0.5163631460819225,0.10464208072441546,0.5998062252335173,0.0003726495075324399
47.586,47.56,3.91,0.42794880595040385,0.340846345992749,0.5164761664833025,0.1044158266806462,0.5999306096562681,0.0004652985325342986
47.647,47.62,3.94,0.42771110614528884,0.34113303456925,0.5165977242693489,0.10418334933238767,0.6000371736841974,0.0005687470395846127
47.729,47.67,3.91,0.4274829888337967,0.3414412956826274,0.5167274791013241,0.10394425164443612,0.6001258168041318,0.0006831784093304033
47.791,47.73,3.93,0.42726399463930864,0.3417703650464131,0.5168650772532264,0.10369814778845614,0.6001964477178479,0.000808786284632363
47.81,47.78,3.97,0.4270536460099857,0.3421194681276249,0.5170101525121312,0.10344466374772429,0.6002489848924188,0.0009457742096095871
47.872,47.84,3.99,0.4268514485809351,0.34248782112546167,0.51716232709152,0.1031834378913747,0.6002833571002143,0.0010943552453913847
47.915,47.89,4.04,0.4266568925488991,0.34287463194842005,0.5173212125553337,0.10291412151738023,0.6002995039467391,0.0012547515629609516
47.977,47.95,4.12,0.42646945405620396,0.3432791011879918,0.5174864107502882,0.10263637936402743,0.6002973763844989,0.0014271940135642978
48.038,48.0,4.14,0.4262885965807103,0.3437004230872049,0.5176575147439242,0.10234989008988084,0.6002769372110937,0.0016119216772009124
48.101,48.06,4.17,0.4261137723285478,0.3441377865023622,0.5178341097658677,0.1020543467222746,0.6002381615498061,0.0018091813897109358
48.162,48.11,4.22,0.42594442362647145,0.34459037585642754,0.5180157741498215,0.1017494570743644,0.6001810373110236,0.0020192272489470264
48.224,48.17,4.25,0.4257799843107403,0.345057372082595,0.5182020802738413,0.10143494413078774,0.6001055656329307,0.00224232010049993
48.264,48.22,4.26,0.4256198811094942,0.34553795355666495,0.518392595496524,0.10111054640201203,0.6000117613000006,0.0024787270034643304
48.327,48.28,4.3,0.42546353501566736,0.3460312970169423,0.5185868830868172,0.10077601824749043,0.5998996531378958,0.002728720676793037
48.389,48.33,4.36,0.4253103626475566,0.3465365784704578,0.5187845031452889,0.10043113016778835,0.5997692843834677,0.0029925789268713528
48.43,48.39,4.36,0.42515977759423207,0.347052974084373,0.5189850135147959,0.1000756690659114,0.5996207130286152,0.003270584057034948
48.533,48.44,4.38,0.4250111917430337,0.3475796610615039,0.5191879706785566,0.09970943847816172,0.5994540121368417,0.003563022259829809
48.553,48.5,4.43,0.42486401658643136,0.3481158184989885,0.5193929306436447,0.09933225877492405,0.5992692701314286,0.0038701829928580326
48.574,48.55,4.49,0.4247176645055562,0.348660628229192,0.5195994498079132,0.09894396733177331,0.5990665910542399,0.004192358339078363
48.635,48.61,4.52,0.42457155002776314,0.3492132756419818,0.5198070858083246,0.09854441867123771,0.5988460947942532,0.004529842352461672
