,Time_Host,Time_Arduino,easingdata,CH1_Oxy,CH1_Deoxy,CH2_Oxy,CH2_Deoxy,CH3_Oxy,CH3_Deoxy
0,1.314,0.04,0.0,0.2964571585917896,0.9087622069797572,0.2050229527050785,0.4070713268400688,0.15086857240266277,0.551817066674182
1,1.335,0.1,0.0,0.2965269007115627,0.9073900019300677,0.20888786553583513,0.4015772980515507,0.15200674118567659,0.5496128092848432
2,1.355,0.15,0.0,0.29659716318934526,0.9060498536474381,0.21270245526728904,0.39610098913689096,0.1531417301204591,0.5473978500561023
3,1.375,0.21,0.0,0.29666785023348824,0.9047428157306291,0.2164651106393377,0.3906442140148462,0.1542728629294177,0.5451729741104085
4,1.395,0.26,0.0,0.29673886224779267,0.9034699236216378,0.22017426307959104,0.3852087673697711,0.1553994613265753,0.5429389739008493
5,1.416,0.32,0.0,0.29681009581935164,0.902232193511784,0.2238283879377633,0.3797964235461454,0.15652084567100374,0.5406966485272175
6,1.436,1.07,0.0,0.2968814437101328,0.9010306212609797,0.22742600564731358,0.3744089354871008,0.157636335622842,0.5384468030454643
7,1.456,1.12,0.0,0.2969527948523857,0.8998661813312295,0.23096568281329377,0.3690480337165612,0.15874525080044166,0.5361902477715049
8,1.476,1.18,0.0,0.2970240343479476,0.8987398257353776,0.2344460332255465,0.3637154253644276,0.15984691143714486,0.5339277975803449
9,1.537,1.23,0.0,0.29709504347151466,0.8976524830020893,0.23786571879657376,0.35841279323407005,0.16094063903615877,0.5316602712015043
10,1.598,1.29,0.08,0.29716569967792916,0.8966050571580348,0.24122345042357218,0.35314179491121916,0.16202575702195185,0.5293884905117217
11,1.64,1.34,0.2,0.2972358766135206,0.8955984267282339,0.2445179887742851,0.34790406191322004,0.16310159138656324,0.5271132798259307
12,1.701,1.4,0.13,0.2973054441314982,0.8946334437555611,0.24774814499643424,0.34270119887756095,0.164167471329211,0.524835465187481
13,1.761,1.45,0.14,0.29737426831134317,0.8937109328404766,0.2509127813505692,0.33753478278864263,0.16522272988762585,0.5225558736585216
14,1.823,1.51,0.27,0.2974422114821045,0.8928316902020788,0.25401081176626467,0.33240636224186,0.16626670455961928,0.5202753326113553
15,1.886,1.56,0.26,0.297509132249476,0.8919964827615168,0.2570412023217468,0.32731745674410223,0.167298737913478,0.5179946690214684
16,1.927,1.62,0.21,0.29757488552652606,0.8912060472486827,0.26000297164718683,0.32226955604976903,0.16831817818583888,0.5157147087628486
17,1.988,1.67,0.3,0.2976393225679252,0.890461089332968,0.2628951912520107,0.31726411953137756,0.169324379865758,0.5134362759061183
18,2.05,1.73,0.34,0.2977022910074905,0.8897622827787347,0.26571698577665065,0.3123025755838371,0.17031670426374879,0.5111601920199178
19,2.111,1.78,0.27,0.297763634898831,0.8891102686260306,0.2684675331692387,0.3073863210614525,0.17129452006461915,0.5088872754759047
20,2.195,1.84,0.35,0.2978231947588402,0.8885056543969806,0.2711460647878256,0.30251672074672853,0.17225720386298057,0.5066183407577175
21,2.218,1.89,0.46,0.2978808076137621,0.8879490133282342,0.2737518654288048,0.2976951068500822,0.17320414068034976,0.504354197774256
22,2.259,1.95,0.41,0.29793630704754037,0.8874408836298059,0.2762842732823478,0.2929227785396252,0.17413472446281517,0.5020956511776917
23,2.302,2.0,0.4,0.2979895232521508,0.8869817677706232,0.27874267981576795,0.28820100150026323,0.17504835855830864,0.4998434996866823
24,2.405,2.06,0.53,0.2980402830796026,0.8865721317910863,0.281126529585813,0.2835310075214652,0.17594445617260981,0.49759853541533344
25,2.425,2.11,0.51,0.29808841009528997,0.8862124046428929,0.28343531998095944,0.27891399411311424,0.1768224408033075,0.49536154320845954
26,2.467,2.17,0.47,0.2981337246323786,0.8859029775563101,0.2856686008948629,0.27435112414884655,0.17768174665102635,0.49313329998367444
27,2.569,2.22,0.58,0.2981760438469172,0.8856442034349613,0.28782597433219154,0.2698435255362586,0.1785218190073089,0.4909145740807862
28,2.59,2.28,0.61,0.2982151817733613,0.8854363962780842,0.28990709394817876,0.26539229091333116,0.1793421146186282,0.48870612461889684
29,2.633,2.33,0.54,0.2982509493801855,0.885279830630097,0.2919116645233689,0.26099847737040976,0.18014210202608852,0.4865087008615952
30,2.715,2.39,0.61,0.2982831546252467,0.885174741057223,0.29383944137518025,0.25666310619711913,0.18092126188045501,0.48432304159067485
31,2.736,2.44,0.68,0.29831160251055905,0.8851213216508943,0.2956902297080683,0.25238716265366173,0.18167908723223894,0.4821498744888976
32,2.799,2.5,0.63,0.2983360951361568,0.8851197255576699,0.2974638839042509,0.24817159576600892,0.1824150837966461,0.47998991553241444
33,2.861,2.55,0.63,0.2983564317527519,0.8851700645354966,0.29916030675711763,0.24401731814451802,0.18312877019327128,0.47784386839354
34,2.923,2.61,0.75,0.29837240881291854,0.8852724085362684,0.30077944864957745,0.23992520582552118,0.1838196781605038,0.47571242385462514
35,2.965,2.66,0.72,0.29838382002055336,0.8854267853147854,0.3023213066797134,0.23589609813540308,0.1844873527446974,0.47359625923379156
36,3.026,2.72,0.68,0.2983904563783733,0.8856331800642915,0.30378592373621294,0.23193079757664098,0.18513135246424248,0.4714960378233089
37,3.088,2.77,0.76,0.2983921062332364,0.8858915350788001,0.30517338752610557,0.22803006973524964,0.18575124944877125,0.4694124083413946
38,3.15,2.83,0.76,0.2983885553191226,0.886201749442374,0.3064838295573974,0.2241946432090542,0.18634662955381953,0.4673460043981977
39,3.191,2.88,0.68,0.29837958679767923,0.8865636787454615,0.307717424079251,0.2204252095562007,0.1869170924513516,0.46529744397673106
40,3.295,2.94,0.72,0.2983649812962974,0.8869771348283753,0.3088743869824109,0.21672242326334062,0.1874622516966192,0.46326732892956346
41,3.315,2.99,0.76,0.2983445169437154,0.8874418855520578,0.3099549746626233,0.21308690173298883,0.18798173477188346,0.4612562444921622
42,3.357,3.05,0.7,0.2983179694031584,0.8879576545963971,0.31095948284986696,0.2095192252896212,0.18847518310756559,0.4592647588138662
43,3.419,3.1,0.74,0.2982851119030169,0.8885241212864838,0.31188824540625393,0.2060199372041366,0.18894225208142343,0.45729342250753907
44,3.459,3.16,0.85,0.29824571526507415,0.8891409204473274,0.31274163309547703,0.20258954373636948,0.18938261099638354,0.45534276821894515
45,3.522,3.21,0.81,0.2981995479303136,0.8898076422876129,0.31352005232669083,0.1992285141953656,0.18979594303771474,0.4534133102168081
46,3.585,3.27,0.76,0.2981463759823721,0.8905238323131105,0.3142239438757182,0.19593728101713775,0.1901819452103004,0.4515055440043697
47,3.708,3.32,0.82,0.2980859631687402,0.8912889912703544,0.31485378158648597,0.19271623985962585,0.19054032825686493,0.44961994595311766
48,3.75,3.38,0.83,0.2980180709198537,0.8921025751211937,0.3154100710556078,0.18956574971459256,0.19087081655810967,0.44775697295923156
49,3.77,3.43,0.74,0.2979424583662584,0.8929639950487983,0.31589334830305743,0.18648613303617437,0.19117314801578872,0.44591706212325555
50,3.811,3.49,0.79,0.2978588823540663,0.8938726174957343,0.31630417843185044,0.18347767588582534,0.19144707391980423,0.4441006304535197
51,3.851,3.54,0.82,0.29776709745894386,0.8948277642347923,0.31664315427960293,0.18054062809344013,0.19169235880044228,0.4423080745938417
52,3.911,3.6,0.73,0.297666855998891,0.895828712473349,0.3169108950647631,0.17767520343452498,0.19190878026690084,0.44053977057604865
53,3.974,3.65,0.7,0.29755790804607735,0.896874694992146,0.31710804503022183,0.17488157982338934,0.19209612883328914,0.4387960735978551
54,4.036,3.71,0.77,0.29744000143800287,0.8979649003194611,0.31723527208691626,0.17215989952243757,0.19225420773330185,0.43707731782659787
55,4.057,3.76,0.69,0.29731288178825876,0.8990984729416949,0.31729326645997913,0.16951026936767655,0.19238283272478254,0.4353838162292658
56,4.12,3.82,0.63,0.29717629249718763,0.9002745135513759,0.31728273933994594,0.1669327610104969,0.1924818318853804,0.4337158604291803
57,4.183,3.87,0.74,0.2970299747627552,0.901492079333528,0.317204421541502,0.16442741117566137,0.19255104540048454,0.4320737205895756
58,4.223,3.93,0.73,0.2968736675919599,0.9027501842912496,0.31705906217221674,0.16199422193527602,0.19259032534460532,0.43045764532421615
59,4.305,3.98,0.62,0.29670710781311005,0.9040477996112606,0.3168474273136851,0.15963316099838917,0.19259953545736141,0.4288678616350938
60,4.408,4.04,0.66,0.29653003008929985,0.9053838540701108,0.31657029871743525,0.15734416201583154,0.19257855091524087,0.4273045748771807
61,4.429,4.09,0.71,0.2963421669334356,0.906757234481742,0.31622847251789904,0.155127124899966,0.19252725810032403,0.42576796875015704
62,4.45,4.15,0.63,0.2961432487252032,0.9081667861871293,0.3158227579646948,0.15298191615909798,0.1924455543671645,0.4242582053170182
63,4.512,4.2,0.63,0.2959330037304146,0.9096113135868374,0.31535397617643113,0.15090836924639092,0.19233334780901865,0.42277542504945637
64,4.553,4.26,0.7,0.29571115812321896,0.9110895807174476,0.31482295891819884,0.14890628492322333,0.19219055702460963,0.4213197468998823
65,4.615,4.31,0.64,0.2954774360116996,0.9126003118729007,0.31423054740489276,0.14697543163697,0.1920171108866215,0.41989126839985785
66,4.676,4.37,0.59,0.2952315594674015,0.9141421922718184,0.31357759113248296,0.14511554591317805,0.19181294831312712,0.4184900657846062
67,4.781,4.42,0.66,0.2949732485593525,0.9157138687718066,0.31286494673930904,0.14332633276207532,0.19157801804316724,0.41711619414315043
68,4.802,4.48,0.63,0.2947022213931609,0.9173139506316186,0.3120934768994057,0.14160746609929575,0.19131227841770682,0.41576968759354693
69,4.842,4.53,0.54,0.29441819415580656,0.9189410103219087,0.31126404924979445,0.1399585891806618,0.19101569716719147,0.4144505594826307
70,4.884,4.59,0.62,0.29412088116676427,0.920593584385169,0.31037753535356755,0.13837931505086168,0.19068825120691602,0.4131588026096662
71,4.945,4.64,0.64,0.2938099949361203,0.922270174345329,0.3094348097005002,0.13686922700589585,0.19032992644140587,0.41189438947327595
72,5.028,4.7,0.53,0.2934852462303548,0.9239692476673794,0.308436748746853,0.1354278790692174,0.18994071757900016,0.4106572725410285
73,5.068,4.75,0.5,0.29314634414646695,0.9256892387672923,0.3073842299959649,0.13405479648156984,0.18952062795781702,0.4094473845411174
74,5.13,4.81,0.53,0.2927929961951262,0.9274285500724228,0.306278131121169,0.13274947620462585,0.18906966938427544,0.4082646387756167
75,5.21,4.86,0.44,0.2924249083935412,0.929185553132518,0.30511932913251205,0.13151138743859864,0.18858786198532165,0.40710892945484034
76,5.231,4.92,0.4,0.29204178536873626,0.9309585897813933,0.3039086995886882,0.1303399721540279,0.18807523407544122,0.4059801320523455
77,5.272,4.97,0.46,0.29164333047191027,0.9327459733492967,0.3026471158554816,0.12923464563795706,0.1875318220394549,0.40487810368010113
78,5.355,5.03,0.39,0.2912292459045125,0.934545989925899,0.3013354484118672,0.12819479705470885,0.18695767023200596,0.4038026834832812
79,5.396,5.08,0.27,0.2907992328566332,0.9363568996737285,0.2999745642047655,0.12721979002142636,0.18635283089456234,0.4027536930540738
80,5.498,5.14,0.3,0.29035299165826384,0.9381769381916848,0.2985653260533039,0.12630896319848495,0.18571736409067824,0.40173093686382505
81,5.519,5.19,0.27,0.28989022194396236,0.9400043179280543,0.2971085921033406,0.12546163089479287,0.1850513376601695,0.40073420271275817
82,5.581,5.25,0.16,0.28941062283144814,0.9418372296421994,0.295605215332944,0.12467708368787789,0.18435482719274135,0.39976326219647035
83,5.601,5.3,0.18,0.28891389311462884,0.9436738439138685,0.29405604310946293,0.12395458905855546,0.18362791602146597,0.3988178711883994
84,5.664,5.36,0.19,0.288399731471518,0.9455123126988788,0.29246191679872846,0.12329339203992683,0.18287069523636584,0.3978977703374723
85,5.705,5.41,0.1,0.28786783668743227,0.9473507709297524,0.2908236714267872,0.12269271588044911,0.18208326371822206,0.3970026855801629
86,5.767,5.47,0.07,0.2873179078937817,0.9491873381597346,0.2891421353943768,0.12215176272085403,0.18126572819259515,0.3961323286662206
87,5.869,5.52,0.14,0.28674964482268794,0.9510201202484445,0.2874181302441231,0.12166971428472972,0.18041820330392466,0.3952863976973348
88,5.89,5.58,0.06,0.2861627480776105,0.9528472110872039,0.285652470480228,0.12124573258254778,0.17954081170945246,0.3944645776779641
89,5.932,5.63,-0.0,0.28555691942009626,0.9546666943618343,0.2838459634402412,0.12087896062879981,0.17863368419259493,0.3936665410775029
90,5.992,5.69,0.06,0.28493186207268617,0.9564766453504266,0.28199940921834,0.12056852317176603,0.17769695979528002,0.3928919484028989
91,6.055,5.74,0.07,0.28428728103791795,0.9582751327532621,0.2801136006393948,0.12031352743530256,0.17673078596866298,0.39214044878082
92,6.096,5.8,-0.02,0.2836228834332763,0.9600602205517231,0.27818932328296375,0.12011306387192146,0.1757353187415306,0.3914116805485129
93,6.157,5.85,0.02,0.2829383788418615,0.961829969892751,0.27622735555622363,0.11996620692637888,0.17471072290561054,0.3907052718525808
94,6.259,5.91,0.06,0.28223347967847867,0.9635824409952309,0.2742284688146989,0.11987201580899302,0.17365717221692156,0.39002084125496217
95,6.279,5.96,-0.01,0.2815079015707706,0.9653156950746304,0.2721934275295113,0.11982953527794545,0.17257484961222733,0.3893579983454364
96,6.32,6.02,-0.01,0.28076136375492394,0.9670277962822538,0.2701229894997157,0.11983779642985783,0.17146394743957952,0.3887163443600035
97,6.38,6.07,0.09,0.279993589485364,0.968716813655562,0.26801790610811355,0.11989581749796777,0.17032466770186738,0.38809547280447054
98,6.441,6.13,0.05,0.27920430645774263,0.9703808230760724,0.265878922618761,0.1200026046572232,0.16915722231223354,0.38749497008251765
99,6.523,6.18,0.02,0.27839324724441267,0.9720179092313885,0.2637067785142238,0.12015715283557303,0.1679618333601653,0.38691441612745126
100,6.545,6.24,0.12,0.2775601497414811,0.9736261675779105,0.26150220787048356,0.1203584465306772,0.1667387333870401,0.38635338503678696
101,6.606,6.29,0.17,0.27670475762645375,0.9752037063007771,0.25926593976731077,0.12060546063119212,0.16548816566989,0.3858114457087737
102,6.667,6.35,0.09,0.2758268208254272,0.9767486482676199,0.25699869873189024,0.12089716124172804,0.16421038451214715,0.3852881624800082
103,6.73,6.4,0.16,0.27492609598874523,0.9782591329728461,0.25470120521348955,0.12123250651058064,0.16290565554014094,0.3847830957633839
104,6.772,6.46,0.2,0.2740023469740224,0.9797333184694028,0.25237417608700946,0.12161044745942008,0.16157425600415012,0.38429580268573715
105,6.835,6.51,0.13,0.2730553453354466,0.9811693832852824,0.2500183251833252,0.12202992881423858,0.16021647508284248,0.38382583772469203
106,6.876,6.57,0.14,0.27208487081829735,0.9825655283223841,0.24763436384439363,0.1224898898369912,0.15883261418995795,0.38337275334433724
107,6.98,6.62,0.21,0.2710907118576479,0.9839199787357206,0.2452230015011289,0.12298926515748687,0.15742298728209828,0.3829361006294627
108,7.001,6.68,0.14,0.27007266608024855,0.9852309857913063,0.24278494627206668,0.12352698560513935,0.15598792116648927,0.38251542991813303
109,7.041,6.73,0.09,0.26903054080860395,0.9864968287013576,0.24032090558084743,0.12410197904016367,0.15452775580756611,0.38211029143238023
110,7.103,6.79,0.19,0.26796415356625813,0.987715816435679,0.2378315867905203,0.12471317118373941,0.15304284463121354,0.3817202359067789
111,7.143,6.84,0.22,0.2668733325832972,0.9888862895082458,0.235317697852632,0.12535948644658074,0.15153355482546849,0.38134481521461117
112,7.205,6.9,0.15,0.26575791730107495,0.9900066217380499,0.23277994796901702,0.12603984875526542,0.15000026763646143,0.38098358299128865
113,7.267,6.95,0.22,0.26461775887515676,0.9910752219833096,0.23021904826416703,0.12675318237562427,0.14844337865836307,0.38063609525465986
114,7.329,7.01,0.27,0.2634527206754641,0.9920905358481322,0.22763571246603168,0.1274984127324857,0.14686329811612486,0.38030191102177996
115,7.37,7.06,0.2,0.26226267878259807,0.9930510473607044,0.2250306575930926,0.1282744672250964,0.1452604511398392,0.3799805929216881
116,7.411,7.12,0.19,0.2610475224793112,0.9939552806221,0.22240460464552758,0.12908027603760794,0.14363527802958526,0.37967170780373166
117,7.47,7.17,0.26,0.259807154736088,0.9948018014247922,0.21975827929824165,0.12991477294409953,0.14198823450966472,0.37937482734096545
118,7.531,7.23,0.19,0.25854149268978904,0.9955892188399781,0.21709241259351145,0.13077689610764553,0.1403197919711591,0.3790895286281324
119,7.573,7.28,0.13,0.25725046811430274,0.9963161867727748,0.21440774163095863,0.13166558887289584,0.13863043770174366,0.3788153947736875
120,7.655,7.34,0.22,0.2559340278821306,0.9969814054842802,0.21170501025252747,0.1325798005515363,0.13692067510168396,0.37855201548527023
121,7.736,7.39,0.23,0.25459213441580886,0.9975836230793909,0.20898496972009825,0.13351848719983928,0.1351910238849189,0.37829898764794606
122,7.757,7.45,0.15,0.25322476612804695,0.9981216369591751,0.20624837938331708,0.13448061238734946,0.1334420202641082,0.37805591589446347
123,7.797,7.5,0.23,0.25183191784943476,0.9985942952365269,0.20349600733514053,0.13546514795564743,0.13167421711850774,0.37782241316669546
124,7.86,7.56,0.27,0.2504136012425555,0.9990004981137991,0.2007286310525145,0.13647107476611264,0.12988818414355263,0.3775981012673598
125,7.901,7.61,0.19,0.24896984520134643,0.9993391992210915,0.1979470380195543,0.13749738343563214,0.1280845079810529,0.377382611401066
126,7.982,7.67,0.2,0.24750069623456727,0.9996094069138441,0.19515202633056367,0.1385430750592699,0.12626379232894286,0.3771755847037055
127,8.065,7.72,0.26,0.24600621883227125,0.9998101855283772,0.19234440527021526,0.13960716191899927,0.12442665802956322,0.3769766727591873
128,8.086,7.78,0.19,0.24448649581420284,0.9999406565939648,0.18952499586821522,0.14068866817765946,0.12257374313548752,0.37678553810250015
129,8.149,7.83,0.17,0.2429416286590789,1.0,0.1866946314257839,0.141786630557304,0.12070570295192384,0.3766018547080823
130,8.19,7.89,0.25,0.24137173781373022,0.9999874551167065,0.18385415801129132,0.1429000990010807,0.11882321005473535,0.37642530846246847
131,8.251,7.94,0.22,0.2397769629811098,0.9999023218677184,0.18100443492241441,0.14402813731771869,0.11692695428313829,0.37625559762014643
132,8.291,8.0,0.16,0.2381574633862032,0.9997439617526487,0.17814633511222336,0.1451698238076243,0.11501764270615142,0.3760924332415095
133,8.353,8.05,0.24,0.23651341801890183,0.9995117988175863,0.1752807455766645,0.14632425186953066,0.11309599956189272,0.37593553961173626
134,8.436,8.11,0.27,0.2348450258529326,0.9992053205712712,0.17240856770102064,0.14749053058659503,0.11116276616884897,0.3757846546393734
135,8.457,8.16,0.19,0.23315250603999135,0.998824078844543,0.16953071756311291,0.14866778529078434,0.10921870080827496,0.37563953023336544
136,8.519,8.22,0.24,0.23143609807829682,0.998367690590519,0.1666481261912197,0.1498551581043769,0.1072645785769155,0.37549993265729664
137,8.581,8.27,0.31,0.2296960619548666,0.9978358386229131,0.16376173977491146,0.15105180845744812,0.10530119120929697,0.3753656428596508
138,8.622,8.33,0.26,0.22793267826089822,0.9972282722899017,0.16087251982722472,0.152256913580252,0.10332934686889311,0.3752364567789552
139,8.684,8.38,0.24,0.22614624827970897,0.9965448080809843,0.15798144329678926,0.1534696689694473,0.10134986990753177,0.37511218562273685
140,8.745,8.44,0.34,0.22433709404673635,0.9957853301643704,0.15508950262864546,0.15468928882715877,0.09936360059248169,0.37499265611924854
141,8.829,8.49,0.31,0.22250555838113364,0.9949497908525072,0.15219770577257147,0.15591500647189246,0.09737139480073818,0.3748777107409132
142,8.849,8.55,0.24,0.22065200488851702,0.9940382109934602,0.14930707613782535,0.15714607472033768,0.09537412368010553,0.37476720789842044
143,8.91,8.6,0.3,0.21877681793442894,0.9930506802859794,0.14641865249331365,0.15838176623910483,0.0933726732767543,0.3746610221043937
144,8.952,8.66,0.32,0.21688040258810262,0.9919873575161647,0.1435334888123473,0.15962137386547717,0.09136794412901124,0.37455904410555707
145,9.013,8.71,0.22,0.21496318453614516,0.99084847071367,0.14065265406133773,0.16086421089627392,0.08936085082720231,0.3744611809823724
146,9.075,8.77,0.28,0.21302560996579167,0.9896343172254018,0.13777723193199334,0.16210961134397486,0.08735232153942091,0.3743673562152208
147,9.2,8.82,0.32,0.21106814541742844,0.988345263704701,0.13490832051679424,0.16335693015934286,0.08534329750314346,0.37427750971630813
148,9.226,8.88,0.28,0.2090912776061339,0.9869817460140764,0.13204703192774997,0.16460554341989164,0.08333473248266889,0.37419159782660694
149,9.265,8.93,0.26,0.20709551321204486,0.985544269039696,0.12919449185864346,0.16585484848367657,0.08132759219241635,0.37410959327727505
150,9.286,8.99,0.36,0.20508137863941145,0.984033406416034,0.12635183909111483,0.16710426410802895,0.07932285368618928,0.3740314851150999
151,9.347,9.04,0.31,0.20304941974426788,0.9824498001593113,0.12352022494505951,0.16835323053295828,0.07732150471259726,0.3739572785915993
152,9.388,9.1,0.26,0.20100020153070458,0.9807941602086412,0.1207008126739099,0.169601209529008,0.07532454303691655,0.3738869950154945
153,9.449,9.15,0.33,0.19893430781578636,0.979067263874119,0.11789477680544976,0.17084768440939516,0.07333297572976319,0.3738206715683582
154,9.531,9.21,0.34,0.196852340863216,0.977269955191464,0.11510330242891675,0.1720921600062905,0.07134781842304833,0.3737583610833431
155,9.551,9.26,0.28,0.19475492098589822,0.9754031441832047,0.1123275844292848,0.17333416261111362,0.06937009453377045,0.37370013178703204
156,9.612,9.32,0.31,0.1926426861176116,0.9734678060267936,0.10956882666975208,0.17457323987877046,0.06740083445628124,0.37364606700461644
157,9.673,9.37,0.35,0.190516291354048,0.971464980130421,0.10682824112357855,0.17580896069585902,0.06544107472375292,0.37359626482875424
158,9.735,9.43,0.28,0.188376408463535,0.9693957691176825,0.10410704695652591,0.17704091501297523,0.06349185713966926,0.37355083775256936
159,9.797,9.48,0.27,0.18622372536781764,0.9672613377226029,0.10140646956124366,0.17826871364136293,0.061554227880253526,0.3735099122673412
160,9.838,9.54,0.36,0.18405894559335123,0.9650629115968237,0.0987277395450276,0.1794919880142682,0.059629236568836494,0.37347362842550597
161,9.899,9.59,0.3,0.18188278769365546,0.9628017760309998,0.09607209167247534,0.18071038991344332,0.05771793532325412,0.37344213936965526
162,9.959,9.65,0.25,0.17969598464338318,0.960479274592624,0.09344076376468187,0.1819235911613038,0.05582137777744861,0.37341561082828145
163,10.02,9.7,0.31,0.17749928320486058,0.9580968076826359,0.09083499555673995,0.18313128327928052,0.05394061807853785,0.37339422057906
164,10.08,9.76,0.32,0.17529344326795399,0.9556558310132373,0.0882560275154455,0.18433317711294345,0.0520767098607131,0.3733781578804863
165,10.121,9.81,0.22,0.17307923716421994,0.9531578540093778,0.08570509961924051,0.1855290024245216,0.05023070519741125,0.3733676228727474
166,10.182,9.87,0.28,0.17085744895638286,0.9506044381364154,0.08318345010252265,0.1867185074535625,0.04840365353329099,0.37336282594880577
167,10.285,9.92,0.29,0.1686288737042664,0.9479971951565614,0.08069231416652634,0.18790145844665698,0.046596600597626776,0.3733639870967798
168,10.305,9.98,0.19,0.16639431670836938,0.9453377853168801,0.0782329226590619,0.18907763915734696,0.04481058730081606,0.37337133521481747
169,10.346,10.03,0.16,0.16415459273232488,0.9426279154718148,0.07580650072548055,0.1902468503175105,0.04304664861576779,0.37338510739977226
170,10.408,10.09,0.22,0.1619105252055162,0.9398693371434255,0.07341426643331093,0.19140890908166877,0.041305812446005626,0.3734055482110978
171,10.449,10.14,0.13,0.15966294540715786,0.9370638445226785,0.07105742937309673,0.1925636484457341,0.03958909848236805,0.3734329089114737
172,10.51,10.2,0.07,0.1574126916331912,0.9342132724152356,0.06873718923803447,0.19371091664172765,0.037897517050217315,0.37346744668578247
173,10.571,10.25,0.14,0.15516060834738896,0.9313194941352674,0.06645473438504074,0.19485057650997878,0.036232067949093665,0.37350942384014296
174,10.653,10.31,0.14,0.15290754531812,0.928384419350878,0.06421124037990211,0.1959825048502897,0.034593739286777406,0.37355910698277905
175,10.674,10.36,0.04,0.150654356742276,0.9254099918847771,0.06200786852921485,0.19710659175351675,0.032983506309748827,0.3736167661885722
176,10.713,10.42,0.08,0.14840190035790596,0.922398187473906,0.05984576440189874,0.1982227399150288,0.03140233023207745,0.3736826741492341
177,10.775,10.47,0.07,0.14615103654713954,0.919351011491793,0.05772605634316937,0.19933086393156121,0.029851157064831425,0.37375710531111134
178,10.837,10.53,-0.04,0.14390262743101512,0.9162704966374883,0.055649853983962654,0.2004308895830677,0.028330916448155347,0.37384033500273234
179,10.877,10.58,-0.04,0.14165753595785802,0.9131587005949856,0.053618246748897244,0.20152275310129608,0.0268425204882059,0.37393263855431697
180,10.939,10.64,-0.03,0.13941662498687785,0.9100177036670923,0.05163230236591403,0.2026064004269565,0.025386862601158203,0.374034290411558
181,11.001,10.69,-0.14,0.13718075636867028,0.9068496063877278,0.04969306538075831,0.20368178645747428,0.023964816366500136,0.3741455632460229
182,11.062,10.75,-0.2,0.13495079002431407,0.9036565271166214,0.04780155567944807,0.20474887428739408,0.02257723439181717,0.3742667270644991
183,11.123,10.8,-0.15,0.13272758302474166,0.9004405996203485,0.04595876702181154,0.2058076344435373,0.02122494719124673,0.3743980483195268
184,11.185,10.86,-0.2,0.1305119886720398,0.8972039706435789,0.04416566558910322,0.20685804411699446,0.019908762079746622,0.37453978902325386
185,11.226,10.91,-0.31,0.1283048555843057,0.8939487974743262,0.04242318854863393,0.2079000863939783,0.01862946208527774,0.3746922058666704
186,11.288,10.97,-0.27,0.12610702678564947,0.8906772455069206,0.04073224263827204,0.20893374948753005,0.017387804880963104,0.37485554934620946
187,11.392,11.02,-0.27,0.12391933880290935,0.8873914858063536,0.03909370277361606,0.20995902597206004,0.01618452173925603,0.37503006289964447
188,11.412,11.08,-0.37,0.12174262077063358,0.8840936926775503,0.03750841068060384,0.21097591202269983,0.01502031651012048,0.3752159820531805
189,11.433,11.13,-0.38,0.11957769354587212,0.8807860412430154,0.035977173556294276,0.21198440666145196,0.01389586462519316,0.37541353358163254
190,11.495,11.19,-0.37,0.1174253688343024,0.8774707050322049,0.034500762760514454,0.21298451101214802,0.01281181212987074,0.37562293468356356
191,11.537,11.24,-0.47,0.11528644832916916,0.874149853585914,0.03307991254102057,0.21397622756623808,0.011768774745236386,0.3758443921732279
192,11.617,11.3,-0.54,0.11316172286445147,0.8708256500789622,0.0317153187947458,0.21495955946142106,0.010767336961698182,0.3760781016911143
193,11.658,11.35,-0.5,0.11105197158358371,0.8675002489644529,0.03040763786760338,0.21593450977508713,0.009808051166157265,0.3763242469348096
194,11.761,11.41,-0.56,0.108957961124975,0.8641757936428647,0.029157485395193965,0.21690108083444837,0.00889143680445223,0.3765829989117929
195,11.782,11.46,-0.67,0.10688044482549003,0.8608544141591629,0.027965435186649977,0.21785927354507528,0.0080179795807383,0.37685451521564667
196,11.823,11.52,-0.64,0.1048201619429773,0.8575382249310362,0.026832018153732918,0.21880908673937452,0.007188130695366934,0.37713893932704434
197,11.907,11.57,-0.66,0.10277783689887049,0.8542293225112461,0.025757721287198606,0.21975051654636152,0.00640230612274315,0.37743639994075534
198,11.928,11.63,-0.77,0.10075417854184641,0.850929783386921,0.024742986682363778,0.22068355578392443,0.005660885930542812,0.37774701031985247
199,11.991,11.68,-0.74,0.0987498794334968,0.8476416618184548,0.023788210615714553,0.2216081933746942,0.004964213641573634,0.37807086767830317
200,12.052,11.74,-0.71,0.09676561515695419,0.8443669877205147,0.02289374267430667,0.22252441378662088,0.004312595639470382,0.3784080525931641
201,12.115,11.79,-0.81,0.0948020436493979,0.8411077645875911,0.022059884939633977,0.2234321964993491,0.003706300619327599,0.3787586284476321
202,12.176,11.85,-0.87,0.09285980455934995,0.8378659674665427,0.021286891227570843,0.22433151549747316,0.003145559084293406,0.3791226409062193
203,12.196,11.9,-0.82,0.09093951862965062,0.8346435409786915,0.02057496638592264,0.2252223387917065,0.002630562889078642,0.3795001174232739
204,12.258,11.96,-0.9,0.08904178710698496,0.8314423973941287,0.01992426565105198,0.22610462796889538,0.002161464831257633,0.3798910667859931
205,12.32,12.01,-0.95,0.08716719117880076,0.8282644147609506,0.01933489406496978,0.22697833777165866,0.0017383782911397883,0.3802954786929883
206,12.381,12.07,-0.9,0.08531629143841153,0.8251114350921263,0.018806905954180535,0.2278434157082713,0.0013613769208819038,0.38071332336937236
207,12.422,12.12,-0.9,0.08348962737901945,0.8219852626126071,0.018340304471479885,0.2286998016932386,0.0010304943834073697,0.3811445512192208
208,12.483,12.18,-1.0,0.08168771691733011,0.8188876620691385,0.017935041201819484,0.22954742771884845,0.0007457241416033817,0.38158909251614814
209,12.544,12.23,-0.95,0.07991105594736746,0.8158203571050995,0.017591015833268355,0.2303862175578979,0.0005070192981860004,0.3820468571326616
210,12.585,12.29,-0.93,0.07816011792504336,0.8127850287025933,0.017308075894015455,0.23121608649777384,0.0003142924865579852,0.3825177343089084
211,12.646,12.34,-1.02,0.07643535348399635,0.8097833136939387,0.017086016556295786,0.23203694110607606,0.00016741581292139992,0.38300159246142945
212,12.708,12.4,-1.02,0.07473719008318248,0.8068168033446363,0.016924580508055696,0.23284867902798745,6.622084984213926e-05,0.3834982790325518
213,12.749,12.45,-0.95,0.07306603168667208,0.8038870420097844,0.01682345789310106,0.2336511888155951,1.0498681400651576e-05,0.38400762038104624
214,12.849,12.51,-1.02,0.07142225847607105,0.8009955258657638,0.01678228632040925,0.23444434978930892,0.0,0.38452942171463417
215,12.869,12.56,-1.1,0.06980622659593638,0.7981437017188225,0.016800650943212644,0.2352280319314114,3.443525483396747e-05,0.3850634670648406
216,12.931,12.62,-1.05,0.06821826793248967,0.7953329658919849,0.01687808460836426,0.23600209581165715,0.00011347485194938675,0.38560951930456167
217,12.973,12.67,-1.05,0.06665868992585519,0.7925646631914799,0.01701406807635605,0.23676639254476553,0.0002367494057629948,0.38616732020857397
218,13.056,12.73,-1.14,0.06512777541596587,0.7898400859536342,0.017208030312199408,0.23752076377961337,0.0004038500417981679,0.3867365905571041
219,13.076,12.78,-1.07,0.06362578252219422,0.7871604731729251,0.017459348847210693,0.23826504171991933,0.0006143287503052316,0.387317030282516
220,13.138,12.84,-1.0,0.06215294455668857,0.7845270097116444,0.017767350211618283,0.23899904917617512,0.000867698790338996,0.3879083186591316
221,13.219,12.89,-1.08,0.06070946997133598,0.7819408255914055,0.018131310437836157,0.23972259964851578,0.0011634351437931495,0.38851011453618256
222,13.281,12.95,-1.06,0.05929554233822235,0.7794029953665623,0.01855045563419212,0.240435497440168,0.0015009750188404798,0.38912205661386157
223,13.301,13.0,-1.01,0.05791132036341656,0.7769145375794877,0.019023962628824328,0.2411375378010953,0.0018797184022035886,0.3897437637623648
224,13.361,13.06,-1.08,0.056556937933862676,0.7744764142975697,0.019550959683375387,0.24182850710142634,0.0022990286596637436,0.39037483538369044
225,13.425,13.11,-1.13,0.055232504197109726,0.7720895307316898,0.020130527276014484,0.24250818303420887,0.0027582331841847123,0.3910148518158067
226,13.466,13.17,-1.04,0.05393810367354162,0.7697547349358538,0.020761698953207078,0.24317633484696577,0.0032566240909791904,0.3916633747786479
227,13.526,13.22,-1.06,0.05267379640070022,0.7674728175875133,0.021443462249546547,0.24383272360143343,0.003793458958780966,0.39231994786123975
228,13.588,13.28,-1.15,0.05143961810922728,0.7652445118479269,0.022174759674856555,0.2444771024607392,0.004367961616510587,0.3929840970491353
229,13.651,13.33,-1.06,0.05023558042988298,0.7630704933017215,0.022954489767634444,0.24510921700317764,0.004979322974452019,0.39365533129122526
230,13.691,13.39,-1.03,0.04906167113103856,0.76095137997462,0.023781508213739137,0.24572880556170676,0.005626701899000044,0.39433314310486917
231,13.753,13.44,-1.1,0.04791785438599306,0.7588877324281234,0.02465462902905957,0.2463355995883041,0.006309226129979337,0.39501700921818933
232,13.814,13.5,-1.09,0.04680407106942515,0.7568800539298118,0.025572625804729316,0.24692932404242743,0.007025993239480914,0.39570639124829954
233,13.856,13.55,-1.04,0.04572023908226177,0.7549287906978634,0.026534233013310107,0.2475096978029766,0.007776071631119145,0.39640073641417223
234,13.957,13.61,-1.11,0.04466625370421079,0.753034332218375,0.027538147374281098,0.2480764341032626,0.008558501578571258,0.39709947828277886
235,13.977,13.66,-1.15,0.043641987973161656,0.7511970116341189,0.028583029277108266,0.24862924098853473,0.009372296302208668,0.3978020375470836
236,14.018,13.72,-1.08,0.04264729309059482,0.749417106203426,0.029667504260094697,0.2491678217956153,0.010216443082563646,0.3985078228344048
237,14.081,13.77,-1.13,0.04168199885207971,0.7476948378279052,0.030790164543122167,0.24969187565413276,0.011089904409296804,0.39921623154358765
238,14.122,13.83,-1.19,0.04074591410187886,0.7460303736476712,0.03194957061228815,0.2502010980087294,0.01199161916423898,0.399926650709365
239,14.183,13.88,-1.11,0.03983882721061752,0.7444238267026742,0.0331442528543193,0.2506951811614892,0.012920503836986267,0.40063845789221664
240,14.245,13.94,-1.09,0.03896050657492115,0.7428752566586245,0.03437271323852437,0.2511738148336848,0.013875453771433023,0.40135102209195556
241,14.348,13.99,-1.16,0.03811070113788065,0.7413846705958698,0.035633427043951255,0.25163668674579626,0.014855344441536198,0.40206370468321656
242,14.369,14.05,-1.15,0.03728914092916921,0.7399520238594496,0.03692484462930291,0.2520834832146479,0.015859032754522162,0.4027758603709883
243,14.41,14.1,-1.09,0.0364955376236127,0.7385772209684514,0.03824539324304976,0.2525138897664708,0.016885358379683184,0.4034868381643222
244,14.473,14.16,-1.15,0.035729585117007245,0.7372601165827053,0.03959347887106393,0.25292759176469737,0.017933145100848036,0.4041959823663736
245,14.554,14.21,-1.18,0.03499096011797257,0.7360005165247793,0.04096748811897291,0.25332427505130944,0.019001202190539673,0.4049026335789713
246,14.574,14.27,-1.08,0.03427932275462787,0.734798178855131,0.04236579012629131,0.25370362660057666,0.02008832580375756,0.40560612971994325
247,14.636,14.32,-1.12,0.03359431719487764,0.7336528149981254,0.04378673850924694,0.2540653351839993,0.021193300389247105,0.4063058070514067
248,14.678,14.38,-1.17,0.03293557227908432,0.7325640909164854,0.0452286733290695,0.25440909204521484,0.022314900116039284,0.4070010012171753
249,14.741,14.43,-1.09,0.032302702163881127,0.731531628331627,0.04668992308234857,0.2547345915835588,0.023451890312971853,0.40769104828734476
250,14.803,14.49,-1.06,0.031695306975844356,0.7305550059872243,0.048168806709925294,0.25504153204488,0.024603028918841984,0.4083752858080022
251,14.844,14.54,-1.13,0.031112973473712224,0.7296337609532446,0.049663635620677986,0.25532961621810235,0.025767067940779365,0.409053053853923
252,14.906,14.6,-1.04,0.03055527571779977,0.7287673899675811,0.0511727157264773,0.25559855213595695,0.026942754918374834,0.4097236960820886
253,14.968,14.65,-0.97,0.03002177574523682,0.7279553508123469,0.05269434948452548,0.2558480537783006,0.02812883439105992,0.4103865607838768
254,15.051,14.71,-1.03,0.029512024249651908,0.7271970637218482,0.054226837943266645,0.25607784177645504,0.029324049366203857,0.41104100193383375
255,15.072,14.76,-1.02,0.029025561263936645,0.7264919128192745,0.055768482788043465,0.25628764411703353,0.03052714278537472,0.41168638023300164
256,15.113,14.82,-0.91,0.028561916844742012,0.7258392475791787,0.05731758838266801,0.2564771968437569,0.03173685898620552,0.4123220641448082
257,15.196,14.87,-0.96,0.028120611757377206,0.7252383843128469,0.058872463803076154,0.2566462447557475,0.032951945157300544,0.41294743092151664
258,15.257,14.93,-0.97,0.027701158159803486,0.7246886076736204,0.06043142485923698,0.25679454210072966,0.03417115278360369,0.4135618676192034
259,15.277,14.98,-0.88,0.02730306028443483,0.7241891721791627,0.06199279610148103,0.25692185326144407,0.03539323907963831,0.41416477209916774
260,15.339,15.04,-0.85,0.02692581511647706,0.7237393037475458,0.06355491280742556,0.25702795343341345,0.03661696840802123,0.41475555401357955
261,15.421,15.09,-0.89,0.026568913067547887,0.723338201243911,0.06511612294570074,0.25711262929201123,0.037841113680645966,0.41533363577308374
262,15.441,15.15,-0.77,0.026231838643319863,0.7229850380343835,0.06667478911268097,0.2571756796466626,0.03906445773992812,0.41589845349401094
263,15.504,15.2,-0.69,0.02591407110393296,0.7226789635438788,0.06822929043840617,0.25721691607997316,0.0402857947175238,0.41644945792280685
264,15.566,15.26,-0.72,0.02561508511595083,0.7224191048144258,0.06977802445787215,0.2572361635696048,0.041503931367968504,0.4169861153353076
265,15.628,15.31,-0.68,0.02533435139468334,0.7222045680606572,0.07131940894390007,0.25723326109080746,0.042717688374745995,0.41750790840856655
266,15.69,15.37,-0.55,0.02507133733576484,0.7220344402191697,0.07285188369786072,0.2572080621976392,0.043925901626382616,0.41801433706303603
267,15.732,15.42,-0.58,0.024825507634949222,0.7219077904885205,0.07437391229463737,0.25716043558103424,0.04512742346025644,0.41850491927302846
268,15.794,15.48,-0.56,0.024596324895145877,0.721823671856689,0.07588398377833276,0.257090265601977,0.04632112387189927,0.4189791918434944
269,15.836,15.53,-0.43,0.02438325021976187,0.7217811226129408,0.0773806143053496,0.2569974527981277,0.0475058916876629,0.41943671115125464
270,15.899,15.59,-0.41,0.024185743791449145,0.7217791678411154,0.0788623487316169,0.25688191436229285,0.04868063569872092,0.41987705384888235
271,15.961,15.64,-0.45,0.02400326543539255,0.7218168208914569,0.08032776214089513,0.2567435845911656,0.04984428575447938,0.4202998175294968
272,16.023,15.7,-0.34,0.02383527516632066,0.7218930848281754,0.08177546131124781,0.25658241530281917,0.05099579381357977,0.42070462135079706
273,16.064,15.75,-0.25,0.023681233718481545,0.7220069538500079,0.08320408611693826,0.256398376221533,0.05213413495079655,0.42109110661675353
274,16.147,15.81,-0.29,0.023540603057900303,0.7221574146811248,0.08461231086320854,0.2561914553286514,0.05325830831824775,0.42145893731550177
275,16.167,15.86,-0.23,0.023412846876311386,0.7223434479298366,0.08599884555161225,0.25596165917833663,0.054367338059457176,0.42180780061215556
276,16.228,15.92,-0.11,0.02329743106623908,0.7225640294127277,0.08736243707380009,0.25570901317728084,0.05546027417494222,0.42213740729543453
277,16.27,15.97,-0.16,0.023193824176781827,0.7228181314420212,0.0887018703319013,0.25543356182762406,0.05653619333814589,0.42244749217717725
278,16.333,16.03,-0.14,0.023101497849733872,0.7231047240741949,0.0900159692838784,0.25513536893247674,0.05759419966067623,0.42273781444398373
279,16.395,16.08,-0.01,0.02301992723574869,0.7234227763180765,0.09130359791244401,0.2548145177635727,0.05863342540596225,0.4230081579603892
280,16.477,16.14,0.01,0.022948591390316762,0.7237712573008296,0.09256366111633482,0.25447111119065524,0.05965303165058115,0.42325833152309705
281,16.518,16.19,-0.04,0.02288697364939694,0.724149137390403,0.09379510552294905,0.25410527177224024,0.06065220889265099,0.4234881690659189
282,16.539,16.25,0.06,0.022834561984608436,0.7245553892731624,0.09499692022156056,0.2537171418074527,0.06163017760683092,0.4236975298151716
283,16.6,16.3,0.1,0.022790849337962774,0.7249889889855463,0.09616813741654283,0.2533068833486893,0.06258618874562563,0.4238862983953748
284,16.661,16.36,0.02,0.022755333936194826,0.7254489168987011,0.09730783300028187,0.2528746781749513,0.06351952418683834,0.4240543848852231
285,16.722,16.41,0.09,0.02272751958482651,0.7259341586551711,0.098415127045697,0.2524207277258196,0.06442949712715061,0.42420172482398877
286,16.764,16.47,0.17,0.02270691594216438,0.7264437060568721,0.09948918421852049,0.2519452529962143,0.06531545242193292,0.4243282791687273
287,16.929,16.52,0.11,0.022693038773495055,0.7269765579037611,0.10052921410972794,0.2514484943922321,0.0661767668715055,0.4244340342028907
288,16.949,16.58,0.12,0.02268541018580364,0.7275317207828189,0.10153447148874543,0.2509307115484888,0.06701284945417652,0.4245190013971831
289,16.971,16.63,0.24,0.022683558843406268,0.7281082098071766,0.10250425647826775,0.25039218310751865,0.06782314150650198,0.42458321722367404
290,16.991,16.69,0.22,0.022687020164965772,0.7287050493053907,0.1034379146517153,0.24983320646186938,0.06860711685133603,0.4246267429242943
291,17.054,16.74,0.18,0.02269533650244219,0.7293212734609924,0.10433483705453105,0.24925409745958194,0.06936428187436675,0.4246496642349096
292,17.116,16.8,0.26,0.02270805730260889,0.7299559269025496,0.10519446015066891,0.24865519007379758,0.07009417554996719,0.42465209106619417
293,17.179,16.85,0.28,0.02272473925183697,0.7306080652445762,0.10601626569579642,0.24803683603727714,0.07079636941733042,0.42463415714255226
294,17.26,16.91,0.21,0.022744946404920197,0.7312767555797357,0.10679978053892958,0.24739940444266478,0.07147046750798663,0.42459601960039595
295,17.28,16.96,0.24,0.022768250298768142,0.7319610769229514,0.10754457635440165,0.24674328130942358,0.07211610622591894,0.4245378585472031
296,17.321,17.02,0.27,0.022794230051836294,0.7326601206082509,0.1082502693062306,0.24606886911852877,0.07273295418160615,0.42445987658291207
297,17.381,17.07,0.21,0.022822472450189743,0.7333729906394427,0.1089165196470998,0.24537658631620402,0.07332071198141929,0.42436229828536415
298,17.441,17.13,0.19,0.022852572021117186,0.7340988039959918,0.10954303125429614,0.24466686678820287,0.07387911197387545,0.4242453696616634
299,17.503,17.18,0.28,0.02288413109523155,0.7348366908957191,0.11012955110506778,0.24394015930633056,0.07440791795432,0.42410935756747103
300,17.543,17.24,0.22,0.022916759858026804,0.7355857950161406,0.11067586869400371,0.24319692694901002,0.0749069248296675,0.4239545490963536
301,17.625,17.29,0.16,0.02295007639189374,0.736345273676394,0.11118181539517746,0.24243764649771019,0.07537595824488771,0.423781250941354
302,17.646,17.35,0.23,0.022983706709626076,0.7371142979817887,0.11164726377190674,0.24166280781103458,0.07581487417298557,0.4235897887309451
303,17.707,17.4,0.22,0.023017284780471096,0.7378920529330639,0.11207212683706971,0.24087291317823042,0.07622355847028645,0.4233805063414776
304,17.749,17.46,0.11,0.023050452549792606,0.7386777375024784,0.11245635726699585,0.24006847665384193,0.07660192639888957,0.4231537651881978
305,17.809,17.51,0.18,0.023082859953409637,0.7394705646789065,0.11279994657200444,0.23925002337523715,0.07694992211819655,0.42290994349690963
306,17.871,17.57,0.2,0.023114164927660923,0.7402697614841945,0.1131029242267168,0.2384180888647935,0.07726751814746095,0.4226494355583695
307,17.932,17.62,0.09,0.023144033416221416,0.7410745689631071,0.11336535676332817,0.23757321831859324,0.07755471480133909,0.4223726509675396
308,17.995,17.68,0.08,0.0231721393746692,0.7418842421492541,0.11358734683108324,0.2367159658835532,0.07781153960044977,0.4220800138498616
309,18.036,17.73,0.14,0.02319816477376687,0.742698050009444,0.11376903222524763,0.23584689392496175,0.07803804665898022,0.4217719620767261
310,18.097,17.79,0.04,0.023221799602388713,0.7435152753689067,0.11391058488890803,0.23496657228639456,0.07823431605139043,0.42144894647229664
311,18.139,17.84,-0.01,0.023242741870985458,0.7443352148198058,0.11401220989093691,0.23407557754393343,0.07840045316026568,0.4211114300138083
312,18.243,17.9,0.06,0.02326069761643504,0.7451571786154002,0.11407414438340728,0.23317449225654724,0.0785365880073553,0.42075988702738987
313,18.263,17.95,-0.0,0.023275380909082363,0.745980490552116,0.1140966565416663,0.2322639042144007,0.07864287456981943,0.4203948023813407
314,18.304,18.01,-0.11,0.023286513862716945,0.7468044878416791,0.11408004449019767,0.23134440568674264,0.07871949008367897,0.42001667067869214
315,18.386,18.06,-0.08,0.023293826648166878,0.7476285209753419,0.11402463521730666,0.23041659267093131,0.0787666343364329,0.4196259954507783
316,18.427,18.12,-0.09,0.023297057511113467,0.7484519535821167,0.1139307834815608,0.22948106414409408,0.07878452895077222,0.41922328835346157
317,18.468,18.17,-0.22,0.02329595279465974,0.7492741622828099,0.11379887071281802,0.22853842131887425,0.07877341666126719,0.41880906836761045
318,18.55,18.23,-0.22,0.023290266967118313,0.7500945365415359,0.11362930391056113,0.2275892669047088,0.07873356058583207,0.4183838610054164
319,18.591,18.28,-0.19,0.02327976265541477,0.7509124785162973,0.11342251454212639,0.2266342043760974,0.07866524349369107,0.4179481975241311
320,18.632,18.34,-0.29,0.023264210684422634,0.7517274029101294,0.11317895744327489,0.22567383724933426,0.07856876707148,0.41750261414878026
321,18.735,18.39,-0.34,0.023243390122453814,0.7525387368242393,0.11289910972339831,0.2247087683691545,0.07844445118902275,0.4170476513053607
322,18.755,18.45,-0.27,0.023217088333030714,0.7533459196144884,0.11258346967747816,0.22373959920670417,0.07829263316623057,0.4165838528659306
323,18.795,18.5,-0.33,0.02318510103297779,0.754148402752474,0.11223255570675304,0.22276692917015237,0.07811366704248512,0.416111765406875
324,18.856,18.56,-0.41,0.023147232356794313,0.7549456496923437,0.11184690524989327,0.22179135492914726,0.0779079228497764,0.41563193748150384
325,18.92,18.61,-0.36,0.023103294927203873,0.7557371357443761,0.11142707372632482,0.22081346975420632,0.07767578589078467,0.4151449189080238
326,18.959,18.67,-0.36,0.023053109931729928,0.756522347956248,0.11097363349320813,0.21983386287202922,0.07741765602301931,0.41465126007382636
327,19.042,18.72,-0.47,0.02299650720512087,0.7573007850027819,0.11048717281747032,0.21885311883761743,0.07713394695005264,0.4141515112569565
328,19.103,18.78,-0.43,0.022933325317434007,0.7580719570848548,0.10996829486419825,0.2178718169240091,0.07682508552080809,0.41364622196559336
329,19.164,18.83,-0.4,0.02286341166757536,0.7588353858380734,0.1094176167026238,0.2168905305303976,0.0764915110377921,0.4131359402963497
330,19.186,18.89,-0.48,0.022786622582070298,0.7595906042517773,0.10883576833087501,0.21590982660936991,0.07613367457508403,0.4126212123121827
331,19.246,18.94,-0.49,0.022702823418803166,0.7603371565989369,0.10822339172059524,0.21493026511397503,0.07575203830682455,0.41210258144067424
332,19.308,19.0,-0.41,0.022611888675410044,0.7610745983775343,0.10758113988244278,0.2139523984653009,0.07534707484687816,0.4115805878933599
333,19.349,19.05,-0.46,0.022513702101953137,0.7618024962640189,0.10690967595339917,0.2129767710411424,0.07491926660028651,0.41105576810666267
334,19.412,19.11,-0.52,0.022408156817448576,0.7625204280793908,0.10620967230674505,0.21200391868619606,0.07446910512707187,0.41052865420484785
335,19.474,19.16,-0.45,0.022295155429778616,0.7632279827683893,0.10548180968549915,0.21103436824404578,0.07399709051890468,0.4099997734852846
336,19.557,19.22,-0.43,0.022174610158495107,0.7639247603921447,0.10472677636007574,0.21006863711105123,0.0735037307891115,0.40946964792616714
337,19.577,19.27,-0.52,0.022046442960011018,0.7646103721345373,0.10394526731087354,0.2091072328121302,0.07298954127646035,0.40893879371677
338,19.619,19.33,-0.47,0.021910585654663542,0.7652844403224133,0.10313798343643257,0.20815065259839693,0.0724550440631209,0.4084077208102644
339,19.68,19.38,-0.44,0.021766980055112718,0.7659465984597923,0.10230563078769193,0.2071993830666647,0.07190076740716672,0.40787693249908785
340,19.743,19.44,-0.53,0.021615578095515883,0.7665964912761988,0.1014489198287787,0.20625389980088996,0.07132724518995448,0.40734692501285036
341,19.845,19.49,-0.54,0.021456341960899107,0.7672337747892807,0.10056856472465898,0.20531466703569395,0.0707350163786753,0.40681818713876233
342,19.866,19.55,-0.46,0.02128924421613966,0.7678581163818643,0.09966528265589145,0.20438213734212776,0.07012462450432863,0.40629119986454837
343,19.907,19.6,-0.53,0.02111426793397614,0.7684691948935422,0.09873979316065606,0.20345675133581703,0.06949661715531455,0.4057664360437631
344,19.948,19.66,-0.55,0.020931406821464823,0.7690667007267906,0.09779281750416255,0.20253893740754159,0.06885154548677856,0.4052443600833491
345,20.009,19.71,-0.45,0.02074066534429409,0.7696503359675156,0.09682507807545786,0.201629111476216,0.06818996374578902,0.404725427653174
346,20.07,19.77,-0.46,0.02054205884835941,0.7702198145198116,0.09583729781156995,0.2007276767641464,0.06751242881238655,0.40421008541716275
347,20.13,19.82,-0.52,0.020335613677996564,0.770774862254606,0.09483019964884949,0.1998350235943656,0.06681949975651585,0.40369877078554317
348,20.192,19.88,-0.44,0.02012136729027274,0.7713152171717514,0.09380450600129014,0.1989515292098371,0.06611173741083898,0.4031919116876526
349,20.253,19.93,-0.41,0.01989936836475072,0.7718406295750211,0.09276093826554256,0.1980775576143462,0.06538970395943466,0.4026899263647086
350,20.315,19.99,-0.49,0.019669676908171747,0.77235086225935,0.09170021635230208,0.19721345943494453,0.06465396254239623,0.4021932231819273
351,20.336,20.04,-0.48,0.01943236435353438,0.7728456907095755,0.09062305824373798,0.19635957180586286,0.06390507687634442,0.40170220045938276
352,20.398,20.1,-0.43,0.019187513653070264,0.7733249033098741,0.08953017957663946,0.19551621827383772,0.06314361089087263,0.4012172463210007
353,20.461,20.15,-0.51,0.018935219364623643,0.7737883015630763,0.08842229325097678,0.19468370872477542,0.06237012838093175,0.40073873856107206
354,20.523,20.21,-0.53,0.018675587730921928,0.7742357003190579,0.08730010906357011,0.19386233933161473,0.06158519267513015,0.4002670445276555
355,20.567,20.26,-0.43,0.01840873675118961,0.7746669280114097,0.08616433336650599,0.19305239252319129,0.06078936631988588,0.3998025210221972
356,20.63,20.32,-0.46,0.018134796244520204,0.7750818269015525,0.0850156687498628,0.19225413697383092,0.0599832107793263,0.39934551421463793
357,20.671,20.37,-0.53,0.017853907904397615,0.7754802533293423,0.08385481374822745,0.19146782761331915,0.05916728615079322,0.39889635957322245
358,20.733,20.43,-0.45,0.017566225343750477,0.7758620779690805,0.08268246257040664,0.1906937056568397,0.058342150895790985,0.39845538180817053
359,20.795,20.48,-0.44,0.017271914129934514,0.7762271860896732,0.08149930485167568,0.189931998654458,0.057508361586208534,0.39802289482832465
360,20.857,20.54,-0.55,0.016971151809066425,0.7765754778175302,0.08030602542787876,0.18918292055970878,0.05666647266563594,0.39759920170989216
361,20.958,20.59,-0.52,0.016664127919167986,0.7769068684006567,0.07910330413067679,0.18844667181685035,0.05581703622557827,0.3971845946764529
362,20.978,20.65,-0.48,0.016351043991616028,0.7772212884722913,0.07789181560322309,0.18772343946636513,0.054960601796345473,0.3967793550894852
363,21.018,20.7,-0.55,0.016032113540427873,0.7775186843123797,0.07667222913552259,0.18701339726832228,0.054097716152360316,0.39638375344875226
364,21.079,20.76,-0.57,0.015707562038931398,0.7777990181051684,0.0754452085186801,0.18631670584326462,0.0532289231315735,0.39599804940197847
365,21.16,20.81,-0.48,0.015377626883372781,0.7780622681912543,0.07421141191716212,0.18563351283032306,0.05235476346862512,0.3956224917632729
366,21.181,20.87,-0.55,0.015042557343014898,0.7783084293124745,0.0729714917581123,0.1849639530622493,0.05147577464134701,0.3952573185397334
367,21.242,20.92,-0.59,0.014702614496279994,0.7785375128480546,0.07172609463669045,0.18430814875698484,0.050592490730159353,0.39490275696561156
368,21.304,20.98,-0.53,0.01435807115249863,0.778749547040429,0.07047586123635978,0.18366620972528822,0.04970544228988198,0.39455902354335753
369,21.345,21.03,-0.51,0.014009211758854464,0.778944577209088,0.06922142626306568,0.18303823359381483,0.04881515623345282,0.3942263240908116
370,21.406,21.09,-0.59,0.013656332292158051,0.7791226659507587,0.06796341839232654,0.18242430604289303,0.04792215572701344,0.39390485379380363
371,21.448,21.14,-0.51,0.01329974013512375,0.7792838933242391,0.066702460228331,0.18182450105811382,0.0470269600957925,0.39359479726344576
372,21.509,21.2,-0.48,0.012939753936856107,0.7794283570183145,0.06543916827418475,0.18123888119478662,0.04613008474020385,0.39329632859744285
373,21.549,21.25,-0.56,0.012576703457285413,0.7795561725013086,0.06417415291247146,0.18066749785431827,0.04523204106157133,0.3930096114447876
374,21.611,21.31,-0.59,0.012210929395333673,0.7796674731509353,0.06290801839527205,0.18011039157166547,0.044333336396892575,0.392734799073255
375,21.673,21.36,-0.51,0.011842783200637313,0.7797624103632091,0.06164136284274248,0.17956759231313332,0.043434473962055915,0.39247203443914014
376,21.736,21.42,-0.58,0.01147262686869504,0.7798411536392541,0.06037477824931325,0.17903911978387202,0.04253595280290971,0.39222145025871086
377,21.777,21.47,-0.61,0.01110083271934394,0.7799038906489274,0.05910885049653728,0.17852498374443226,0.041638267753544594,0.3919831690808631
378,21.839,21.53,-0.5,0.010727783158498108,0.7799508272702557,0.05784415937155749,0.178025184335713,0.0407419094011056,0.3917573033604736
379,21.9,21.58,-0.5,0.010353870423124713,0.7799821876037336,0.05658127859012745,0.1775397124115903,0.03984736405641699,0.39154395553192717
380,21.961,21.64,-0.57,0.009979496309476078,0.7799982139605836,0.05532077582309835,0.17706854987846604,0.038955113729682654,0.39134321808229605
381,22.023,21.69,-0.51,0.009605071884635068,0.7799991668241446,0.05406321272529039,0.17661167004094383,0.03806563611052847,0.3911551736236572
382,22.043,21.75,-0.48,0.009231017181470489,0.7799853247836466,0.052809144965715725,0.17616903795280003,0.03717940455167807,0.39097989496403796
383,22.105,21.8,-0.57,0.008857760877151009,0.7799569844397231,0.05155912225823806,0.1757406107723255,0.036296888055577084,0.390817445176522
384,22.187,21.86,-0.57,0.008485739955425559,0.7799144602811066,0.0503136883918918,0.17532633812102738,0.035418551263292596,0.3906678776661199
385,22.228,21.91,-0.49,0.008115399352938878,0.7798580845320602,0.04907338126019436,0.17492616244465578,0.03454485444501748,0.39053123623409397
386,22.29,21.97,-0.56,0.0077471915899004744,0.7797882069702036,0.047838732888861896,0.17454001937554364,0.033676253491498255,0.3904075551395106
387,22.33,22.02,-0.57,0.007381576385446856,0.7797051947145234,0.0466102694613656,0.17416783809528052,0.032813199905682246,0.3902968591578581
388,22.413,22.08,-0.46,0.007019020258033944,0.7796094319834967,0.04538851134175506,0.1738095416967697,0.031956140793862255,0.3901991636366148
389,22.433,22.13,-0.48,0.006659996111194946,0.7795013198233686,0.04417397309415853,0.17346504754471617,0.03110551885559209,0.3901144745476542
390,22.516,22.19,-0.54,0.006304982805006727,0.7793812758066843,0.042967163498370986,0.17313426763356332,0.03026177237165752,0.3900427885363723
391,22.557,22.24,-0.45,0.005954464713630741,0.7792497337012112,0.04176858556096259,0.17281710894186722,0.02942533518941887,0.3899840929674084
392,22.619,22.3,-0.42,0.005608931269328281,0.7791071431093958,0.04057873652138664,0.17251347378207824,0.0285966367048874,0.3899383659668108
393,22.681,22.35,-0.5,0.005268876493389274,0.7789539690785039,0.03939810785262821,0.17222326014471295,0.027776101840942133,0.38990557646052015
394,22.702,22.41,-0.46,0.004934798514448361,0.7787906916816004,0.038227185255976556,0.17194636203597416,0.026964151021133594,0.38988568420910447
395,22.765,22.46,-0.4,0.0046071990746950646,0.7786178055695361,0.037066448649530015,0.17168266980800004,0.026161200138563583,0.3898786398387586
396,22.827,22.52,-0.46,0.004286583024514026,0.7784358194941333,0.03591637215007104,0.17143207048103393,0.025367660519370314,0.38988438486865806
397,22.867,22.57,-0.46,0.003973457806103138,0.7782452558028204,0.034777424047973356,0.17119444805688774,0.024583938880382426,0.38990285173482764
398,22.929,22.63,-0.35,0.0036683329266168087,0.7780466499050447,0.033650066774813095,0.17096968382313552,0.023810437280543235,0.3899339638107027
399,22.992,22.68,-0.38,0.0033717194213776862,0.7778405497108546,0.03253475686337115,0.17075765664749232,0.02304755306575033,0.38997763542453995
400,23.033,22.74,-0.44,0.0030841293077082856,0.7776275150420647,0.03143194489974147,0.17055824326180838,0.02229567880680457,0.3900337718737828
401,23.136,22.79,-0.35,0.002806075029957922,0.7774081170163981,0.03034207546729878,0.17037131853505952,0.02155520223022524,0.3901022694364251
402,23.156,22.85,-0.33,0.0025380688963433313,0.7771829374049654,0.029265587082344932,0.1701967557346526,0.020826506141757156,0.39018301537936956
403,23.24,22.9,-0.42,0.0022806225082685674,0.7769525679634183,0.028202912121331854,0.17003442677532193,0.020109968342455025,0.3902758879637858
404,23.26,22.96,-0.37,0.002034246182829054,0.7767176097371493,0.027154476739618714,0.16988420245492683,0.019405961537282596,0.39038075644753556
405,23.322,23.01,-0.38,0.0017994483692284717,0.7764786723410523,0.0261207007817686,0.16974595267657647,0.018714853236217736,0.3904974810848093
406,23.363,23.07,-0.45,0.0015767350598484679,0.7762363732145665,0.025101997683427142,0.16961954665666357,0.018037005647899493,0.39062591312321293
407,23.425,23.12,-0.46,0.0013666091967205875,0.7759913368529685,0.024098774364845536,0.1695048531185605,0.017372775565876807,0.3907658947986583
408,23.548,23.18,-0.38,0.001169570074160369,0.7757441940160966,0.023111431116113752,0.16940174047188478,0.016722514247525102,0.39091725932854254
409,23.568,23.23,-0.43,0.0009861127383492846,0.7754955809158183,0.02214036147419009,0.1693100769773136,0.016086567285690818,0.3910798309038
410,23.61,23.29,-0.47,0.0008167273846823549,0.7752461383836285,0.021185952091861318,0.1692297308969028,0.015465274473116289,0.3912534246804727
411,23.652,23.34,-0.39,0.000661898753729972,0.7749965110197893,0.020248582598814305,0.1691605706297968,0.01485896965970737,0.3914378467714348
412,23.715,23.4,-0.39,0.0005221055266940818,0.7747473463254301,0.01932862545504786,0.1691024648331364,0.01426798060273192,0.3916328942388683
413,23.777,23.45,-0.46,0.00039781972127535145,0.7744992938190063,0.01842644579690115,0.16905528252791635,0.01369262881006711,0.39183835508805737
414,23.798,23.51,-0.39,0.0002895060889039998,0.7742530041384781,0.01754240127600149,0.16901889318954796,0.013133229376651429,0.3920540082630665
415,23.88,23.56,-0.37,0.00019762151433075264,0.7740091281305198,0.016676841891473275,0.168993166822931,0.012590090814345156,0.3922796236448807
416,23.941,23.62,-0.46,0.00012261441861801607,0.7737683159280488,0.015830109815811195,0.1689779740219052,0.012063514875452328,0.3925149620526065
417,23.982,23.67,-0.46,6.492416660904713e-05,0.7735312160173841,0.015002539214875585,0.1689731860130501,0.011553796370203153,0.39275977524837113
418,24.045,23.73,-0.42,2.49804799787239e-05,0.773298474296436,0.01419445606250147,0.16897867468392572,0.011061222978536978,0.39301380594659047
419,24.106,23.78,-0.5,3.2028569810463005e-06,0.7730707331254406,0.013406177950237559,0.1689943125959482,0.010586075056551217,0.3932767878283016
420,24.147,23.84,-0.53,0.0,0.7728486303718752,0.012638013892739408,0.1690199729821549,0.010128625437983646,0.3935484455612895
421,24.249,23.89,-0.4,1.576925198244859e-05,0.7726327984513106,0.011890264129331526,0.16905552973014318,0.009689139231085503,0.3938284948267309
422,24.269,23.95,-0.42,5.08960427973226e-05,0.7724238633660271,0.011163219922246555,0.16910085735044844,0.009267873611233528,0.39411664235305427
423,24.31,24.0,-0.48,0.0001057533465357805,0.7722224437432614,0.010457163352042748,0.16915583093060388,0.00886507760963316,0.3944125859576661
424,24.37,24.06,-0.42,0.0001807011507450712,0.7720291498749539,0.009772367110671068,0.16922032607516233,0.008480991898501785,0.39471601459713457
425,24.412,24.11,-0.4,0.0002760859385830638,0.7718445827608637,0.009109094292626503,0.16929421883207788,0.008115848573185674,0.3950266084263507
426,24.474,24.17,-0.51,0.00039224018489001646,0.771669333156899,0.008467598184613774,0.16937738560597398,0.007769870931727311,0.39534403886712216
427,24.535,24.22,-0.47,0.0005294818671905233,0.771503980630498,0.007848122054190335,0.16946970305893796,0.007443273252448248,0.39566796868665427
428,24.617,24.28,-0.43,0.0006881139926552773,0.7713490926249206,0.007250898937919099,0.1695710479995612,0.007136260570147588,0.39599805208638955
429,24.638,24.33,-0.51,0.0008684241420572744,0.7712052235343725,0.006676151429655002,0.16968129726099532,0.006849028451535612,0.39633393480175566
430,24.7,24.39,-0.53,0.001070684031749512,0.7710729137919646,0.0061240914696506854,0.16980032756884314,0.0065817627705265554,0.3966752542134493
431,24.804,24.44,-0.44,0.0012951490946647062,0.7709526889725996,0.005594920135176355,0.16992801539976787,0.006334639484019895,0.3970216394709304
432,24.824,24.5,-0.51,0.0015420580813101377,0.7708450589129232,0.005088827433326023,0.17006423683175168,0.006107824408805937,0.39737271162876664
433,24.844,24.55,-0.55,0.001811632681696604,0.7707505168504702,0.004605992096629575,0.17020886738694935,0.005901473000236968,0.39772808379638513
434,24.906,24.61,-0.48,0.0021040771690983636,0.7706695385840993,0.004146581382021238,0.17036178186806908,0.00571573013331711,0.3980873613016766
435,24.968,24.66,-0.46,0.002419578066506022,0.7706025816577534,0.003710750873655318,0.17052285418917545,0.005550729886882231,0.39845014186878097
436,25.031,24.72,-0.56,0.002758303836605292,0.7705500845694985,0.003298644290028147,0.17069195720177419,0.005406595331557246,0.3988160158102978
437,25.095,24.77,-0.5,0.003120404596096175,0.7705124660077253,0.0029103932958391187,0.17086896251705377,0.005283438322202984,0.39918456623411214
438,25.136,24.83,-0.48,0.0035060118551495465,0.7704901241163626,0.002546117319025806,0.1710537403252296,0.005181359295597671,0.39955536926498597
439,25.177,24.88,-0.56,0.00391523828277842,0.7704834357909437,0.002205923373440626,0.17124615921301756,0.0051004470741287415,0.3999279942810526
440,25.239,24.94,-0.59,0.00434817749888193,0.7704927560073928,0.0018899058876742762,0.17144608598035818,0.0050407786762882816,0.4003020041653601
441,25.34,24.99,-0.52,0.004804903893698619,0.770518417185419,0.001598146540566416,0.17165338545759767,0.005002419134776981,0.4006769555726121
442,25.36,25.05,-0.59,0.005285472475388817,0.7705607285883656,0.0013307141039795244,0.17186792032435944,0.004985421323020058,0.4010523992112282
443,25.423,25.1,-0.64,0.005789918746441596,0.7706199757612873,0.0010876642934522487,0.17208955093129835,0.004989825790881358,0.4014278801407962
444,25.465,25.16,-0.55,0.006318258609563465,0.7706964200089019,0.0008690396273674126,0.172318135125837,0.0050156606103430095,0.401802938084899
445,25.505,25.21,-0.57,0.006870488303650022,0.7707902979149166,0.0006748692952919693,0.17255352808285573,0.00506294123190344,0.40217710775917326
446,25.566,25.27,-0.65,0.00744658437037933,0.7709018209040456,0.0005051690361580148,0.17279558214117838,0.0051316703524342845,0.4025499192143402
447,25.627,25.32,-0.59,0.008046503651899451,0.7710311748478792,0.00035994102695117476,0.1730441466466126,0.0052218377952354695,0.4029208981938605
448,25.709,25.38,-0.57,0.0086701833200205,0.7711785197155877,0.0002391737825854792,0.1732990678022625,0.005333420403035778,0.40328956650580294
449,25.729,25.43,-0.67,0.009317540937272705,0.771343989270315,0.0001428420676817919,0.17356018852680272,0.005466381944690019,0.40365544240850537
450,25.791,25.49,-0.66,0.009988474550143952,0.7715276908120056,7.09068210140457e-05,0.17382734832139768,0.00562067303632134,0.40401804100963584
451,25.833,25.54,-0.63,0.010682862814762694,0.7717297049673436,2.3315093420183176e-05,0.17410038314597054,0.005796231077653381,0.40437687467828987
452,25.895,25.6,-0.71,0.011400565155242287,0.7719500855274252,0.0,0.1743791253055446,0.005992980204263011,0.40473145346979283
453,25.956,25.65,-0.75,0.012141421954832685,0.7721888593337284,8.806874160872453e-07,0.1746634033473833,0.00621083125645286,0.40508128556290385
454,26.017,25.71,-0.69,0.012905254779939871,0.7724460262128912,2.5862317078773144e-05,0.17495304196963454,0.006449681765400139,0.40542587770912486
455,26.159,25.76,-0.74,0.013691866636973925,0.772721558960707,7.483606493861452e-05,0.17524786194210507,0.006709415957188634,0.4057647356937813
456,26.18,25.82,-0.81,0.014501042261877367,0.7730154033756259,0.00014767913854269254,0.17554768003966786,0.006989904775274081,0.40609736480847175
457,26.201,25.87,-0.74,0.015332548442069827,0.773327478341913,0.0002442548119181047,0.1758523089886819,0.007291005921877596,0.4064232703343869
458,26.241,25.93,-0.74,0.01618613437043688,0.7736576759624679,0.000364412478773128,0.1761615574266891,0.007612563918754438,0.40674195803589425
459,26.302,25.98,-0.84,0.017061532030900224,0.7740058617411595,0.000507987724462799,0.1764752298755454,0.007954410187736734,0.40705293466370085
460,26.344,26.04,-0.8,0.017958456615027575,0.7743718748143954,0.0006748024171313339,0.17679312672808462,0.008316363151406651,0.40735570846688013
461,26.468,26.09,-0.77,0.01887660696907092,0.7747555282315575,0.0008646648184079197,0.17711504424841848,0.008698228354221944,0.4076497897130344
462,26.489,26.15,-0.86,0.01981566607075516,0.7751566092838712,0.001077369713987653,0.1774407745860129,0.009099798604377074,0.4079346912158855
463,26.51,26.2,-0.88,0.020775301535068486,0.7755748798812284,0.0013126985643686997,0.17777010580374228,0.009520854136633783,0.4082099288696112
464,26.55,26.26,-0.82,0.02175516614823401,0.7760100769764285,0.0015704196759322676,0.1781028219201906,0.00996116279630169,0.4084750221892435
465,26.612,26.31,-0.9,0.022754898428975136,0.7764619130361962,0.0018502883924741984,0.17843870296649061,0.01042048024449004,0.4087294948564044
466,26.674,26.37,-0.94,0.02377412321611596,0.7769300765581632,0.002152047307226125,0.17877752505794525,0.010898550184680179,0.40897287526958037
467,26.716,26.42,-0.89,0.024812452281482187,0.777414232632804,0.002475426495336898,0.17911906048057166,0.011395104610595171,0.409204697098041
468,26.817,26.48,-0.87,0.025869484966990968,0.7779140235490729,0.002820143766728931,0.17946307779255863,0.011909864075270851,0.40942449983841167
469,26.838,26.53,-0.96,0.026944808844743363,0.7784290694422493,0.003185904939208387,0.17980934194046277,0.012442537981160552,0.40963182937283854
470,26.878,26.59,-0.91,0.028038000398854873,0.7789589689822998,0.00357240413166629,0.1801576143898575,0.012992824891043395,0.409826238527642
471,26.938,26.64,-0.89,0.029148625727682675,0.7795033001009269,0.0039793240771681905,0.18050765327010265,0.0135604128594579,0.41000728763131167
472,27.0,26.7,-0.97,0.030276241265031787,0.7800616207553919,0.004406336455681579,0.18085921353290826,0.014144979784336285,0.41017454507067186
473,27.062,26.75,-0.98,0.03142039451885123,0.7806334697271435,0.0048531022461162955,0.18121204712440464,0.01474619377846038,0.4103275878440348
474,27.104,26.81,-0.91,0.032580624825866156,0.781218367453233,0.0053192720972491956,0.18156590317047444,0.01536371356030251,0.41046600211014955
475,27.188,26.86,-0.99,0.03375646412053897,0.78181581688841,0.005804486717020803,0.1819205281750775,0.015997188863748932,0.4105893837317351
476,27.248,26.92,-1.03,0.03494743771670358,0.782425304395704,0.006308377279630522,0.18227566623119215,0.016646260866130767,0.4106973388123655
477,27.269,26.97,-0.92,0.03615306510016436,0.7830463006631918,0.0068305658498104,0.1826310592438377,0.017310562633916057,0.4107894842254395
478,27.372,27.03,-0.92,0.03737286073050333,0.7836782616445463,0.00737066582364029,0.18298644716444668,0.017989719585346665,0.41086544813392206
479,27.393,27.08,-1.01,0.0386063348502932,0.7843206295208688,0.007928282385266302,0.18334156823566264,0.0186833499692351,0.41092487049953075
480,27.456,27.14,-0.92,0.0398529942998738,0.7849728336812484,0.008503012978885869,0.18369615924551538,0.019391065359084563,0.41096740358005324
481,27.498,27.19,-0.89,0.04111234333583122,0.7856342917194882,0.00909444779537732,0.18404995578986486,0.02011247116166617,0.41099271241352464
482,27.559,27.25,-0.97,0.04238388445132882,0.7863044104444299,0.009702170272977075,0.1844026925419841,0.020847167139164256,0.4110004752880664
483,27.601,27.3,-0.95,0.04366711919646417,0.7869825869013359,0.010325757611399106,0.1847541035281798,0.021594747943973553,0.41099038419626804
484,27.662,27.36,-0.89,0.044961548996859196,0.7876682094018104,0.010964781298727825,0.18510392240844523,0.022354803665207305,0.4109621452730463
485,27.723,27.41,-0.98,0.04626667596872459,0.7883606585597831,0.01161880765031814,0.18545188276126418,0.023126920385942763,0.4109154792159453
486,27.783,27.47,-1.01,0.04758200372866012,0.7890593083311356,0.012287398358824668,0.18579771837179138,0.023910680750183388,0.41085012168687757
487,27.825,27.52,-0.9,0.048907038196464206,0.7897635270545903,0.0129701110543723,0.18614116352268967,0.024705664538459602,0.41076582369434067
488,27.907,27.58,-0.92,0.05024128838923134,0.7904726784915148,0.013666499873809874,0.18648195328687694,0.025511449250922896,0.4106623519551785
489,27.928,27.63,-0.96,0.0515842672050205,0.7911861228622765,0.014376116037948616,0.18681982382136436,0.026327610696716092,0.41053948923499783
490,27.989,27.69,-0.88,0.05293549219437857,0.7919032178767772,0.015098508435664414,0.18715451266130492,0.027153723588350342,0.41039703466636424
491,28.051,27.74,-0.84,0.05429448631802327,0.7926233197567764,0.015833224213742888,0.1874857590133289,0.027989362139794544,0.4102348040438945
492,28.112,27.8,-0.92,0.05566077868902087,0.7933457842475964,0.01657980937135363,0.1878133040472099,0.02883410066697113,0.41005263009537574
493,28.154,27.85,-0.86,0.05703390529783977,0.7940699676168097,0.017337809358021185,0.18813689118492868,0.029687514189346207,0.40985036272810094
494,28.215,27.91,-0.78,0.05841340971870819,0.7947952276375452,0.01810676967391933,0.1884562663862821,0.03054917903130187,0.40962786924970307
495,28.297,27.96,-0.84,0.05979884379575756,0.7955209245541227,0.01888623647127308,0.18877117843028027,0.03141867342197652,0.4093850345628703
496,28.318,28.02,-0.86,0.061189768307485744,0.7962464220278198,0.019675757155608157,0.1890813791916694,0.032295578092254126,0.4091217613334309
497,28.38,28.07,-0.77,0.06258575360812951,0.7969710880606924,0.020474880985520597,0.18938662391200406,0.03317947686758253,0.4088379701313521
498,28.421,28.13,-0.79,0.06398638024459831,0.7976942958954425,0.021283159669570315,0.1896866714647478,0.03406995725529831,0.4085335995442198
499,28.483,28.18,-0.81,0.06539123954768368,0.7984154248893583,0.022100147958826786,0.18998128461388666,0.03496661102511902,0.4082086062627692
500,28.543,28.24,-0.7,0.0667999341963156,0.7991338613603562,0.022925404233533498,0.19027023026551268,0.0358690347814465,0.40786296513803244
501,28.626,28.29,-0.67,0.068212078753694,0.7998489994031753,0.023758491082338604,0.19055327971177094,0.036776830526120144,0.4074966692096621
502,28.71,28.35,-0.72,0.06962730017418964,0.80056024167381,0.024598975872561428,0.19083020886649896,0.03768960621027126,0.4071097297050143
503,28.73,28.4,-0.64,0.07104523827997836,0.8012670001403753,0.025446431309990518,0.1911007984918928,0.038606976273962035,0.40670217600863695
504,28.77,28.46,-0.58,0.07246554620644907,0.8019686967987527,0.026300435986719915,0.19136483441563487,0.03952856217234421,0.40627405560188584
505,28.812,28.51,-0.64,0.07388789081550992,0.8026647643515582,0.027160574915536802,0.19162210773807836,0.04045399288712699,0.4058254339724928
506,28.874,28.57,-0.63,0.07531195307600144,0.8033546468491827,0.028026440049363787,0.19187241502927188,0.0413829054221945,0.4053563944940115
507,28.916,28.62,-0.53,0.07673742841051623,0.8040378002918555,0.02889763078425471,0.19211555851576784,0.042314945282260694,0.404867038275153
508,29.019,28.68,-0.59,0.07816402700801474,0.8047136931918516,0.029773754444487693,0.1923513462571903,0.04324976693348524,0.4043574839790918
509,29.039,28.73,-0.64,0.07959147410171033,0.8053818070951001,0.030654426748390376,0.1925795923124106,0.04418703424499461,0.40382786761287087
510,29.1,28.79,-0.53,0.08101951021177146,0.8060416370615637,0.03153927225363354,0.19280011689496795,0.04512642091026832,0.4032783422870658
511,29.141,28.84,-0.5,0.08244789135246153,0.8066926921038294,0.0324279247808169,0.19301274651717465,0.046067610847362175,0.4027090779458975
512,29.203,28.9,-0.56,0.08387638920341096,0.8073344955834251,0.03332002781422605,0.19321731412223891,0.04701029857694413,0.4021202610680503
513,29.265,28.95,-0.45,0.08530479124479315,0.8079665855644746,0.0342152348786638,0.19341365920376238,0.04795418957713247,0.401512094338571
514,29.306,29.01,-0.38,0.08673290085625746,0.8085885151244643,0.035113209891290006,0.1936016279120729,0.048899000614167194,0.40088479629233315
515,29.389,29.06,-0.43,0.0881605373795667,0.80919985262208,0.03601362748747256,0.19378107314698892,0.049844460048008694,0.40023860092967795
516,29.409,29.12,-0.4,0.08958753614498115,0.8098001819223093,0.03691617331973065,0.19395185463676934,0.050790308112035075,0.39957375730495137
517,29.472,29.17,-0.31,0.09101374846152523,0.8103891025792397,0.03782054432891564,0.19411383900317708,0.05173629716610129,0.39889052908874634
518,29.535,29.23,-0.37,0.09243904157137037,0.8109662299771998,0.03872644898684379,0.194266899812727,0.052682191922312875,0.39818919410471143
519,29.576,29.28,-0.38,0.09386329856866446,0.8115311954310479,0.039633607509675386,0.19441091761426804,0.05362776964293985,0.3974700438418391
520,29.638,29.34,-0.3,0.09528641828323402,0.8120836462465124,0.04054175204143062,0.19454577996306377,0.05457282030995822,0.396733382943168
521,29.698,29.39,-0.29,0.09670831512966943,0.8126232457415337,0.04145062680715382,0.19467138143147983,0.055517146765758356,0.3959795286718394
522,29.761,29.45,-0.34,0.0981289189223734,0.8131496732295478,0.042359988235351,0.1947876236063066,0.0564605648246029,0.395208810355458
523,29.802,29.5,-0.23,0.09954817465720492,0.8136626239656432,0.043269605049405295,0.19489441507271318,0.05740290335446044,0.3944215688097562
524,29.864,29.56,-0.18,0.10096604226041159,0.8141618090565022,0.04417925832777108,0.19499167138484305,0.05834400432889736,0.3936181557426303
525,29.925,29.61,-0.23,0.10238249630562188,0.8146469553350381,0.045088741532881456,0.19507931502309692,0.0592837228487771,0.39279893313972114
526,29.966,29.67,-0.18,0.10379752569976117,0.8151178052006604,0.045997860508854106,0.19515727533820884,0.06022192713359899,0.3919642726328201
527,30.028,29.72,-0.1,0.10521113333884657,0.8155741164261818,0.046906433448229146,0.19522548848229587,0.06115849848241011,0.39111455485246394
528,30.129,29.78,-0.18,0.10662333573469443,0.8160156619324834,0.047814290828121074,0.19528389732710888,0.0620933312043281,0.3902501687661455
529,30.15,29.83,-0.19,0.10803416261363237,0.8164422295321966,0.04872127531628286,0.1953324513697334,0.0630263325188052,0.3893715110036169
530,30.191,29.89,-0.09,0.10944365648834668,0.8168536216438279,0.04962724164764831,0.19537110662600587,0.0639574224258483,0.3884789851707875
531,30.253,29.94,-0.11,0.11085187220402683,0.8172496549778975,0.05053205647195917,0.19539982551190468,0.06488653354647472,0.387573001153711
532,30.295,30.0,-0.17,0.11225887645999545,0.8176301601967731,0.051435598173110025,0.19541857671315585,0.0658136109337307,0.38665397441413807
533,30.377,30.05,-0.06,0.11366474730803505,0.8179949815499442,0.052337756660868616,0.1954273350432922,0.06673861185464583,0.3857223252780725
534,30.398,30.11,-0.03,0.11506957362864625,0.8183439764864839,0.05323843313568214,0.19542608129041483,0.06766150554355557,0.38477847821871924
535,30.499,30.16,-0.1,0.11647345458650582,0.8186770152464241,0.05413753982736111,0.19541480205291828,0.06858227292728905,0.3838228611351845
536,30.52,30.22,-0.05,0.11787649906642786,0.8189939804327463,0.055034999708511195,0.19539348956449096,0.06950090632279497,0.38285590462830016
537,30.582,30.27,0.02,0.11927882509116923,0.8192947665657213,0.05593074618365599,0.19536214150878492,0.07041740910786484,0.3818780412749741
538,30.624,30.33,-0.05,0.12068055922245713,0.8195792796213708,0.056824722755058815,0.19532076082422703,0.07133179536569453,0.3808897049025134
539,30.686,30.38,-0.07,0.12208183594665081,0.8198474365558762,0.05771688266629963,0.19526935549952643,0.07224408950409478,0.3798913298644215
540,30.728,30.44,0.02,0.12348279704648124,0.8200991648178043,0.05860718852467786,0.19520793836053418,0.07315432585022932,0.3788833503191793
541,30.789,30.49,-0.04,0.12488359096034303,0.8203344018499992,0.05949561190351944,0.19513652684920363,0.07406254822182007,0.3778661995134859
542,30.85,30.55,-0.1,0.12628437213063848,0.8205530945829393,0.06038213292546764,0.19505514279545522,0.07496880947580568,0.37684030907138394
543,30.912,30.6,-0.02,0.12768530034268977,0.8207551989212639,0.061266739827835454,0.19496381218275913,0.07587317103547678,0.37580610829065325
544,30.973,30.66,0.01,0.12908654005574816,0.8209406792250526,0.06214942851112551,0.19486256490819484,0.07677570239714038,0.3747640234478283
545,31.034,30.71,-0.07,0.1304882597276437,0.8211095077873238,0.06303020207188197,0.1947514345376625,0.0776764806173852,0.37371447711322103
546,31.076,30.77,-0.02,0.1318906311346284,0.8212616643091247,0.06390907032110615,0.1946304580568722,0.0785755897820426,0.3726578874773866
547,31.138,30.82,0.06,0.1332938286879728,0.8213971353735704,0.06478604928952876,0.19449967561876672,0.07947312045797977,0.3715946676905279
548,31.261,30.88,-0.01,0.13469802874888057,0.8215159139202166,0.06566116072108721,0.19435913028811208,0.08036916912891581,0.3705252252163777
549,31.282,30.93,-0.02,0.13610340894328582,0.8216179987212259,0.06653443155598138,0.19420886778411178,0.08126383761651015,0.36944996120213447
550,31.303,30.99,0.1,0.13751014747809606,0.8217033938608519,0.06740589340468275,0.1940489362220173,0.08215723248803855,0.3683692698660084
551,31.344,31.04,0.04,0.13891842246044286,0.8217721082197766,0.06827558201428395,0.19387938585476133,0.08304946445204,0.36728353790385987
552,31.408,31.1,-0.03,0.1403284112214927,0.8218241549657831,0.06914353672859451,0.193700268815617,0.0839406477433787,0.3661931439162734
553,31.448,31.15,0.03,0.14174028964634452,0.821859551052145,0.07000979994340716,0.19351163886282768,0.08483089949922853,0.3650984578571983
554,31.508,31.21,0.03,0.14315423151150117,0.8218783167249718,0.0708744165583826,0.19331355112706344,0.0857203391275433,0.36399984050506345
555,31.59,31.26,-0.06,0.14457040783135167,0.821880475040589,0.07173743342702867,0.19310606186245632,0.08660908766960584,0.3628976429571035
556,31.611,31.32,-0.01,0.14598898621504294,0.8218660513939038,0.07259889880625518,0.19288922820191529,0.08749726715826166,0.3617922061475622
557,31.694,31.37,0.02,0.14741013023506616,0.8218350730585993,0.07345886180697095,0.19266310791743535,0.08838499997344652,0.36068386039042144
558,31.736,31.43,-0.05,0.14883399880883874,0.8217875687399335,0.07431737184717815,0.19242775918617164,0.08927240819662188,0.3595729249473074
559,31.798,31.48,-0.08,0.15026074559452388,0.821723568140896,0.07517447810900192,0.19218324036311968,0.09015961296573098,0.3584597076212349
560,31.839,31.54,-0.01,0.1516905184022857,0.8216431015424746,0.07603022900106396,0.1919296097613005,0.09104673383229278,0.35734450437682275
561,31.901,31.59,-0.08,0.15312345862213395,0.8215461993987894,0.07688467162759073,0.19166692544033553,0.09193388812224917,0.35622759898754525
562,31.963,31.65,-0.15,0.15455970066946553,0.821432891947807,0.07773785126562402,0.1913952450042074,0.0928211903021689,0.3551092627104896
563,32.025,31.7,-0.09,0.1559993714493641,0.8213032088382903,0.0785898108516679,0.19111462540887666,0.09370875135239166,0.35398975398896815
564,32.066,31.76,-0.08,0.15744258984067883,0.8211571787735199,0.07944059047908344,0.1908251227802741,0.09459667814866887,0.35286931818321055
565,32.129,31.81,-0.17,0.15888946620085354,0.8209948291721981,0.08029022690752698,0.19052679224304345,0.09548507285381694,0.3517481873292618
566,32.191,31.87,-0.11,0.16034010189240536,0.8208161858468656,0.08113875308567987,0.19021968776032935,0.09637403232086068,0.3506265799261538
567,32.232,31.92,-0.08,0.1617945888318648,0.8206212727001153,0.08198619768845,0.1899038619849084,0.09726364750911923,0.3495047007513822
568,32.336,31.98,-0.16,0.16325300906190712,0.8204101114388629,0.08283258466976245,0.1895793661220022,0.09815400291466943,0.3483827407047173
569,32.356,32.03,-0.19,0.16471543434734068,0.8201827213068889,0.08367793283200291,0.18924624980418145,0.09904517601660834,0.34726087668040195
570,32.397,32.09,-0.12,0.16618192579557775,0.8199391188358259,0.08452225541313656,0.18890456097883387,0.09993723674052574,0.3461392714677885
571,32.479,32.14,-0.21,0.167652533502193,0.8196793176147013,0.08536555969250204,0.18855434580867392,0.1008302469405777,0.3450180736804376
572,32.5,32.2,-0.28,0.16912729622216116,0.8194033280781082,0.0862078466162634,0.18819564858569726,0.10172425990151171,0.3438974177136332
573,32.541,32.25,-0.23,0.1706062410673467,0.8191111573130726,0.08704911044347463,0.18782851165884643,0.10261931986193813,0.34277742373016884
574,32.606,32.31,-0.24,0.17208938323079467,0.8188028088846814,0.08788933841367222,0.18745297537547917,0.10351546156007227,0.34165819767412675
575,32.707,32.36,-0.35,0.17357672573833627,0.8184782826805267,0.08872851043684477,0.18706907803656234,0.1044127098030849,0.34053983131226845
576,32.727,32.42,-0.28,0.1750682592279714,0.818137574774018,0.08956659880650981,0.18667685586541136,0.10531107906110454,0.3394224023025982
577,32.789,32.47,-0.26,0.17656396175742367,0.8177806773066025,0.09040356793650886,0.18627634298974396,0.10621057308683123,0.33830597428963904
578,32.851,32.53,-0.34,0.1780637986401939,0.8174075783889366,0.09123937412204125,0.1858675714367948,0.10711118456164223,0.33719059702596826
579,32.892,32.58,-0.35,0.17956772231036805,0.8170182620210691,0.0920739653253898,0.1854505711412409,0.10801289476900286,0.33607630651957904
580,32.975,32.64,-0.27,0.1810756722163747,0.8166127080317447,0.09290728098673341,0.185025369965721,0.10891567329593713,0.33496312520663873
581,33.016,32.69,-0.35,0.1825875747438372,0.8161908920369855,0.09373925186039583,0.1845919937337403,0.10981947776325632,0.3338510621491974
582,33.058,32.75,-0.39,0.1841033431676198,0.8157527854181428,0.09456979987682218,0.18415046627472087,0.11072425358517905,0.33274011325737374
583,33.118,32.8,-0.3,0.1856228776331147,0.815298355319625,0.09539883803049981,0.18370080948090212,0.11162993375891225,0.3316302615354703
584,33.159,32.86,-0.32,0.18714606516677423,0.8148275646664505,0.09622627029397243,0.18324304337569122,0.1125364386846999,0.3305214773513718
585,33.22,32.91,-0.41,0.1886727797158474,0.8143403722016476,0.09705199155804368,0.18277718619294864,0.11344367601677936,0.32941371872849146
586,33.282,32.97,-0.35,0.19020288221722598,0.8138367325433714,0.09787588759819997,0.18230325446662043,0.11435154054562344,0.32830693165947095
587,33.344,33.02,-0.31,0.1917362206952472,0.8133165962614474,0.09869783506721663,0.1818212631301098,0.11525991411179022,0.3272010504408041
588,33.427,33.08,-0.38,0.19327263038824236,0.8127799099729123,0.09951770151385639,0.18133122562478998,0.11616866555163986,0.3260959980275514
589,33.448,33.13,-0.39,0.1948119339035654,0.8122266164560469,0.10033534542751303,0.18083315401711006,0.11707765067511,0.32499168640733156
590,33.49,33.19,-0.32,0.19635394140079065,0.8116566547823851,0.10115061630860663,0.18032705912382382,0.11798671227568613,0.32388801699277614
591,33.551,33.24,-0.4,0.19789845080272564,0.8110699604662535,0.10196335476451497,0.17981295064492533,0.11889568017265069,0.322784881031613
592,33.612,33.3,-0.43,0.199445248033842,0.8104664656314859,0.10277339263081069,0.17929083730388776,0.11980437128563409,0.32168216003351924
593,33.653,33.35,-0.33,0.2009941072856747,0.8098460991950319,0.10358055311753177,0.17876072699479142,0.12071258974142172,0.3205797262128554
594,33.715,33.41,-0.35,0.20254479130868885,0.809208787067154,0.10438465098015659,0.17822262693589125,0.12162012701289514,0.3194774429463607
595,33.798,33.46,-0.42,0.20409705173006443,0.8085544523678109,0.10518549271488725,0.177676543829134,0.12252676208990704,0.3183751652448738
596,33.839,33.52,-0.34,0.20565062939680215,0.8078830156586837,0.10598287677777418,0.17712248402511835,0.12343226168182649,0.31727274023813307
597,33.88,33.57,-0.31,0.2072052547435073,0.8071943951902012,0.10677659382718284,0.1765604536929906,0.1243363804514434,0.3161700076716906
598,33.943,33.63,-0.38,0.20876064818416706,0.8064885071628355,0.10756642698910567,0.1759904589947736,0.12523886127987555,0.31506680041497503
599,34.005,33.68,-0.35,0.21031652052719146,0.8057652660019143,0.10835215214482702,0.17541250626366797,0.1261394355620739,0.31396294497954835
600,34.047,33.74,-0.28,0.21187257341294663,0.8050245846451723,0.10913353824043501,0.17482660218593413,0.12703782353248197,0.31285826204660455
601,34.109,33.79,-0.35,0.21342849977297504,0.8042663748422474,0.10991034761764801,0.17423275398601282,0.1279337346203639,0.31175256700274145
602,34.171,33.85,-0.37,0.2149839843100637,0.8034905474653149,0.11068233636537637,0.1736309696145614,0.12882686783427352,0.3106456704830416
603,34.21,33.9,-0.26,0.2165387039982911,0.8026970128300521,0.11144925469136409,0.17302125793908,0.12971691217509246,0.30953737892048755
604,34.292,33.96,-0.28,0.2180923286021603,0.8018856810260878,0.11221084731319282,0.17240362893675779,0.13060354707701988,0.3084274951007307
605,34.332,34.01,-0.35,0.21964452121390593,0.8010564622560448,0.11296685386787939,0.17177809388909968,0.13148644287584624,0.30731581872121766
606,34.394,34.07,-0.26,0.22119493880803928,0.8002092671822273,0.11371700933925123,0.17114466557784716,0.1323652613038049,0.30620214695366155
607,34.414,34.12,-0.23,0.2227432328121765,0.7993440072799385,0.11446104450226112,0.1705033584816786,0.13323965601026738,0.30508627500881436
608,34.475,34.18,-0.33,0.2242890496931841,0.7984605951963394,0.11519868638341128,0.1698541889731465,0.13410927310751838,0.30396799670249086
609,34.537,34.23,-0.31,0.2258320315576658,0.7975589451136947,0.11592965873647189,0.1691971755153099,0.13497375174080725,0.302847105021822
610,34.597,34.29,-0.24,0.22737181676579585,0.796638973115837,0.11665368253268321,0.1685323388575627,0.13583272468183208,0.3017233926907478
611,34.638,34.34,-0.31,0.22890804055747577,0.7957005975566984,0.11737047646461736,0.1678597022302009,0.1366858189447606,0.3005966527337958
612,34.7,34.4,-0.32,0.23044033568974506,0.7947437394298195,0.11807975746283084,0.16717929153731556,0.13753265642382645,0.2994666790372263
613,34.762,34.45,-0.22,0.23196833308432716,0.7937683227377977,0.11878124122435767,0.1664911355476189,0.1383728545514715,0.29833326690664863
614,34.805,34.51,-0.28,0.23349166248414518,0.7927742748606853,0.11947464275203247,0.16579526608278292,0.13920602697594356,0.29719621362021403
615,34.907,34.56,-0.33,0.23500995311760586,0.7917615269223538,0.12015967690359797,0.16509171820277876,0.14003178425719884,0.29605531897649956
616,34.927,34.62,-0.25,0.23652283436941265,0.7907300141538891,0.12083605894953679,0.16438053038762182,0.1408497345799053,0.2949103858362192
617,34.968,34.67,-0.23,0.2380299364566303,0.7896796762531348,0.1215035051385753,0.1636617447148707,0.14165948448228896,0.2937612206569299
618,35.029,34.73,-0.3,0.23953089110869571,0.7886104577395643,0.12216173326984163,0.16293540703220574,0.14246063959950345,0.2926076340199618
619,35.132,34.78,-0.26,0.2410253322500558,0.7875223083036967,0.12281046327069947,0.16220156712443712,0.1432528054201431,0.291449441148883
620,35.154,34.84,-0.19,0.24251289668411524,0.7864151831503026,0.12344941777931931,0.161460278874349,0.1440355880544753,0.29028646241887396
621,35.193,34.89,-0.26,0.24399322477718527,0.7852890433346655,0.1240783227310924,0.16071160041683508,0.14480859501292384,0.28911852385643305
622,35.254,34.95,-0.24,0.2454659611411161,0.7841438560912395,0.12469690794799812,0.15995559428581219,0.14557143599329123,0.2879454576288501
623,35.337,35.0,-0.11,0.246930755313282,0.7829795951540817,0.12530490772999237,0.15919232755343324,0.14632372367516486,0.28676710252286514
624,35.378,35.06,-0.13,0.2483872624325818,0.7817962410684661,0.12590206144740634,0.15842187196116678,0.14706507451991907,0.2855833044118733
625,35.439,35.11,-0.16,0.2498351439101162,0.7805937814930447,0.12648811413324895,0.1576443040423892,0.14779510957470474,0.28439391671098135
626,35.48,35.17,-0.06,0.2512740680932213,0.7793722114918811,0.12706281707420253,0.15685970523626655,0.14851345527882664,0.2831988008191692
627,35.541,35.22,-0.01,0.2527037109215665,0.7781315338156277,0.12762592839904227,0.1560681619928164,0.1492197442709409,0.28199782654777245
628,35.645,35.28,-0.09,0.2541237565740696,0.7768717591710752,0.128177213663212,0.15526976586910646,0.14991361619553575,0.2807908725345198
629,35.706,35.33,-0.03,0.2555338981054209,0.7755929064783107,0.1287164464283221,0.15446461361660882,0.15059471850718956,0.27957782664242925
630,35.727,35.39,0.03,0.25693383807105197,0.7742950031147812,0.12924340883539379,0.15365280725980765,0.15126270727112767,0.27835858634297
631,35.767,35.44,-0.04,0.2583232891394258,0.7729780851456476,0.12975789217075342,0.1528344541662197,0.1519172479586215,0.2771330590830039
632,35.829,35.5,-0.04,0.25970197469056716,0.7716421975399208,0.13025969742354362,0.1520096671080227,0.1525580162357755,0.27590116263512143
633,35.85,35.55,0.08,0.26106962939978795,0.7702873943719575,0.1307486358338395,0.1511785643154951,0.15318469874424892,0.274662825431036
634,35.91,35.61,0.05,0.2624259998055924,0.7689137390079437,0.13122452943036284,0.15034126952242755,0.1537969938724531,0.2734179868777015
635,35.992,35.66,0.04,0.2637708448607714,0.7675213042769898,0.13168721155677685,0.14949791200357138,0.15439461251576084,0.27216659765579315
636,36.013,35.72,0.14,0.265103936465709,0.7661101726264554,0.13213652738553117,0.1486486266040856,0.15497727882427292,0.2709086200001487
637,36.075,35.77,0.17,0.2664250599829582,0.764680436261093,0.13257233441823527,0.1477935537608429,0.15554473093671936,0.26964402796172354
638,36.137,35.83,0.12,0.26773401473218317,0.7632321972655979,0.13299450297157583,0.14693283951537842,0.15609672169911296,0.2683728076506023
639,36.178,35.88,0.19,0.2690306144646122,0.7617655677101638,0.13340291664783774,0.1460666355182581,0.15663301936682425,0.2670949574596462
640,36.241,35.94,0.26,0.27031468781619333,0.7602806697387109,0.13379747278913973,0.14519509902469338,0.15715340828880534,0.2658104882684174
641,36.303,35.99,0.22,0.2715860787387009,0.7587776356395112,0.1341780829145619,0.14431839288129436,0.15765768957274762,0.264519423627099
642,36.367,36.05,0.22,0.27284464690808913,0.7572566078980182,0.13454467313939494,0.14343668550392405,0.1581456817300099,0.2632217999202028
643,36.408,36.1,0.3,0.2740902681094421,0.7557177392317806,0.13489718457576802,0.14255015084668665,0.15861722129921246,0.2619176665098845
644,36.47,36.16,0.25,0.2753228345979124,0.7541611926073644,0.13523557371392916,0.1416589683621113,0.15907216344744565,0.26060708585865644
645,36.533,36.21,0.19,0.2765422554350846,0.7525871412392293,0.13555981278345108,0.14076332295257693,0.15951038254808375,0.2592901336312392
646,36.575,36.27,0.28,0.27774845680022947,0.7509957685704929,0.13586989009361292,0.13986340491299917,0.1599317727342211,0.25796689877524354
647,36.657,36.32,0.32,0.2789413822759479,0.7493872682354756,0.1361658103521992,0.13895940986477257,0.16033624842675884,0.2566374835803611
648,36.697,36.38,0.24,0.2801209931077357,0.7477618440038888,0.13644759496197165,0.13805153868094397,0.16072374483616847,0.2553020037158032
649,36.739,36.43,0.33,0.2812872684370317,0.746119709706522,0.13671528229409707,0.13713999740262572,0.16109421843696406,0.2539605882458517
650,36.801,36.49,0.39,0.2824402055073474,0.7444610891423438,0.13696892793785884,0.13622499714672942,0.16144764741394194,0.2526133796235305
651,36.843,36.54,0.33,0.2835798198431168,0.7427862159669946,0.13720860492604595,0.13530675400517844,0.16178403207928993,0.251260533662546
652,36.905,36.6,0.35,0.2847061454009589,0.7410953335627524,0.13743440393547623,0.13438548893583674,0.16210339525971718,0.2499022194877697
653,36.947,36.65,0.46,0.2858192346930979,0.7393886948901472,0.13764643346215666,0.13346142764546667,0.16240578265281677,0.24853861946459574
654,37.028,36.71,0.4,0.28691915888275854,0.7376665623214739,0.13784481997064743,0.13253480046506014,0.1626912631519393,0.24716992910750182
655,37.11,36.76,0.34,0.2880060078514162,0.7359292074564973,0.13802970801726222,0.1316058422178547,0.1629599291389159,0.24579635696806942
656,37.13,36.82,0.43,0.28907989023783454,0.734176910920687,0.13820126034679245,0.13067479208027347,0.16321189674402609,0.24441812450261527
657,37.171,36.87,0.45,0.29014093344886677,0.7324099621463248,0.13835965796249408,0.12974189343592474,0.16344730607265065,0.24303546591949912
658,37.235,36.93,0.38,0.29118928364203106,0.7306286591368427,0.13850510016912515,0.12880739372269248,0.16366632139807247,0.24164862800617448
659,37.295,36.98,0.46,0.29222510567989846,0.7288333082147989,0.13863780458886457,0.1278715442728966,0.16386913131990827,0.2402578699361356
660,37.336,37.04,0.52,0.29324858305636586,0.7270242237539847,0.1387580071499979,0.1269346001465104,0.1640559488876896,0.23886346305602973
661,37.397,37.09,0.47,0.29425991779493005,0.7252017278962866,0.13886596204833437,0.1259968199574626,0.16422701168916232,0.23746569065332138
662,37.481,37.15,0.47,0.29525933031912655,0.7233661502540717,0.13896194168138168,0.12505846569312512,0.16438258190293617,0.23606484770498629
663,37.502,37.2,0.58,0.29624705929535045,0.7215178275990061,0.13904623655534576,0.12411980252717317,0.16452294631519132,0.23466124060774546
664,37.564,37.26,0.51,0.2972233614483386,0.7196571035382855,0.13911915516505968,0.12318109862604254,0.1646484163002295,0.2332551868903209
665,37.604,37.31,0.46,0.2981885113496496,0.7177843281792846,0.1391810238469821,0.12224262494918546,0.16475932776472416,0.23184701490813714
666,37.666,37.37,0.55,0.2991428011795268,0.7158998577836039,0.1392321866054271,0.12130465504325529,0.1648560410555884,0.23043706352082582
667,37.728,37.42,0.58,0.30008654046257055,0.7140040544114352,0.139273004912219,0.12036746483025064,0.16493894083142718,0.22902568175282662
668,37.769,37.48,0.5,0.3010200557776702,0.7120972855571197,0.13930385747999843,0.11943133238955286,0.16500843589757386,0.22761322843737208
669,37.85,37.53,0.56,0.30194369044266745,0.7101799237767592,0.13932514000942878,0.11849653773376675,0.16506495900474824,0.2262000718441921
670,37.891,37.59,0.61,0.30285780417424213,0.7082523463087984,0.13933726491058515,0.1175633625783322,0.16510896661142474,0.2247865892913553
671,37.953,37.64,0.55,0.30376277272354396,0.7063149346885753,0.13934066099886488,0.11663209010497881,0.1651409386100615,0.2233731667417769
672,38.015,37.7,0.54,0.3046589874881371,0.7043680743579259,0.1393357731658089,0.11570300471923291,0.1651613780173967,0.22196019838505016
673,38.056,37.75,0.64,0.30554685510086516,0.7024121542709991,0.13932306202527733,0.11477639180231337,0.16517081062907785,0.22054808620535438
674,38.118,37.81,0.57,0.30642679699630443,0.7004475664974394,0.13930300353550235,0.11385253745780814,0.1651697846389479,0.21913723953623843
675,38.241,37.86,0.51,0.30729924895552335,0.6984747058240471,0.13927608859763277,0.11293172825349193,0.1651588702233641,0.2177280746030831
676,38.262,37.92,0.59,0.3081646606299172,0.6964939693559268,0.13924282263145035,0.11201425095856624,0.1651386590909731,0.21632101405400966
677,38.283,37.97,0.6,0.3090234950449251,0.6945057561180312,0.13920372512897522,0.11110039227649006,0.16510976399840493,0.21491648647993397
678,38.324,38.03,0.53,0.3098762280844574,0.6925104666578823,0.13915932918668636,0.11019043857346944,0.16507281823237033,0.21351492592443133
679,38.387,38.08,0.62,0.31072334795686374,0.6905085026501793,0.1391101810170504,0.10928467560265766,0.16502847505866552,0.21211677138408505
680,38.451,38.14,0.67,0.31156535464325974,0.6885002665039767,0.1390568394400092,0.10838338822418628,0.16497740713862571,0.2107224663000331
681,38.491,38.19,0.6,0.31240275932903117,0.68648616097312,0.1389998753550564,0.10748686012125816,0.16492030591362605,0.20933245804149156
682,38.574,38.25,0.6,0.3132360838193441,0.6844665887706806,0.13893987119451776,0.10659537351266972,0.16485788095830087,0.20794719738209505
683,38.595,38.3,0.68,0.3140658599395181,0.6824419521881845,0.13887742035864886,0.10570920886227146,0.16479085930323498,0.20656713796991608
684,38.658,38.36,0.6,0.31489262892116043,0.6804126527204543,0.13881312663317474,0.1048286445859664,0.16471998472795948,0.2051927357920122
685,38.721,38.41,0.56,0.315716940775005,0.6783790906968654,0.13874760358991473,0.10395395675687412,0.16464601702514117,0.2038244486343164
686,38.762,38.47,0.64,0.3165393536514283,0.6763416649197684,0.13868147397114094,0.10308541880926685,0.16456973123690186,0.20246273553762867
687,38.825,38.52,0.64,0.3173604331896392,0.6743007723107478,0.138615369058326,0.10222330124181127,0.16449191686424208,0.20110805625039221
688,38.886,38.58,0.55,0.3181807518565433,0.6722568075653094,0.13854992802593172,0.10136787132055575,0.1644133770505676,0.1997608706788924
689,38.948,38.63,0.64,0.3190008882762808,0.6702101628165227,0.13848579728086505,0.10051939278205599,0.16433492774034483,0.19842163833549933
690,38.988,38.69,0.67,0.3198214265514299,0.6681612273081171,0.1384236297882006,0.09967812553704554,0.16425739681395204,0.1970908177855752
691,39.05,38.74,0.6,0.3206429555768776,0.666110387077519,0.13836408438377443,0.09884432537510787,0.16418162319983579,0.19576886609370034
692,39.091,38.8,0.6,0.3214660683473672,0.664058024649352,0.138307825074271,0.09801824367089704,0.16410845596513135,0.1944562382699185
693,39.153,38.85,0.7,0.3222913612597504,0.6620045187399873,0.13825552032545452,0.09720012709255797,0.1640387533859661,0.1931533867167286
694,39.215,38.91,0.6,0.3231194334109934,0.6599502439737621,0.13820784233924988,0.0963902173130542,0.1639733819987256,0.1918607606775625
695,39.34,38.96,0.55,0.3239508858930063,0.6578955706114904,0.13816546632045096,0.09558875072510675,0.16391321563361125,0.19057880568749072
696,39.36,39.02,0.62,0.32478632108537275,0.655840864291835,0.138129069733905,0.09479595816041093,0.16385913443186273,0.18930796302688596
697,39.381,39.07,0.61,0.32562634194705414,0.6537864857860326,0.13809933155309992,0.09401206461372429,0.16381202384804852,0.18804866917875632
698,39.422,39.13,0.52,0.3264715513081216,0.6517327907663482,0.13807693150114647,0.09323728897233216,0.1637727736388367,0.1868013552904524
699,39.504,39.18,0.59,0.32732255116253645,0.6496801295885477,0.13806254928517359,0.09247184375134664,0.163742276839666,0.1855664466404559
700,39.547,39.24,0.62,0.3281799419629589,0.6476288470885789,0.1380568638251671,0.09171593483529535,0.1637214287307521,0.1843443621109415
701,39.609,39.29,0.56,0.32904432191852323,0.6455792823935973,0.13806055247830412,0.09096976122648681,0.1637111257938854,0.18313551366679873
702,39.672,39.35,0.54,0.32991628629648073,0.6435317687474488,0.13807429025987042,0.09023351480070385,0.16371226466150082,0.1819403058418151
703,39.692,39.4,0.6,0.3307964267285836,0.6414866333507516,0.1380987490618932,0.08950738007085093,0.1637257410595385,0.18075913523272155
704,39.754,39.46,0.52,0.3316853305230644,0.6394441972157482,0.13813459687069016,0.08879153395920326,0.16375244874565123,0.17959239000178512
705,39.815,39.51,0.48,0.3325835799830531,0.6374047750361225,0.1381824969846006,0.08808614557886153,0.16379327844433617,0.17844044938860926
706,39.876,39.57,0.56,0.3334917517322558,0.6353686750719417,0.13824310723320146,0.08739137602492815,0.16384911678057565,0.17730368323175125
707,39.918,39.62,0.55,0.3344104160487087,0.63333619904979,0.13831707919933445,0.08670737817578768,0.16392084521356842,0.1761824515006942
708,39.979,39.68,0.44,0.33534013620739955,0.6313076420780183,0.13840505744528617,0.08603429650471871,0.1640093389721286,0.17507710383863248
709,40.041,39.73,0.48,0.336281467832523,0.629283292576928,0.1385076787444597,0.08537226690193613,0.16411546599333274,0.17398797911645414
710,40.103,39.79,0.49,0.33723495826009264,0.6272634322236151,0.13862557131987824,0.08472141650706969,0.1642400858660088,0.17291540499823027
711,40.166,39.84,0.4,0.3382011459116069,0.6252483359111574,0.13875935409086626,0.08408186355202171,0.16438404878065774,0.1718596975184902
712,40.205,39.9,0.39,0.339180559679423,0.6232382717218082,0.13890963592923417,0.08345371721413201,0.16454819448737504,0.17082116067158315
713,40.268,39.95,0.46,0.3401737183244786,0.6212335009138574,0.1390770149262379,0.08283707747960278,0.1647333512633091,0.16980008601346935
714,40.33,40.01,0.37,0.34118112988697313,0.6192342779218202,0.13926207767152649,0.0822320350171577,0.1649403348911602,0.16879675227632368
715,40.371,40.06,0.33,0.3422032911106212,0.617240850369608,0.1394653985452326,0.08163867106191668,0.1651699476501836,0.1678114249963558
716,40.412,40.12,0.4,0.3432406868810695,0.6152534590963354,0.13968753902429906,0.08105705730946418,0.16542297732112943,0.16684435615524407
717,40.474,40.17,0.37,0.34429378967906343,0.6132723381943953,0.13992904700409858,0.08048725582004614,0.16570019620651968,0.16589578383555037
718,40.536,40.23,0.29,0.34536305904892733,0.6112977150594052,0.14019045613637238,0.07992931893276432,0.1660023601676273,0.16496593189047795
719,40.576,40.28,0.36,0.34644894108290114,0.6093298104516072,0.14047228518447458,0.07938328918961068,0.16633020767948958,0.16405500962835196
720,40.658,40.34,0.36,0.3475518679218573,0.6073688385682817,0.14077503739687516,0.07884919926920303,0.16668445890526357,0.16316321151222785
721,40.7,40.39,0.26,0.3486722572729145,0.6054150071267405,0.1410991998998588,0.07832707193012353,0.16706581479120447,0.16229071687506533
722,40.801,40.45,0.25,0.34981051194445706,0.6034685174574717,0.1414452431103323,0.0778169199638317,0.1674749561835193,0.16143768965093788
723,40.822,40.5,0.33,0.3509670193990445,0.6015295646070771,0.1418136201696134,0.07731874615720988,0.16791254296831362,0.16060427812276304
724,40.864,40.56,0.25,0.35214215132467613,0.5995983374506962,0.1422047663990355,0.07683254326484323,0.16837921323580765,0.15979061468703254
725,40.948,40.61,0.21,0.35333626322484013,0.5976750188136637,0.14261909877816853,0.076358293991129,0.16887558246994072,0.1589968156360192
726,40.969,40.67,0.31,0.35454969402775777,0.59575978560218,0.14305701544642543,0.07589597098227066,0.1694022427644371,0.15822298095790585
727,41.031,40.72,0.31,0.355782765715214,0.5938528089427506,0.14351889522879188,0.07544553682815418,0.16995976206637278,0.15746919415522828
728,41.072,40.78,0.21,0.357035782971358,0.5919542543300883,0.14400509718637233,0.07500694407405495,0.1705486834482512,0.15673552208197383
729,41.154,40.83,0.28,0.3583090328518338,0.5900642817831149,0.14451596019236454,0.07458013524214058,0.17116952440958366,0.15602201479963063
730,41.194,40.89,0.29,0.35960278447358335,0.5881830460086666,0.14505180253399683,0.07416504286280336,0.17182277620896363,0.15532870545243946
731,41.255,40.94,0.2,0.3609172887256445,0.5863106965725149,0.1456129215409172,0.07376158951594426,0.17250890322761261,0.15465561016207952
732,41.317,41.0,0.19,0.36225277800125133,0.5844473780773672,0.1461995932404814,0.0733696878824391,0.1732283423653468,0.15400272794202421
733,41.378,41.05,0.23,0.3636094659515191,0.5825932303475941,0.1468120720403306,0.07298924080613466,0.17398150246987126,0.15337004063179574
734,41.439,41.11,0.15,0.36498754726096044,0.5807483886205127,0.14745059043858488,0.07262014136679237,0.17476876380025483,0.1527575128513094
735,41.46,41.16,0.11,0.36638719744502535,0.5789129837440943,0.14811535876189108,0.07226227296440059,0.17559047752536316,0.1521650919754402
736,41.522,41.22,0.19,0.36780857266979244,0.5770871423809684,0.14880656493146244,0.0719155094152172,0.1764469652579502,0.1515927081288597
737,41.563,41.27,0.17,0.369251809593882,0.5752709872185203,0.14952437425717993,0.0715797150597605,0.17733851862502414,0.1510402742010968
738,41.625,41.33,0.09,0.37071702523261657,0.5734646371847879,0.15026892925978846,0.07125474488276864,0.17826539887502535,0.15050768588171434
739,41.686,41.38,0.17,0.37220431684443,0.5716682076697814,0.1510403495211961,0.07094044464498352,0.17922783652228694,0.14999482171546583
740,41.748,41.44,0.19,0.37371376183950306,0.5698818107518074,0.15183873156286093,0.07063665102652428,0.1802260310291963,0.14950154317728973
741,41.789,41.49,0.11,0.37524541771060205,0.5681055554283526,0.15266414875222686,0.07034319178159351,0.18126015052642996,0.14902769476702135
742,41.87,41.55,0.1,0.37679932198608923,0.5663395478510845,0.1535166512371295,0.07005988590431192,0.1823303315715893,0.14857310412373897
743,41.911,41.6,0.16,0.3783754922050739,0.5645838915645509,0.15439626590804864,0.06978654380557027,0.18343667894652405,0.14813758215968106
744,41.953,41.66,0.07,0.3799739259146751,0.5628386877481811,0.15530299638806427,0.0695229675008431,0.18457926549358297,0.14772092321366784
745,42.015,41.71,0.03,0.3815946006893562,0.5611040354612378,0.15623682305035866,0.06926895080889489,0.18575813199096017,0.14732290522393995
746,42.076,41.77,0.13,0.38323747417227055,0.5593800318904024,0.1571977030630756,0.06902427956124532,0.18697328706722494,0.14694328992026506
747,42.137,41.82,0.13,0.3849024841385274,0.5576667725997148,0.1581855704613034,0.06878873182215142,0.1882247071550332,0.14658182303507034
748,42.179,41.88,0.07,0.3865895485802462,0.5559643517825719,0.1592003362458951,0.06856207811875265,0.18951233648393004,0.14623823453327167
749,42.262,41.93,0.14,0.38829856581322963,0.554272862515464,0.16024188850877358,0.06834408168097131,0.19083608711208674,0.14591223886040408
750,42.283,41.99,0.18,0.3900294146050464,0.5525923970130556,0.16131009258432505,0.06813449869077348,0.19219583899677695,0.1456035352086062
751,42.345,42.04,0.1,0.3917819543243038,0.5509230468841604,0.1624047912264713,0.06793307854045581,0.19359144010337354,0.14531180779999783
752,42.407,42.1,0.09,0.3935560251108822,0.5492649033881256,0.16352580481100326,0.06773956409973175,0.19502270655261955,0.14503672618701918
753,42.469,42.15,0.18,0.39535144806690026,0.5476180576911787,0.16467293156274312,0.06755369199151863,0.19648942280589746,0.14477794556934012
754,42.531,42.21,0.1,0.3971680254681837,0.5459826011223137,0.16584594780709624,0.06737519287640395,0.19799134188817855,0.1445351071269846
755,42.612,42.26,0.08,0.39900554099599855,0.5443586254283246,0.16704460824554462,0.06720379174576965,0.19952818564827254,0.14430783836933436
756,42.634,42.32,0.15,0.40086375998878876,0.5427462230275762,0.16826864625461058,0.06703920822348884,0.20109964505593253,0.14409575349964557
757,42.716,42.37,0.15,0.40274242971362817,0.5411454872620461,0.16951777420779401,0.06688115687598827,0.20270538053530646,0.14389845379463848
758,42.736,42.43,0.08,0.4046412796570706,0.5395565126470591,0.17079168381995338,0.06672934753032919,0.2043450223341572,0.1437155279986543
759,42.776,42.48,0.17,0.4065600218350608,0.5379793951180218,0.17209004651353949,0.0665834855998672,0.2060181709282053,0.1435465527318392
760,42.877,42.54,0.21,0.4084983511215479,0.5364142322733643,0.173412513806037,0.0664432724170234,0.20772439745989646,0.14339109291181965
761,42.898,42.59,0.15,0.41045594559543647,0.5348611236128425,0.17475871771793783,0.06630840557272562,0.20946324421084564,0.143248702188378
762,42.979,42.65,0.16,0.41243246690549923,0.5333201707703754,0.17612827120054686,0.06617857926216332,0.21123422510717435,0.14311892339070978
763,43.0,42.7,0.25,0.4144275606528685,0.5317914777406576,0.1775207685829188,0.06605348463660127,0.2130368262569327,0.14300128898690292
764,43.062,42.76,0.2,0.4164408567907203,0.5302751510988544,0.17893578603726118,0.06593281016102717,0.2148705065187727,0.14289532155531248
765,43.102,42.81,0.18,0.41847197004076275,0.528771300212739,0.18037288206218957,0.06581624197734993,0.21673469810100543,0.1428005342675207
766,43.164,42.87,0.29,0.4205205003261295,0.5272800374466766,0.18183159798325818,0.0657034642727544,0.21862880719014002,0.1427164313825532
767,43.227,42.92,0.3,0.42258603322025334,0.5258014783568781,0.18331145847021252,0.06559415965267135,0.22055221460797114,0.14264250875197118
768,43.267,42.98,0.22,0.42466814041126627,0.5243357418773561,0.18481197207041553,0.06548800951767451,0.2225042764962505,0.1425782543353934
769,43.371,43.03,0.31,0.42676638018142155,0.5228829504960184,0.18633263175786732,0.06538469444352893,0.22448432502795612,0.14252314872592503
770,43.393,43.09,0.35,0.42888029790099075,0.5214432304203508,0.18787291549720028,0.06528389456358882,0.226491669144162,0.14247666568489722
771,43.453,43.14,0.29,0.4310094265360467,0.5200167117321677,0.18943228682200824,0.06518528995275732,0.2285255953154945,0.14243827268529088
772,43.494,43.2,0.3,0.4331532871695183,0.5186035285309668,0.19101019542684133,0.06508856101228792,0.23058536832713775,0.14240743146323964
773,43.578,43.25,0.41,0.4353113895348871,0.5172038190655193,0.19260607777216074,0.06499338885482371,0.2326702320863304,0.14238359857703095
774,43.618,43.31,0.35,0.43748323256188937,0.5158177258534073,0.19421935770151064,0.06489945568917464,0.23477941045127376,0.14236622597303733
775,43.719,43.36,0.34,0.4396683049335808,0.5144453957882799,0.19584944707011792,0.06480644520439784,0.23691210808033986,0.1423547615580069
776,43.74,43.42,0.44,0.441866085654106,0.513086980234616,0.1974957463840799,0.06471404295276438,0.23906751130044487,0.14234864977710485
777,43.781,43.47,0.45,0.4440760446264984,0.5117426351097628,0.19915764544928297,0.06462193673113692,0.2412447889934366,0.14234733219704035
778,43.842,43.53,0.38,0.44629764323981885,0.5104125209529728,0.20083452402921334,0.06452981696016197,0.24344309349932744,0.14235024809357072
779,43.883,43.58,0.46,0.4485303349649231,0.5090968029811564,0.2025257525108402,0.0644373770605804,0.24566156153519247,0.14235683504266328
780,43.945,43.64,0.5,0.45077356595812285,0.5077956511310847,0.20423069257776125,0.06434431382592737,0.2478993151285463,0.14236652951459514
781,43.986,43.69,0.46,0.45302677567198557,0.5065092400878156,0.20594869788979714,0.06425032779093316,0.2501554625639967,0.14237876747029515
782,44.088,43.75,0.49,0.45528939747248287,0.5052377492991688,0.20767911476818943,0.06415512359505283,0.2524290993419551,0.1423929849592733
783,44.108,43.8,0.58,0.4575608592616745,0.5039813629761193,0.20942128288551387,0.06405841034069763,0.25471930914817376,0.14240861871850924
784,44.171,43.86,0.52,0.45984058410510537,0.5027402700790117,0.2111745359594066,0.06395990194584052,0.25702516483287086,0.14242510677168055
785,44.213,43.91,0.51,0.4621279908630989,0.5015146642895176,0.21293820244920528,0.06385931749069335,0.2593457293982061,0.14244188902811133
786,44.275,43.97,0.63,0.46442249482515613,0.5003047439682632,0.21471160625461636,0.06375638155812144,0.26168005699285707,0.14245840788079958
787,44.335,44.02,0.66,0.46672350834668846,0.49911071209803787,0.2164940674155437,0.06365082456737725,0.2640271939124466,0.1424741088028532
788,44.398,44.08,0.59,0.46903044148732903,0.49793277621248455,0.21828490281223215,0.06354238310064067,0.26638617960455285,0.14248844094165578
789,44.46,44.13,0.68,0.47134270265005185,0.49677114831019265,0.2200834268648722,0.06343080022182764,0.26875604767704403,0.1425008577100924
790,44.502,44.19,0.72,0.47365969922031187,0.49562604475417665,0.22188895223179333,0.06331582578717601,0.2711358269085019,0.14251081737416954
791,44.585,44.24,0.65,0.4759808382043981,0.49449768615680634,0.22370079050537378,0.06319721674719883,0.2735245422595233,0.14251778363637033
792,44.605,44.3,0.68,0.47830552686617006,0.4933862972503627,0.22551825290479227,0.06307473743969887,0.2759212158837025,0.14252122621409918
793,44.647,44.35,0.81,0.48063317336133543,0.49229210674349616,0.2273406509647381,0.06294815987363897,0.27832486813710056,0.142520621412558
794,44.71,44.41,0.76,0.4829631873684169,0.49121534716391446,0.22916729721918827,0.06281726400370223,0.28073451858500276,0.14251545269136534
795,44.771,44.46,0.74,0.4852949807155528,0.49015625468761687,0.2309975058793535,0.06268183799534868,0.2831491870047624,0.14250521122418278
796,44.812,44.52,0.88,0.48762796800227504,0.4891150689549472,0.23283059350488236,0.06254167848011206,0.2855678943835416,0.1424893964505465
797,44.873,44.57,0.91,0.4899615672154214,0.48809203287368613,0.234665879667431,0.06239659080078785,0.28798966390978886,0.14246751661904808
798,44.935,44.63,0.85,0.4922952003383581,0.4870873924093518,0.23650268760574278,0.06224638924608233,0.29041352195732667,0.14243908932100333
799,45.017,44.68,0.94,0.49462829395271546,0.4861013963628903,0.2383403448714122,0.062090897274294635,0.2928384990609596,0.14240364201379946
800,45.037,44.74,0.99,0.49696027983186647,0.4851342961359872,0.2401781839645324,0.061929947725693726,0.2952636308825724,0.1423607125331726
801,45.098,44.79,0.92,0.4992905955254062,0.4841863454843433,0.24201554295846564,0.06176338302338525,0.2976879591667391,0.1423098495937531
802,45.181,44.85,0.92,0.5016186849339153,0.4832578002593947,0.24385176611300372,0.06159105536260964,0.30011053268490784,0.14225061327730615
803,45.202,44.9,0.98,0.5039439988733092,0.48234891813908537,0.2456862044752087,0.06141282688853988,0.3025304081672541,0.14218257550814936
804,45.264,44.96,0.94,0.5062659956281046,0.48145995834837135,0.24751821646726518,0.061228569862687036,0.3049466512213056,0.14210532051525077
805,45.326,45.01,0.94,0.5085841414929416,0.48059118137013657,0.24934716846072513,0.06103816681796842,0.30735833723641903,0.1420184452805146
806,45.389,45.07,1.06,0.5108979113017083,0.4797428486471503,0.25117243533656575,0.060841510702389155,0.30976455227315447,0.1419215599727618
807,45.473,45.12,1.08,0.5132067889436132,0.47891522227560995,0.25299340103052737,0.06063850501115676,0.31216439393656764,0.141814288366898
808,45.495,45.18,1.03,0.5155102678655673,0.47810856469072666,0.2548094590632448,0.060429063906934206,0.31455697223243634,0.14169626824776402
809,45.558,45.23,1.13,0.5178078515602509,0.4773231383447634,0.2566200130547103,0.06021311232790705,0.31694141040546603,0.14156715179818502
810,45.578,45.29,1.2,0.5200990540392721,0.47655920537794183,0.25842447722264017,0.059990586083396184,0.31931684575857083,0.14142660597077147
811,45.642,45.34,1.15,0.5223834002908659,0.4758170272826742,0.2602222768643581,0.059761431936841705,0.32168243045238515,0.14127431284308695
812,45.704,45.4,1.16,0.5246604267216333,0.4750968645616354,0.26201284882185205,0.0595256076760912,0.32403733228421233,0.14110996995586078
813,45.745,45.45,1.27,0.5269296815818848,0.4743989763802294,0.2637956419296944,0.05928308217101539,0.32638073544568114,0.14093329063395144
814,45.808,45.51,1.21,0.5291907253742256,0.4737236202140124,0.26557011744556874,0.059033835418493295,0.3287118412584342,0.14074400428976364
815,45.954,45.56,1.15,0.5314431312450731,0.473071051491607,0.2673357494631973,0.05877785857476044,0.33102986888721164,0.14054185670881045
816,45.974,45.62,1.27,0.5336864853588342,0.4724415232336118,0.26909202530749715,0.05851515397504194,0.33333405602971505,0.14032661031708754
817,45.995,45.67,1.31,0.5359203872544831,0.4718352856879632,0.27083844591181305,0.05824573514031704,0.3356236595826512,0.14009804442989734
818,46.037,45.73,1.25,0.5381444501842876,0.4712525859621432,0.2725745261770958,0.05796962677101251,0.3378979562833511,0.13985595548176988
819,46.078,45.78,1.36,0.5403583014344366,0.47069366765259424,0.27429979531288723,0.05768686472744607,0.3401562433263716,0.1396001572371792
820,46.162,45.84,1.44,0.542561582627335,0.4701587704717098,0.2760137971599806,0.0573974959969329,0.34239783895452186,0.13933048098183293
821,46.183,45.89,1.39,0.5447539500053658,0.4696481298728369,0.2777160904946564,0.057101578647583175,0.34462208302381625,0.13904677569440704
822,46.286,45.95,1.42,0.5469350746959704,0.4691619766738181,0.27940624931443014,0.05679918176894565,0.3468283375419268,0.13874890819869265
823,46.307,46.0,1.52,0.549104642957947,0.4687005366796974,0.28108386310526484,0.0564903853997726,0.3490159871797899,0.13843676329617177
824,46.367,46.06,1.47,0.5512623564089336,0.46826403030524955,0.28274853709022163,0.05617528044324646,0.3511844397561079,0.13811024387903498
825,46.408,46.11,1.44,0.553407932234094,0.4678526721979738,0.28439989245953107,0.05585396857000928,0.353333126694554,0.13776927102361908
826,46.469,46.17,1.51,0.5555411033760862,0.4674666708621414,0.28603756658205903,0.055526562109306184,0.35546150345355254,0.1374137840641978
827,46.552,46.22,1.54,0.5576616187064332,0.46710622828441106,0.287661213198154,0.055193183928491485,0.3575690499285528,0.1370437406470159
828,46.574,46.28,1.43,0.5597692431784606,0.46677153956144024,0.2892705025938886,0.05485396730106975,0.3596552708267413,0.1366591167644718
829,46.657,46.33,1.52,0.5618637579619885,0.466462792529867,0.2908651217567416,0.054509055763405166,0.3617196960141434,0.13625990676941593
830,46.677,46.39,1.53,0.5639449605599683,0.4661801673990222,0.29244477451280015,0.05415860296023998,0.36376188083508004,0.13584612336961727
831,46.738,46.44,1.45,0.5660126649072584,0.4659238363867423,0.2940091816456,0.05380277247918389,0.36578140640393725,0.13541779760254202
832,46.799,46.5,1.46,0.568066701451733,0.4656939633586815,0.29555808099675573,0.0534417376743753,0.36777787986919797,0.13497497879068732
833,46.861,46.55,1.6,0.5701069172179436,0.4654907034715515,0.2970912275485332,0.053075681479567614,0.3697509346496675,0.13451773447777687
834,46.903,46.61,1.57,0.5721331758535909,0.4653142028207254,0.2986083934885294,0.052704796210920474,0.37170023064279983,0.13404615034617018
835,46.964,46.66,1.52,0.5741453576591014,0.4651645980926316,0.3001093682566152,0.0523292833597834,0.3736254544050278,0.13356033011585278
836,47.026,46.72,1.62,0.5761433596006377,0.46504201622234165,0.3015939585742784,0.051949353375777746,0.3755263193040189,0.13306039542535741
837,47.087,46.77,1.68,0.5781270953068887,0.4649465740567101,0.3030619884565079,0.05156522544050442,0.37740256564283214,0.13254648569493438
838,47.15,46.83,1.6,0.5800964950500145,0.464878378023387,0.30451329920640563,0.0511771272322272,0.3792539607559957,0.13201875797229223
839,47.192,46.88,1.63,0.582051505711132,0.46483752380600846,0.3059477493927638,0.05078529468193975,0.3810802990775709,0.13147738676126045
840,47.255,46.94,1.69,0.5839920907307391,0.46482409602589636,0.3073652148109137,0.05038997172130237,0.38288140218131567,0.1309225638337304
841,47.296,46.99,1.61,0.5859182300444786,0.4648381679306385,0.308765588427232,0.04999141002298055,0.38465711879310516,0.1303544980252258
842,47.399,47.05,1.6,0.5878299200046225,0.4648798010899956,0.31014878030773474,0.04958986873392967,0.386407324775783,0.12977341501446196
843,47.42,47.1,1.73,0.5897271732876206,0.4649490450996958,0.3115147175311883,0.04918561420216095,0.3881319230866172,0.12917955708726236
844,47.482,47.16,1.71,0.5916100187879956,0.4650459372937714,0.3128633440871292,0.04877891969747346,0.3898308437075232,0.1285731828851858
845,47.543,47.21,1.66,0.5934785014988234,0.46517050246614405,0.31419462075913007,0.04837006512656744,0.39150404354821366,0.12795456713917716
846,47.585,47.27,1.77,0.5953326823789981,0.46532275260217204,0.3155085249935994,0.047959336742905,0.39315150632244844,0.12732400038850009
847,47.647,47.32,1.82,0.597172638207476,0.46550268662083893,0.31680505075437737,0.04754702685165532,0.39477324239760303,0.126681788685168
848,47.708,47.38,1.74,0.5989984614246977,0.4657102901282169,0.31808420836342316,0.047133433510047416,0.39636928861781795,0.12602825328409323
849,47.771,47.43,1.79,0.6008102599614071,0.4659455351827967,0.31934602432791526,0.04671886022348158,0.39793970810104,0.1253637303192154
850,47.793,47.49,1.86,0.6026081570551061,0.46620838007325155,0.3205905411541132,0.046303615637813,0.3994845900103229,0.12468857046590671
851,47.834,47.54,1.77,0.6043922910543997,0.4664987691091942,0.32181781714836194,0.04588801322826234,0.4010040492998071,0.12400313858998199
852,47.896,47.6,1.74,0.6061628152115043,0.46681663242549915,0.3230279262056319,0.045472370985431165,0.402498226435829,0.12330781338366435
853,47.959,47.65,1.84,0.6079198974631702,0.4671618858007914,0.32422095758595365,0.04505701109891288,0.4039672870936274,0.12260298698885365
854,48.001,47.71,1.83,0.6096637202002584,0.46753443049069987,0.3253970156790512,0.04464225963896268,0.40541142183011564,0.12188906460802267
855,48.084,47.76,1.78,0.611394480026164,0.4679341530764273,0.3265562197574096,0.0442284462366318,0.40683084573317024,0.12116646410303948
856,48.125,47.82,1.89,0.6131123875042469,0.46836092532912105,0.3276987037179388,0.043815903762721715,0.4082257980478778,0.12043561558218165
857,48.187,47.87,1.92,0.6148176668943952,0.4688146040904411,0.3288246158123727,0.0434049680058763,0.4095965417801941,0.11969696097556662
858,48.248,47.93,1.84,0.6165105558788573,0.4692950311696349,0.32993411836658804,0.04299597735009612,0.41094336327850295,0.11895095359920625
