,Time_Host,Time_Arduino,easingdata,CH1_Oxy,CH1_Deoxy,CH2_Oxy,CH2_Deoxy,CH3_Oxy,CH3_Deoxy
0,1.337,0.04,0.0,0.07001998749611958,0.9293726254125808,0.10248060090194208,0.38861064545013113,0.3844323799412978,0.48002521065528936
1,1.357,0.1,0.0,0.06844666648812225,0.9309623545718534,0.10497841312767107,0.3903048047372276,0.38780523910465603,0.47258223746707667
2,1.377,0.15,0.0,0.06688009642473926,0.9325451873128459,0.10750318666994645,0.3919534188071934,0.39119072493283935,0.4651406224043231
3,1.397,0.21,0.0,0.06532094529031861,0.934120449076674,0.11005427779225467,0.3935555458124808,0.3945879439517947,0.4577030527229482
4,1.419,0.26,0.0,0.06376987489339182,0.935687471620879,0.11263102702412792,0.3951102764077405,0.39799600088589937,0.4502722084485534
5,1.438,0.32,0.0,0.06222754021662985,0.9372455936756148,0.11523275969673588,0.3966167344132831,0.4014139992671346,0.4428507601239242
6,1.459,1.06,0.0,0.06069458877577556,0.9387941615906558,0.11785878649249168,0.3980740774317853,0.4048410420328192,0.4354413665783487
7,1.479,1.11,0.0,0.059171659988574,0.9403325299721876,0.12050840400760801,0.3994814974184943,0.4082762321113109,0.42804667272145747
8,1.539,1.17,0.0,0.05765938455471719,0.9418600623083657,0.12318089532649723,0.4008382212053344,0.4117186729951256,0.42066930736425784
9,1.602,1.22,0.0,0.05615838384781867,0.9433761315826129,0.1258755306068659,0.40214351097946466,0.41516746930096354,0.41331188106999867
10,1.643,1.28,-0.01,0.05466926932043153,0.9448801208736451,0.12859156767430738,0.40339666471698127,0.4186217273161719,0.40597698403747884
11,1.704,1.33,-0.0,0.05319264192312247,0.9463714239411986,0.13132825262515543,0.40459701657258257,0.4220805555312008,0.39866718401939527
12,1.746,1.39,0.03,0.05172909153860932,0.9478494457964526,0.1340848204363348,0.4057439372261067,0.4255430651576405,0.39138502427831495
13,1.867,1.45,0.02,0.05027919643195508,0.9493136032561458,0.13686049558094648,0.4068368341868812,0.4290083706314535,0.38413302158284146
14,1.888,1.5,0.02,0.0488435227177833,0.9507633254794178,0.13965449264835847,0.4078751520568322,0.43247559010105213,0.37691366424649475
15,1.909,1.55,0.05,0.047422623845436836,0.9521980544864477,0.142466016967642,0.40885837275328973,0.4359438458999461,0.36972941021171685
16,1.97,1.61,0.05,0.04601704010294984,0.9536172456580162,0.1452942652333009,0.40978601569238804,0.43941226500375763,0.3625826851812678
17,2.031,1.66,0.04,0.044627298140646594,0.9550203682151699,0.14813842613236422,0.41065763793391197,0.44287997947148094,0.3554758807991397
18,2.092,1.72,0.05,0.04325391051512273,0.9564069056782326,0.15099768097201768,0.4114728342884256,0.44634612687093134,0.34841135288299446
19,2.135,1.77,0.05,0.04189737525430047,0.957776356304466,0.15387120430702422,0.4122312373875786,0.44980985068839013,0.3413914197100178
20,2.216,1.83,0.03,0.04055817544418033,0.9591282335037563,0.1567581645662296,0.4129325177185744,0.45327030072250235,0.33441836035798433
21,2.237,1.88,0.01,0.03923677883783944,0.9604620662317787,0.15965772467746686,0.4135763836238989,0.45672663346251063,0.32749441310322974
22,2.299,1.94,0.04,0.03793363748715627,0.9617773993601525,0.1625690426901554,0.4141625812675031,0.4601780124509109,0.32062177387711815
23,2.36,2.0,0.03,0.03664918739767648,0.9630737940231819,0.1654912723948581,0.4146908945686787,0.46362360863059915,0.3138025947824705
24,2.403,2.05,0.04,0.03538384820697176,0.964350827940823,0.16842356393901292,0.41516114510483837,0.46706260067653554,0.3070389826712726
25,2.485,2.1,0.07,0.03413802288678513,0.9656080957175917,0.17136506443802735,0.41557319198431714,0.4704941753119389,0.30033299778480826
26,2.546,2.16,0.07,0.0329120974691993,0.9668452091171743,0.17431491858094503,0.41592693169015404,0.4739175276090267,0.2936866524571665
27,2.588,2.21,0.07,0.03170644079701327,0.9680617973125588,0.1772722692299612,0.41622229789565174,0.47733186127436045,0.28710190988287776
28,2.63,2.27,0.08,0.030521404298459655,0.969257507111556,0.18023625801315468,0.41645926125241256,0.4807363889189052,0.28058068294927396
29,2.692,2.33,0.09,0.0293573217863419,0.9704320031576354,0.18320602590990998,0.41663782915147846,0.48413033231298574,0.27412483313402414
30,2.733,2.38,0.08,0.028214509281615154,0.9715849681060517,0.18618071382863446,0.4167580454580559,0.4875129226263693,0.26773616946818474
31,2.795,2.43,0.06,0.027093264861379942,0.9727161027753006,0.1891594631764953,0.416819990220115,0.4908834006537472,0.2614164475650154
32,2.857,2.49,0.08,0.0259938685312058,0.9738251262739884,0.19214141642094149,0.416823779351028,0.4942410170259084,0.2551673687147197
33,2.96,2.54,0.05,0.024916582121653746,0.9749117761032521,0.19512571764273415,0.41676956428639766,0.497585032406895,0.24899057904517802
34,2.981,2.6,0.04,0.023861649208821705,0.9759758082349094,0.19811151308011132,0.4166575316152559,0.5009147176773938,0.24288766874865902
35,3.022,2.65,0.07,0.022829295058698094,0.9770169971655633,0.20109795166361932,0.41648790268579966,0.5042293541045606,0.23686017137439574
36,3.085,2.71,0.08,0.021819726595076375,0.9780351359469107,0.20408418554107113,0.4162609331857484,0.5075282334984026,0.23090956318681954
37,3.167,2.77,0.08,0.020833132390758007,0.9790300361925346,0.2070693705920442,0.41597691269731396,0.5108106583547747,0.22503726258914927
38,3.187,2.82,0.1,0.01986968268174749,0.9800015280614883,0.21005266693130378,0.4156361642267387,0.5140759419850157,0.219244629611958
39,3.248,2.87,0.12,0.018929529404116723,0.9809494602189955,0.21303323940055108,0.41523904370841186,0.5173234086322527,0.21353296546626457
40,3.33,2.93,0.11,0.018012806253185992,0.9818736997746317,0.2160102580479528,0.4147859394836669,0.5205523935744442,0.20790351216063874
41,3.351,2.98,0.11,0.017119628764637167,0.982774132198372,0.21898289859499895,0.41427727175447826,0.5237622432142796,0.20235745218176468
42,3.412,3.04,0.14,0.01625009441714413,0.9836506612149337,0.2219503428903256,0.41371349201238883,0.5269523151560948,0.19689590823788056
43,3.474,3.1,0.12,0.015404282756078181,0.9845032086768556,0.22491177935022025,0.4130950824430705,0.5301219782699961,0.19151994306447562
44,3.516,3.15,0.11,0.014582255537819845,0.9853317144167932,0.22786640338558217,0.41242255530694105,0.5332706127434002,0.1862305592915778
45,3.557,3.2,0.12,0.013784056894183208,0.9861361360795273,0.2308134178151412,0.41169645229623947,0.5363976101201986,0.18102869937189595
46,3.618,3.26,0.11,0.013009713516433987,0.9869164489342118,0.23375203326475694,0.41091734386890577,0.5395023733277342,0.17591524556900534
47,3.699,3.31,0.11,0.012259234858360613,0.9876726456674092,0.23668146855262065,0.41008582855953574,0.5425843166917278,0.17089102000471895
48,3.719,3.37,0.18,0.011532613357835992,0.9884047361574785,0.23960095106014798,0.40920253226765513,0.545642865939227,0.16595678476476916
49,3.801,3.42,0.2,0.010829824676286223,0.9891127472309069,0.2425097170882976,0.4082681075236004,0.548677458189596,0.1611132420619
50,3.843,3.48,0.2,0.010150827955461187,0.9897967224011944,0.24540701219901048,0.4072832327323887,0.5516875419335591,0.15636103445539207
51,3.905,3.54,0.2,0.009495566090882715,0.990456721590917,0.24829209154146692,0.4062486113961136,0.5546725770003691,0.1517007451258664
52,3.966,3.59,0.23,0.008863966021330499,0.9910928208376114,0.25116422016291495,0.4051649713155759,0.557632034513287,0.14713289820397787
53,4.069,3.64,0.22,0.00825593903371219,0.9917051119841402,0.2540226733039251,0.40403306377198017,0.5605653968336647,0.1426579591514098
54,4.09,3.7,0.22,0.007671381082649337,0.9922937023542063,0.2568667366780554,0.4028536626895598,0.5634721574940044,0.13827633519247326
55,4.132,3.75,0.24,0.007110173124094393,0.9928587144137084,0.25969570673603465,0.4016275637799513,0.5663518211204125,0.13398837579455947
56,4.194,3.81,0.23,0.006572181462279518,0.993400285418643,0.26250889091466995,0.4003555836690568,0.5692039033448927,0.12979437319564613
57,4.215,3.87,0.22,0.006057258109286615,0.9939185670502697,0.26530560787073654,0.39903855900706114,0.5720279307079232,0.12569456297703283
58,4.276,3.92,0.22,0.0055652411565185475,0.994413725038267,0.2680851877000945,0.3976773455622924,0.5748234405517569,0.12168912467948197
59,4.339,3.98,0.24,0.005095955157340152,0.9948859387726178,0.2708469721422121,0.39627281729972913,0.5775899809048461,0.1177781824609603
60,4.463,4.03,0.24,0.004649211520145711,0.9953354009049767,0.27359031477019435,0.394825865445125,0.580327110357764,0.1139618057942125
61,4.483,4.08,0.25,0.004224808911099966,0.9957623169402783,0.27631458116632757,0.39333739753589253,0.5830343979309408,0.11024001020243332
62,4.503,4.14,0.28,0.003822533665794641,0.9961669048193538,0.2790191490830869,0.3918083364600516,0.5857114229345153,0.10661275803131778
63,4.564,4.2,0.28,0.00344216020905972,0.9965493944933281,0.2817034085895424,0.39023961948463337,0.5883577748205969,0.10307995925576098
64,4.606,4.25,0.29,0.0030834514821674736,0.9969100274905645,0.28436676220315965,0.3886321972749191,0.5909730530282683,0.09964147231947333
65,4.667,4.3,0.31,0.0027461593766658523,0.9972490564769333,0.28700862500710567,0.38698703290578884,0.5935568668216944,0.09629710500577446
66,4.727,4.36,0.32,0.0024300251740794585,0.9975667448101746,0.28962842475329953,0.38530510086629727,0.5961088351217555,0.0930466153378248
67,4.789,4.41,0.31,0.0021347799907220875,0.9978633660891224,0.29222560195156977,0.38358738605843007,0.5986285863316647,0.08988971250656141
68,4.831,4.47,0.32,0.0018601452268705151,0.998139203698547,0.2947996099453338,0.3818348827909366,0.6011157581570735,0.0868260578246299
69,4.894,4.53,0.32,0.0016058330195515959,0.9983945503503794,0.2973499149742282,0.3800485937692027,0.6035699974212048,0.08385526570464251
70,4.957,4.58,0.3,0.0013715466981914723,0.9986297076220686,0.2998759962240806,0.37822952908228535,0.6059909598755696,0.08097690466014702
71,5.018,4.63,0.3,0.0011569812423702648,0.998844985492845,0.3023773458645454,0.3763787051884187,0.608378310006819,0.07819049832776107
72,5.099,4.69,0.34,0.0009618237409218417,0.9990407018786495,0.30485346907464766,0.37449714390044614,0.6107317208402497,0.07549552650899592
73,5.12,4.75,0.34,0.0007857538516212692,0.9992171821664969,0.3073038840564323,0.3725858713726602,0.6130508737404397,0.07289142623033484
74,5.162,4.8,0.34,0.0006284442607108391,0.999374758749026,0.3097281220369458,0.3706459170904111,0.615335458209442,0.07037759282013838
75,5.224,4.86,0.37,0.0004895611415287866,0.9995137705599779,0.3121257272588605,0.36867831286368385,0.6175851716829583,0.06795338100091618
76,5.286,4.91,0.38,0.00036876461152188954,0.9996345626113263,0.31449625696015765,0.36668409182572664,0.6197997193249275,0.06561810599545358
77,5.328,4.96,0.37,0.0002657091869444288,0.9997374855327641,0.3168392813433685,0.3646642874378023,0.6219788138210152,0.06337104464526716
78,5.39,5.02,0.39,0.00018004423456699766,0.9998228951142261,0.31915438353491493,0.3626199325012296,0.6241221751715247,0.06121143653989495
79,5.474,5.08,0.41,0.00011141441973541366,0.999891151852113,0.32144115953510627,0.36055205817804376,0.6262295304843023,0.0591384851555942
80,5.535,5.13,0.4,5.946015012992066e-05,0.9999426204998733,0.32369921815935637,0.3584616930217571,0.6283006137682345,0.05715135900210788
81,5.556,5.18,0.39,2.381801458233275e-05,0.9999776696235881,0.32592818097119436,0.35634986201981084,0.6303351657279599,0.055249192776251885
82,5.598,5.24,0.41,4.121216317548862e-06,0.999996671163198,0.3281276822076468,0.35421758564936573,0.6323329335604323,0.053431088521137836
83,5.66,5.29,0.39,0.0,1.0,0.33029736869757,0.35206587894804425,0.6342936707539765,0.05169611678987194
84,5.702,5.35,0.38,1.1082071983468858e-05,0.9999880335310205,0.33243689977349283,0.3498957506011656,0.6362171368904534,0.050043317812568607
85,5.763,5.41,0.4,3.699301318295028e-05,0.9999611512508532,0.3345459471774631,0.3477082020469645,0.6381030974511135,0.04847170266549605
86,5.824,5.46,0.41,7.735668401072403e-05,0.9999197343415273,0.33662419496130885,0.3455042266012241,0.6399513236266552,0.04698025444115302
87,5.906,5.51,0.41,0.00013179562084510957,0.9998641652709451,0.33867133938166377,0.34328480860262645,0.6417615921319568,0.04556792941809793
88,5.927,5.57,0.43,0.00019993142352883937,0.9997948274003969,0.3406870887901017,0.34105092257992875,0.6435336850259006,0.04423365822943048
89,5.992,5.62,0.45,0.00028138513342166964,0.9997121046016351,0.34267116351877897,0.3388035324418911,0.6452673895367029,0.04297634702891864
90,6.034,5.68,0.45,0.0003757776015595658,0.9996163808839618,0.34462329576207323,0.336543590690777,0.6469624978931825,0.04179487865385962
91,6.118,5.74,0.45,0.0004827298465018321,0.9995080400317528,0.34654322945479915,0.33427203766023755,0.6486188071624275,0.04068811378382962
92,6.139,5.79,0.47,0.0006018634014795304,0.9993874652528116,0.348430720147655,0.3319898007784306,0.6502361190943731,0.039654892094499516
93,6.202,5.84,0.46,0.0007328006504938021,0.9992550388379078,0.35028553488060654,0.32969779385723874,0.6518142399738414,0.038694033405684544
94,6.263,5.9,0.44,0.0008751651530487304,0.9991111418318233,0.3521074520549332,0.32739691640842167,0.6533529804806203,0.03780433882277948
95,6.324,5.95,0.44,0.0010285819572390588,0.9989561537161896,0.35389626130464613,0.32508805298747934,0.654852155558167,0.036984591870708905
96,6.384,6.01,0.44,0.001192677900947843,0.998790452104367,0.35565176336795246,0.3227720725658947,0.656311584291496,0.03623355961950678
97,6.425,6.07,0.43,0.0013670819009432146,0.9986144124485781,0.357373769959395,0.3204498279322963,0.6577310897947598,0.03554999380066321
98,6.508,6.12,0.45,0.0015514252296952534,0.9984284077594798,0.3590621036432285,0.31812215512298586,0.6591104991089509,0.03493263191344354
99,6.528,6.17,0.47,0.0017453417797616156,0.9982328083383285,0.3607165977085068,0.31578987288223354,0.6604496431100733,0.03438019832047852
100,6.65,6.23,0.45,0.0019484683156159191,0.9980279815218602,0.3623370960463044,0.3134537821527241,0.6617483564280675,0.03389140533201721
101,6.671,6.29,0.45,0.0021604447128176297,0.997814291439998,0.36392345302947604,0.3111146655965113,0.663006477376749,0.03346495427831171
102,6.711,6.34,0.49,0.002380914184447463,0.9975920987864526,0.3654755333953849,0.30877328714679203,0.664223847895006,0.033099536569652734
103,6.753,6.39,0.47,0.0026095234947569657,0.9973617606022759,0.3669932121320737,0.3064303915907301,0.6654003134995093,0.03279383474359865
104,6.815,6.45,0.46,0.0028459231600040627,0.9971236300723888,0.3684763743683841,0.3040867041834399,0.6665357232491748,0.032546523498949646
105,6.877,6.5,0.47,0.003089767636467277,0.9968780563350906,0.369924915268535,0.30174293029312693,0.6676299297216034,0.032356270716003215
106,6.939,6.56,0.46,0.0033407154956527647,0.9966253843045382,0.37133873993164446,0.29939975507728295,0.6686827890017185,0.03222173846260407
107,7.002,6.62,0.44,0.003598429586730242,0.9963659545061525,0.3727177632966207,0.29705784318976164,0.6696941606827672,0.032141583985501626
108,7.022,6.67,0.43,0.0038625771862542788,0.9961001029248996,0.37406191005274986,0.2947178385185595,0.6706639078798103,0.03211446068656608
109,7.082,6.72,0.44,0.004132830135246428,0.99582816086637,0.37537111455617833,0.2923803639541629,0.6715918972557299,0.032139019083464726
110,7.144,6.78,0.43,0.00440886496372988,0.9955504548305666,0.37664532075233464,0.29004602118838896,0.6724779990596957,0.032213907754456865
111,7.186,6.83,0.43,0.004690363002824244,0.9952673063982918,0.3778844821041692,0.28771539054370304,0.6733220871779154,0.03233777426702951
112,7.247,6.89,0.47,0.004977010484526475,0.9949790321300143,0.3790885615259259,0.2853890308330396,0.6741240391963841,0.03250926609014837
113,7.308,6.95,0.47,0.005268498629327044,0.99468594347706,0.3802575313220503,0.28306747925013215,0.6748837364752726,0.03272703148992451
114,7.391,7.0,0.46,0.005564523721837055,0.9943883467049577,0.3813913731307893,0.2807512512902922,0.6756010642345391,0.0329897204085105
115,7.411,7.05,0.49,0.005864787174630411,0.9940865428287284,0.38249007787204076,0.2784408407015149,0.6762759116503302,0.03329598532603514
116,7.473,7.11,0.5,0.006168995580534455,0.9937808275598905,0.38355364569904665,0.2761367194657262,0.6769081719617527,0.03364448210536841
117,7.536,7.16,0.48,0.006476860753633536,0.993471491264911,0.3845820859535758,0.2738393378099327,0.6774977425876084,0.03403387081950773
118,7.577,7.22,0.49,0.006788099759280452,0.9931588189348095,0.3855754171242808,0.27154912424702166,0.6780445252526985,0.0344628165614041
119,7.64,7.28,0.49,0.0071024349334388795,0.992843090165592,0.38653366680794193,0.2692664856459874,0.678548426123311,0.034929990236094575
120,7.744,7.33,0.47,0.007419593891703957,0.992524579149166,0.38745687167332815,0.26699180733139083,0.6790093559514839,0.035434069335067264
121,7.765,7.38,0.45,0.007739309528367463,0.9922035546743722,0.3883450774273995,0.2647254532118565,0.679427230227606,0.03597373869285003
122,7.806,7.44,0.49,0.008061320005912137,0.9918802801377462,0.3891983387835297,0.26246776593739385,0.6798019693408417,0.03654769122585705
123,7.869,7.5,0.49,0.008385368735338242,0.9915550135636105,0.390016719431338,0.2602190670852743,0.6801334987467965,0.0371546286535396
124,7.909,7.55,0.5,0.008711204347747178,0.9912280076330634,0.39080029200761596,0.2579796573740739,0.6804217491417467,0.037793262201878834
125,7.971,7.61,0.53,0.009038580657630621,0.9908995097214207,0.39154913806775954,0.25574981690532195,0.6806666566426949,0.038462313289226814
126,8.033,7.66,0.54,0.009367256618338453,0.9905697619436302,0.392263348057089,0.2535298054319951,0.6808681629724982,0.039160514194454106
127,8.094,7.71,0.54,0.009696996270221511,0.9902390012071621,0.39294302128148234,0.25131986265294065,0.681026215649335,0.03988660870732868
128,8.135,7.77,0.55,0.010027568681963276,0.9899074592718584,0.3935882658768038,0.2491202085322818,0.6811407681798288,0.04063935276104838
129,8.176,7.83,0.57,0.010358747885625895,0.9895753628162139,0.3941991987766631,0.2469310436429504,0.6812117802552006,0.04141751504687883
130,8.236,7.88,0.56,0.01069031280594129,0.9892429335095548,0.39477594567809177,0.24475254953362374,0.6812392179498757,0.04221987761089929
131,8.299,7.93,0.55,0.01102204718437738,0.9889103880895838,0.3953186410047671,0.24258488911844445,0.6812230539220034,0.04304523643290521
132,8.359,7.99,0.57,0.011353739498505922,0.9885779384447622,0.3958274278674616,0.2404282070889418,0.6811632676153864,0.04389240198753801
133,8.4,8.05,0.55,0.011685182877194751,0.9882457917010038,0.39630245802144365,0.2382826303475143,0.6810598454623312,0.044760199787702216
134,8.463,8.1,0.54,0.012016175012142999,0.987914150312158,0.3967438918205926,0.2361482684616975,0.6809127810869284,0.04564747091031333
135,8.526,8.16,0.56,0.012346518066272306,0.9875832121537697,0.39715189816799856,0.2340252141383013,0.6807220755082412,0.046553072504398614
136,8.589,8.21,0.58,0.012676018579479325,0.9872531706195992,0.3975266544627881,0.23191354371638342,0.6804877373428457,0.04747587828154987
137,8.651,8.27,0.58,0.013004487372245233,0.9869242147204106,0.39786834654289416,0.22981331767792892,0.6802097830061211,0.04841477898872422
138,8.672,8.32,0.59,0.013331739447589596,0.98659652918453,0.39817716862346614,0.2277245811750542,0.6798882369116597,0.04936868286341529
139,8.733,8.38,0.62,0.013657593891847897,0.9862702945596898,0.39845332323062177,0.22564736457256315,0.6795231316681857,0.05033651607125654
140,8.836,8.43,0.62,0.013981873774742633,0.9859456873156859,0.39869702113028427,0.22358168400472253,0.6791145082734112,0.05131722312615636
141,8.856,8.49,0.61,0.01430440604920461,0.985622879947378,0.39890848125189526,0.2215275419451701,0.6786624163043262,0.05230976729309875
142,8.917,8.54,0.65,0.014625021451385507,0.98530204107759,0.39908793060684744,0.21948492778888232,0.6781669141034816,0.0533131309737526
143,8.979,8.6,0.64,0.014943554401287302,0.9849833355594707,0.3992356042015419,0.21745381844507794,0.6776280689609036,0.05432631607501424
144,8.999,8.65,0.62,0.01525984290441883,0.9846669245779002,0.3993517449450233,0.21543417893986813,0.6770459572913272,0.05534834436057563
145,9.06,8.71,0.62,0.015573728454871536,0.9843529657495361,0.39943660355117694,0.213425963027471,0.6764206648064973,0.056378257785568854
146,9.123,8.76,0.62,0.015885055940184224,0.9840416132211253,0.399490438435457,0.211429113808889,0.6757522866823179,0.05741511881429925
147,9.226,8.82,0.59,0.016193673548341687,0.983733017765723,0.399513515606108,0.20944356435703532,0.6750409277206405,0.05845801072108424
148,9.247,8.87,0.6,0.01649943267722654,0.9834273268764994,0.3995061085498063,0.20746923834736536,0.6742867025054506,0.059506037874268884
149,9.31,8.93,0.63,0.016802187846818428,0.9831246848578256,0.3994684981116229,0.20550605069312305,0.6734897355531704,0.060558326003557705
150,9.329,8.98,0.62,0.017101796614410355,0.9828252329133711,0.39940097236916694,0.20355390818432265,0.6726501614567432,0.06161402245085439
151,9.39,9.04,0.62,0.017398119493088424,0.9825291092309534,0.39930382650075763,0.20161271012958368,0.6717681250231358,0.06267229640483288
152,9.453,9.09,0.65,0.017691019873700163,0.9822364490639156,0.39917736264748854,0.19968234899992607,0.6708437814038964,0.0637323391194625
153,9.515,9.15,0.65,0.01798036395052047,0.9819473848088136,0.39902188976911607,0.19776271107357693,0.6698772962184381,0.06479336411668951
154,9.576,9.2,0.65,0.018266020650811957,0.9816620460792115,0.39883772349380925,0.1958536770807417,0.6688688456697739,0.06585460737344934
155,9.618,9.26,0.66,0.018547861568464857,0.981380559775399,0.39862518596191915,0.19395512284719332,0.6678186166525,0.06691532749315482
156,9.66,9.31,0.66,0.018825760901887017,0.9811030501498509,0.3983846056640346,0.19206691993544842,0.6667268068528999,0.06797480586176516
157,9.721,9.37,0.64,0.019099595396296302,0.9808296388682752,0.39811631727371205,0.19018893628223232,0.665593624841123,0.06903234678851679
158,9.783,9.42,0.62,0.019369244290548482,0.9805604450661128,0.39782066147533923,0.18832103683094795,0.6644192901554385,0.0700872776314107
159,9.845,9.48,0.64,0.019634589268614347,0.980295585400369,0.3974979847876277,0.1864630841580453,0.6632040333785939,0.07113894890758321
160,9.967,9.53,0.61,0.01989551441580045,0.9800351740966805,0.3971486393832038,0.1846149390925315,0.6619480962062992,0.07218673438873707
161,9.988,9.59,0.6,0.02015190617978728,0.9797793229915414,0.396772982904711,0.18277646132823666,0.6606517315078269,0.0732300311818408
162,10.01,9.64,0.63,0.020403653336537018,0.9795281415696299,0.39637137827775654,0.18094751002868312,0.6593152033786723,0.07426825979528857
163,10.05,9.7,0.64,0.020650646961103507,0.979281736996203,0.39594419352096955,0.1791279444244086,0.6579387871851939,0.07530086419066759
164,10.112,9.75,0.62,0.02089278040336075,0.9790402141445376,0.39549180155339914,0.17731762440245918,0.6565227696011215,0.07632731182024509
165,10.175,9.81,0.64,0.02112994926865122,0.9788036756184147,0.39501457999946754,0.17551641108765323,0.6550674486358357,0.07734709365029843
166,10.237,9.86,0.65,0.021362051403340205,0.9785722217696573,0.3945129109916989,0.1737241674151807,0.653573133654353,0.07835972417045127
167,10.299,9.91,0.63,0.021588986885244913,0.9783459507107479,0.3939871809714984,0.17194075869412823,0.6520401453890072,0.07936474138925753
168,10.32,9.97,0.62,0.02181065801888891,0.9781249583225733,0.3934377804883235,0.1701660531615864,0.650468815942866,0.0803617068163618
169,10.381,10.03,0.64,0.022026969335514103,0.9779093382573585,0.3928651039976607,0.1683999225270892,0.6488594887849779,0.08135020543162882
170,10.442,10.08,0.61,0.022237827597765467,0.9776991819368728,0.39226954965827304,0.1666422425072079,0.6472125187375746,0.08232984564166958
171,10.504,10.14,0.59,0.022443141808944973,0.9774945785460015,0.39165151912921814,0.16489289335014592,0.6455282719553761,0.08330025922420103
172,10.545,10.19,0.6,0.02264282322671127,0.9772956150218128,0.3910114173671522,0.16315176035015516,0.6438071258971447,0.08426110126065547
173,10.606,10.25,0.58,0.02283678538108307,0.9771023760382465,0.3903496524244183,0.1614187343515145,0.6420494692896129,0.085212050057414
174,10.668,10.3,0.57,0.023024944096589377,0.9769149439865895,0.3896666352483742,0.15969371224172152,0.6402557020838731,0.0861528070559975
175,10.729,10.36,0.58,0.02320721751839768,0.9767333989518983,0.3889627794823172,0.15797659743350045,0.6384262354042612,0.08708309673251567
176,10.77,10.41,0.59,0.023383526142239878,0.9765578186855484,0.38823850126825454,0.15626730033521713,0.6365614914897153,0.08800266648665178
177,10.831,10.47,0.58,0.023553792847945024,0.9763882785740998,0.38749421905167947,0.15456573880929303,0.6346619036275535,0.08891128652046547
178,10.891,10.52,0.61,0.02371794293637899,0.9762248516046774,0.3867303533884937,0.1528718386182248,0.6327279160796025,0.08980874970733006
179,10.933,10.58,0.64,0.023875904169584742,0.9760676083270685,0.3859473267542374,0.15118553385784367,0.6307599840006396,0.09069487145133585
180,10.993,10.63,0.62,0.024027606813912108,0.9759166168127483,0.3851455633558636,0.1495067673774465,0.6287585733491657,0.09156948953742593
181,11.055,10.69,0.6,0.024172983685918064,0.9757719426110525,0.38432548894637936,0.14783549118635594,0.6267241607906358,0.09243246397235172
182,11.117,10.74,0.61,0.024311970200808303,0.9756336487027228,0.3834875306427405,0.14617166684635027,0.6246572335933767,0.0932836768162716
183,11.158,10.8,0.6,0.024444504423179494,0.975501795451072,0.38263211674744185,0.14451526584924831,0.6225582895175257,0.0941230320045758
184,11.241,10.85,0.52,0.024570527119812773,0.975376440551014,0.3817596765742654,0.14286626997879381,0.6204278366973615,0.09495045515939145
185,11.261,10.91,0.52,0.024689981814263653,0.975257638976218,0.3808706402786368,0.14122467165591526,0.6182663935174022,0.09576589339022139
186,11.322,10.96,0.52,0.024802814842990278,0.9751454429246403,0.37996543869299565,0.13959047426647678,0.6160744884825888,0.09656931508330464
187,11.406,11.02,0.51,0.024908975412758702,0.9750399017627015,0.37904450316750044,0.13796369247075918,0.6138526600827592,0.09736070967956945
188,11.427,11.07,0.51,0.02500841565906109,0.9749410619683644,0.3781082654162834,0.13634435249408408,0.6116014566514857,0.09814008744139803
189,11.488,11.13,0.53,0.025101090705281725,0.9748489670733833,0.3771571573693554,0.1347324923981536,0.6093214362192363,0.09890747920868519
190,11.549,11.18,0.51,0.02518695872234766,0.9747636576049838,0.37619161103019644,0.13312816233275343,0.6070131663607755,0.09966293614479212
191,11.611,11.24,0.5,0.02526598098860362,0.9746851710272342,0.375212058339052,0.13153142476745613,0.6046772240367158,0.100406529473023
192,11.673,11.29,0.52,0.025338121949653934,0.974613541682364,0.3742189310419586,0.129942354702917,0.6023141954291543,0.10113835020423305
193,11.694,11.35,0.51,0.025403349277919977,0.974548800732284,0.3732126605655398,0.1283610398612941,0.5999246757713532,0.10185850885614721
194,11.817,11.4,0.49,0.02546163393167049,0.9744909761005461,0.3721936778976197,0.12678758085526845,0.597509269171442,0.10256713516494928
195,11.837,11.46,0.48,0.02551295021329143,0.9744400924149818,0.371162413473695,0.12522209133513865,0.595068588430139,0.10326437778969243
196,11.878,11.51,0.48,0.02555727582656739,0.9743961709512464,0.3701192970692811,0.12366469811351881,0.5926032548524884,0.10395040401008296
197,11.939,11.57,0.45,0.025594591932747227,0.9743592295775014,0.3690647576981164,0.1221155412672406,0.5901138980536019,0.10462539941821283
198,12.002,11.62,0.43,0.025624883205164727,0.974329282700463,0.3679992235161424,0.12057477421616558,0.5876011557583528,0.10528956760483753
199,12.063,11.68,0.45,0.025648137882185208,0.9743063412130549,0.3669231217310551,0.119042563778771,0.5850656735949297,0.10594312984078355
200,12.147,11.73,0.43,0.02566434781825275,0.9742904124438873,0.36583687851707347,0.11751909020453245,0.5825081048820966,0.1065863247539948
201,12.168,11.79,0.43,0.025673508532819005,0.9742815001087896,0.3647409189343982,0.11600454718322058,0.579929110409949,0.1072194080026147
202,12.21,11.84,0.44,0.025675619256941666,0.9742796042646077,0.3636356668527067,0.11449914183123104,0.5773293582139093,0.10784265194437404
203,12.293,11.9,0.44,0.02567068297734885,0.9742847212654756,0.3625215448779552,0.11300309465499411,0.5747095233416777,0.10845634530244364
204,12.312,11.95,0.44,0.02565870647777577,0.9742968437217543,0.36139897428177253,0.11151663949141678,0.5720702876128605,0.10906079282785953
205,12.375,12.01,0.45,0.025639700377390082,0.9743159604618237,0.3602683749327762,0.11004002342528092,0.5694123393710133,0.10965631495862291
206,12.417,12.06,0.45,0.025613679166130016,0.9743420564969082,0.35913016522921415,0.10857350668356501,0.5667363732278804,0.11024324747559583
207,12.54,12.12,0.43,0.02558066123678389,0.9743751129891011,0.35798476203240714,0.10711736250673304,0.5640430897996621,0.11082194115533824
208,12.561,12.17,0.42,0.025540668913643403,0.9744151072227621,0.35683258060053463,0.1056718769971144,0.5613331954351883,0.11139276142005272
209,12.582,12.23,0.43,0.02549372847756738,0.9744620125794492,0.3556740345223478,0.10423734894457636,0.5586074019359243,0.11195608798480941
210,12.644,12.28,0.4,0.025439870187298475,0.97451579851654,0.35450953565041293,0.1028140896297255,0.5558664262677555,0.11251231450220343
211,12.705,12.34,0.38,0.02537912829688191,0.9745764305496952,0.3533394940334763,0.10140242260485365,0.5531109902645056,0.11306184820456178
212,12.746,12.39,0.39,0.025311541069043937,0.9746438702393053,0.3521643178474938,0.10000268345279208,0.5503418203231145,0.11360510954375837
213,12.809,12.45,0.39,0.025237150784398678,0.9747180751810522,0.35098441332481395,0.0986152195237658,0.5475596470903757,0.11414253182862354
214,12.891,12.5,0.39,0.02515600374636741,0.9747989990006994,0.3498001846809646,0.09724038965025146,0.5447652051410855,0.11467456085987582
215,12.912,12.56,0.4,0.025068150281711728,0.9748865913532151,0.3486120340384762,0.0958785638397956,0.5419592326474356,0.11520165456247697
216,12.974,12.61,0.41,0.02497364473659878,0.9749807979263041,0.3474203613472054,0.09453012294576218,0.5391424710394922,0.11572428261530956
217,13.036,12.66,0.4,0.024872545468131828,0.9750815604484225,0.34622556430067386,0.09319545831607373,0.5363156646566507,0.11624292607809772
218,13.118,12.72,0.4,0.024764914831292267,0.975188816701327,0.3450280382480002,0.09187497142017764,0.5334795603900236,0.11675807701552161
219,13.16,12.78,0.41,0.02465081916125309,0.9753025005372016,0.34382817610106003,0.09056907345466221,0.5306349073157977,0.11727023811848285
220,13.18,12.83,0.4,0.024530328751039394,0.9754225419003874,0.3426263682365875,0.08927818492807017,0.527782456319677,0.11777992232246243
221,13.242,12.89,0.38,0.024403517824528254,0.9755488668537248,0.34142300239303847,0.08800273522547662,0.524922959712591,0.11828765242288229
222,13.303,12.94,0.38,0.02427046450479637,0.975681397609503,0.34021846356213653,0.08674316215335026,0.5220571708379002,0.118793960687337
223,13.365,13.0,0.36,0.024131250777839047,0.9758200525649959,0.3390131338751011,0.08549991146513901,0.5191858436703742,0.11929938846450965
224,13.426,13.05,0.34,0.023985962451699785,0.9759647463425462,0.33780739248356934,0.08427343636797519,0.5163097324072329,0.11980448578955509
225,13.488,13.11,0.35,0.023834689111066044,0.9761153898341464,0.3366016154351703,0.08306419701093586,0.5134295910515325,0.1203098109857335
226,13.529,13.16,0.36,0.023677524067401506,0.9762718902504505,0.33539617554360335,0.08187265995543261,0.5105461729881635,0.12081593026211271
227,13.63,13.22,0.36,0.023514564304697044,0.9764341511741309,0.33419144225296604,0.08069929762848546,0.5076602305527059,0.12132341730720618
228,13.65,13.27,0.35,0.023345910420932404,0.9766020726174991,0.33298778149599984,0.07954458775983446,0.5047725145933915,0.12183285287845445
229,13.69,13.33,0.38,0.023171666565349983,0.9767755510842839,0.33178555554590855,0.07840901280402574,0.5018837740264684,0.12234482438746072
230,13.752,13.38,0.36,0.022991940371653644,0.9769544796354613,0.3305851228614595,0.07729305934872788,0.49899475538534466,0.12285992548086075
231,13.793,13.44,0.35,0.02280684288725857,0.9771387479590111,0.3293868379251717,0.07619721751059574,0.49610620236397385,0.12337875561665773
232,13.855,13.49,0.35,0.022616488498730415,0.9773282424434604,0.32819105107450186,0.07512198032001702,0.4932188553550439,0.12390191963579308
233,13.918,13.55,0.34,0.02242099485356492,0.977522846255068,0.32699810832605514,0.07406784309606562,0.4903334509836057,0.12443002732867835
234,13.98,13.6,0.31,0.022220482778474115,0.9777224394184788,0.32580835119295437,0.07303530281295464,0.4874507216368362,0.12496369299640994
235,14.021,13.66,0.28,0.02201507619436152,0.9779268989006673,0.3246221164955836,0.07202485745929608,0.4845713949906643,0.12550353500643532
236,14.062,13.71,0.27,0.02180490202818325,0.9781360986979721,0.3234397361659718,0.0710370053915407,0.48169619353399945,0.1260501753425244
237,14.124,13.77,0.24,0.02159009012190094,0.9783499099260118,0.3222615370461046,0.07007224468304576,0.4788258340912815,0.12660423914902794
238,14.186,13.82,0.24,0.021370773138736112,0.9785682009122728,0.3210878406804432,0.06913107247029068,0.4759610273440114,0.12716635426958217
239,14.247,13.88,0.27,0.02114708646693726,0.9787908372911557,0.31991896310288365,0.06821398429781732,0.47310247735184396,0.12773715078058773
240,14.289,13.93,0.26,0.02091916812127349,0.9790176821012643,0.31875521461834017,0.06732147346347012,0.4702508810737626,0.1283172605199062
241,14.35,13.99,0.25,0.020687158642470668,0.9792485958847217,0.31759689957913334,0.06645403036544578,0.46740692788982796,0.12890731661125499
242,14.432,14.04,0.26,0.020451200994806518,0.979483436788298,0.31644431615640234,0.06561214185257404,0.46457129912401857,0.12950795298476095
243,14.452,14.1,0.26,0.02021144046207758,0.9797220606661359,0.3152977561068527,0.06479629057917258,0.46174466756874305,0.13011980389408281
244,14.513,14.15,0.24,0.019968024542145555,0.9799643211838681,0.3141575045352564,0.06400695436577265,0.45892769701167757,0.13074350343048158
245,14.554,14.21,0.23,0.019721102840261136,0.9802100699239286,0.31302383965323155,0.06324460556703564,0.456121041765649,0.13137968503422157
246,14.615,14.26,0.22,0.019470826961350173,0.9804591564918698,0.31189703253494294,0.06250971044823406,0.45332534620233866,0.1320289810037122
247,14.718,14.32,0.19,0.019217350401426976,0.9807114286235273,0.3107773468704936,0.06180272857169698,0.45054124429061704,0.1326920220028527
248,14.739,14.37,0.17,0.018960828438274176,0.980966732292885,0.3096650387178689,0.061124112194574004,0.44776935914032356,0.1333694365671012
249,14.781,14.43,0.17,0.018701418021502526,0.9812249118205343,0.30856035625436035,0.060474305679126976,0.445010302552295,0.1340618506088289
250,14.842,14.48,0.15,0.01843927766208097,0.9814858099826358,0.30746353952842587,0.05985374491650042,0.44226467457540763,0.13476988692252326
251,14.883,14.54,0.14,0.018174567321408812,0.9817492681203116,0.30637482021293727,0.059262856764645225,0.4395330630713537,0.13549416469036468
252,14.945,14.59,0.16,0.017907448299983964,0.9820151262494156,0.3052944213607192,0.05870205850085991,0.43681604328782997,0.13623529898862555
253,15.006,14.65,0.16,0.017638083125703006,0.9822832231706481,0.30422255716323365,0.05817175728926719,0.43411417744079234,0.13699390029524858
254,15.11,14.7,0.14,0.017366635441812193,0.9825533965799944,0.30315943271325024,0.05767234966343121,0.4314280143064377,0.13777057399888673
255,15.131,14.76,0.13,0.017093269894515293,0.9828254831794826,0.3021052437723666,0.05720422102426383,0.4287580888236016,0.1385659199096574
256,15.173,14.81,0.14,0.016818152020231708,0.9830993187882726,0.3010601765442905,0.05676774515339501,0.4261049217073066,0.13938053177187093
257,15.234,14.87,0.11,0.016541448132485106,0.9833747384540924,0.30002440745484715,0.05636328374225913,0.4234690190742297,0.14021499677903834
258,15.297,14.92,0.09,0.016263325208388028,0.9836515765650655,0.29899810293970536,0.055991185937248764,0.4208508720808796,0.14106989509152895
259,15.358,14.98,0.1,0.01598395077467425,0.9839296669619768,0.2979814192408285,0.05565178790137117,0.41825095657527983,0.14194579935730992
260,15.461,15.03,0.07,0.01570349279322096,0.9842088430510371,0.2969745022126508,0.05534541239284762,0.41566973276294306,0.14284327423622767
261,15.481,15.09,0.03,0.01542211954599603,0.9844889379172174,0.29597748713896427,0.05507236836102857,0.41310764488789997,0.1437628759282965
262,15.501,15.14,0.03,0.015139999519361477,0.9847697844382244,0.29499049856145215,0.05483295055991607,0.4105651209295052,0.14470515170643086
263,15.563,15.2,0.02,0.014857301287663176,0.9850512153991858,0.29401365012072833,0.05462743917949829,0.40804257231569435,0.14567063945402117
264,15.603,15.25,0.01,0.014574193396038779,0.9853330636081229,0.2930470444106535,0.05445609949501876,0.4055403936532909,0.14665986720774496
265,15.666,15.31,0.01,0.014290844242380564,0.9856151620122712,0.29209077284660256,0.054319181534250305,0.4030589624758859,0.14767335270602563
266,15.708,15.36,0.02,0.01400742195839521,0.9858973438153091,0.29114491554827804,0.054216919762847315,0.40059863900975784,0.14871160294357227
267,15.811,15.41,-0.0,0.01372409428970803,0.9861794425955526,0.2902095412376255,0.05414953278788945,0.3981597659582775,0.14977511373244595
268,15.832,15.47,-0.02,0.013441028474967026,0.9864612924251571,0.28928470715239735,0.054117223079785136,0.3957426683052443,0.15086436927010868
269,15.873,15.53,-0.0,0.013158391123912766,0.9867427279903713,0.28837045897591895,0.05412017671276919,0.3933476531376131,0.15197984171490725
270,15.933,15.58,-0.02,0.012876348094394119,0.9870235847128571,0.2874668307836178,0.05415856312425879,0.3909750094880767,0.15312199076943292
271,15.995,15.64,-0.03,0.012595064368325786,0.9873036988720912,0.2865738450068961,0.054232534893310196,0.3886250081979668,0.1542912632721718
272,16.037,15.69,-0.04,0.01231470392659737,0.9875829077288358,0.2856915124149257,0.054342227538358004,0.3862979018009254,0.15548809279782147
273,16.098,15.75,-0.06,0.012035429622955143,0.9878610496496638,0.2848198321149562,0.05448775933432277,0.38399392442779723,0.15671289926658352
274,16.223,15.8,-0.1,0.011757403056886006,0.9881379642325097,0.2839587915717146,0.05466923114904295,0.3817132917331857,0.15796608856268202
275,16.243,15.86,-0.11,0.011480784445540163,0.9884134924332136,0.28310836664643096,0.05488672629888851,0.379456200844088,0.15924805216232843
276,16.285,15.91,-0.09,0.01120573249473556,0.9886874766930187,0.2822685216559168,0.055140310423389134,0.3772228303309658,0.16055916677136814
277,16.367,15.97,-0.12,0.010932404269093494,0.9889597610669724,0.2814392094519807,0.05543003137875032,0.37501334020151633,0.16189979397289264
278,16.388,16.02,-0.14,0.010660955061359964,0.9892301913531844,0.2806203715213108,0.05575591915021673,0.37282787191730804,0.16327027988515927
279,16.429,16.07,-0.12,0.01039153826097271,0.9894986152228812,0.27981193810583627,0.056117985783343545,0.3706665484333803,0.16467095483018648
280,16.49,16.13,-0.14,0.010124305221941595,0.9897648823511925,0.2790138283435148,0.05651622533428279,0.36852947426086086,0.16610213301339327
281,16.552,16.18,-0.16,0.009859405130120104,0.9900288445485947,0.27822595042947385,0.056950613839169884,0.3664167355526242,0.1675641122146479
282,16.612,16.24,-0.16,0.009596984869956998,0.9902903558929216,0.27744820179742385,0.05742110930264555,0.36432840021198404,0.16905717349108823
283,16.654,16.3,-0.17,0.00933718889082815,0.9905492728618458,0.27668046932124885,0.05792765170549063,0.3622645180243737,0.17058158089205672
284,16.715,16.35,-0.21,0.009080159073058272,0.9908054544657207,0.2759226295366701,0.058470163031298476,0.3602251208119333,0.17213758118647823
285,16.777,16.41,-0.23,0.008826034593749366,0.9910587623806691,0.27517454888283965,0.059048547312088105,0.35821022261086466,0.17372540360300603
286,16.819,16.46,-0.25,0.008574951792536981,0.9913090610817994,0.27443608396365315,0.05966269069277722,0.3562198198713433,0.17534525958328495
287,16.923,16.51,-0.28,0.008327044037396212,0.9915562179764291,0.2737070818284659,0.06031246151445633,0.3542538916796721,0.17699734254873128
288,16.944,16.57,-0.3,0.008082441590618777,0.9918001035371998,0.2729873802717417,0.060997710416444244,0.35231240000221464,0.17868182768131222
289,17.007,16.62,-0.26,0.007841271475083152,0.9920405914349607,0.2722768081509779,0.061718270457157276,0.35039528995049296,0.1803988717188877
290,17.027,16.68,-0.27,0.007603657340946519,0.9922775586712957,0.27157518572205974,0.06247395725383201,0.3485024900666749,0.18214861276573058
291,17.088,16.73,-0.28,0.007369719332902151,0.9925108857105526,0.2708823249910487,0.06326456914108662,0.3466339126285641,0.18393117011885718
292,17.151,16.79,-0.26,0.007139573958165772,0.9927404566112096,0.2701980300813066,0.06408988734822918,0.3447894539731373,0.18574664411077785
293,17.193,16.84,-0.26,0.006913333955375841,0.9929661591563962,0.2695220976148091,0.0649496761951597,0.34296899483766385,0.18759511596923015
294,17.296,16.9,-0.28,0.006691108164611877,0.9931878849833666,0.2688543171065053,0.06584368330666403,0.3411724007174518,0.18947664769441913
295,17.317,16.95,-0.29,0.006473001398750795,0.9934055297117025,0.26819447137060354,0.06677163984488085,0.339399522239284,0.19139128195427352
296,17.358,17.01,-0.28,0.006259114316393792,0.9936189930700126,0.2675423369377057,0.06773326075974488,0.33765019554961695,0.19333904199822158
297,17.421,17.07,-0.3,0.006049543296606351,0.9938281790208893,0.2668976844817461,0.06872824505723212,0.33592424271661037,0.19531993159000258
298,17.483,17.12,-0.33,0.005844380315720885,0.9940329958838665,0.2662602792557097,0.06975627608523724,0.3342214721450203,0.19733393496004584
299,17.543,17.17,-0.32,0.005643712826457949,0.9942333564561194,0.2656298815350871,0.0708170218368966,0.3325416790029392,0.19938101677795572
300,17.586,17.23,-0.33,0.005447623639630683,0.9944291781306439,0.2650062470679784,0.0719101352710984,0.3308846456592914,0.20146112214562084
301,17.688,17.28,-0.33,0.005256190808708602,0.9946203830116302,0.2643891275306764,0.07303525464981327,0.32925014213090953,0.20357417661142654
302,17.709,17.34,-0.31,0.005069487517528228,0.994806898026745,0.26377827098745626,0.07419200389177928,0.32763792653793294,0.20572008620599572
303,17.75,17.39,-0.3,0.004887581971448307,0.9949886550360201,0.26317342235319613,0.07537999294202094,0.326047745566212,0.2078987374998139
304,17.813,17.45,-0.3,0.004710537292256349,0.9951655909370389,0.2625743238573872,0.07659881815667274,0.3244793349353838,0.21010999768304217
305,17.874,17.5,-0.27,0.004538411417141295,0.9953376477661087,0.26198071550807667,0.077848062702645,0.32293241987130095,0.2123537146677934
306,17.915,17.56,-0.25,0.004371257002054609,0.9955047727950891,0.26139233555431907,0.07912729697179934,0.32140671558155115,0.2146297172131074
307,18.039,17.61,-0.27,0.0042091213297866985,0.9956669186235563,0.2608089209457739,0.08043607900942738,0.3199019277328793,0.21693781507276527
308,18.06,17.67,-0.29,0.0040520462230872935,0.9958240432659697,0.2602302077881617,0.0817739549569129,0.3184177529294206,0.21927779916590168
309,18.08,17.73,-0.27,0.003900067963158255,0.9959761102335157,0.25965593179335456,0.08314045950848646,0.3169538791907517,0.22164944177013493
310,18.144,17.78,-0.26,0.003753217213847689,0.9961230886102981,0.25908582872292857,0.08453511638193349,0.31550998642883615,0.2240524967367369
311,18.185,17.83,-0.29,0.003611518951875925,0.9962649531235467,0.25851963482403906,0.08595743880302008,0.31408574692297025,0.22648669972726565
312,18.288,17.89,-0.29,0.0034749924034225533,0.9964016842075134,0.25795708725647604,0.08740693000332107,0.3126808257918427,0.22895176847105958
313,18.309,17.94,-0.27,0.0033436509873977656,0.9965332680607304,0.2573979245097128,0.08888308373109756,0.3112948814618335,0.23144740304297587
314,18.39,18.0,-0.28,0.0032175022657111555,0.9966596966963203,0.2568418868086901,0.09038538477485898,0.3099275661306923,0.23397328616074062
315,18.41,18.05,-0.28,0.0030965479008399762,0.9967809679850475,0.25628871650700347,0.09191330949926661,0.3085785262257444,0.2365290835012738
316,18.472,18.11,-0.25,0.0029807836209870325,0.996897085690826,0.2557381584661211,0.09346632639306542,0.3072474028557884,0.2391144440353495
317,18.534,18.16,-0.26,0.0028701991931064643,0.9970080594983987,0.25518996041928627,0.09504389662873566,0.3059338322558774,0.2417290003799544
318,18.575,18.22,-0.27,0.0027647784040625185,0.9971139050329237,0.25464387331884586,0.0966454746335285,0.3046374462242252,0.24437236916771218
319,18.638,18.27,-0.24,0.002664499050171973,0.9972146438712184,0.2540996516658609,0.09827050867151639,0.30335787255054536,0.24704415143272387
320,18.7,18.33,-0.25,0.002569332935367873,0.9973103035444191,0.2535570538209793,0.09991844143621934,0.3020947354352002,0.2497439330121379
321,18.783,18.39,-0.27,0.0024792458782095647,0.9974009175318346,0.2530158422956711,0.10158871065326305,0.30084765589860246,0.2524712849627269
322,18.804,18.44,-0.27,0.002394197727950229,0.9974865252457803,0.25247578402303245,0.10328074969242257,0.2996162521803748,0.25522576399172964
323,18.845,18.5,-0.27,0.0023141423898547764,0.9975671720072004,0.25193665060746984,0.10499398818830365,0.2984001401278191,0.25800691290121536
324,18.927,18.55,-0.3,0.002239027859939183,0.9976429090119044,0.2513982185527004,0.1067278526688156,0.29719893357328103,0.26081426104525735
325,18.968,18.6,-0.31,0.002168796269279069,0.9977137932872713,0.25086026946765966,0.10848176719048973,0.2960122447000018,0.2636473247992456
326,19.031,18.66,-0.28,0.0021033839380121644,0.9977798876392938,0.2503225902500624,0.11025515397959258,0.2948396843960374,0.26650560804069656
327,19.136,18.71,-0.29,0.002042721439137015,0.9978412605898554,0.24978497324748558,0.11204743407786326,0.29368086259580517,0.2693886026409227
328,19.156,18.77,-0.29,0.0019867336721891204,0.9978979863041646,0.24924721639590583,0.11385802799158076,0.2925353886087908,0.2722957889669091
329,19.198,18.82,-0.25,0.0019353399468567038,0.9979501445082748,0.2487091233356691,0.11568635634256684,0.291402871434959,0.27522663639270706
330,19.239,18.88,-0.26,0.001888454076582259,0.9979978203966489,0.24817050350493497,0.1175318405196434,0.29028292006645723,0.2781806038195743
331,19.301,18.93,-0.27,0.0018459844821836107,0.9980411045297288,0.24763117221073835,0.11939390332901421,0.2891751437752899,0.28115714020402277
332,19.364,18.99,-0.26,0.0018078343055139066,0.9980800927214948,0.24709095067792042,0.12127196964205637,0.2880791523867405,0.28415568509287925
333,19.406,19.05,-0.25,0.001773901533159561,0.998114885917009,0.24654966607628426,0.12316546703909759,0.286994556538426,0.287175669164444
334,19.489,19.1,-0.26,0.0017440791301467696,0.9981455900599766,0.24600715152643032,0.1250738264478638,0.28592096792495675,0.29021651477483956
335,19.51,19.16,-0.29,0.0017182551835933939,0.9981723159503855,0.24546324608480954,0.12699648277541906,0.2848579995282474,0.2932776365086834
336,19.573,19.21,-0.28,0.001696313056209983,0.998195179092319,0.24491779470859232,0.12893287553256685,0.283805265833588,0.296358441733235
337,19.634,19.26,-0.3,0.001678131549525265,0.9982142995320687,0.24437064820098922,0.13088244944979116,0.28276238303162277,0.2994583311551849
338,19.696,19.32,-0.32,0.0016635850766855591,0.9982298016866955,0.2438216631376821,0.13284465508384544,0.28172896920639817,0.30257669937926074
339,19.757,19.37,-0.29,0.0016525438446549732,0.9982418141632131,0.2432707017750224,0.13481894941405867,0.28070464450963156,0.3057129354678324
340,19.798,19.43,-0.29,0.0016448740456253643,0.9982504695685843,0.2427176319406434,0.1368047964273439,0.27968903132133277,0.30886642350068166
341,19.861,19.48,-0.29,0.0016404380574311416,0.9982559043107346,0.24216232690712575,0.1388016676908071,0.27868175439690596,0.31203654313408935
342,19.923,19.54,-0.29,0.0016390946527514586,0.9982582583908031,0.2416046652493687,0.14080904291083265,0.2776824410008802,0.3152226701583946
343,19.944,19.59,-0.28,0.0016406992168677714,0.9982576751868623,0.24104453068636678,0.1428264104775873,0.2766907210274767,0.31842417705319787
344,20.006,19.65,-0.29,0.0016451039737273873,0.9982543012293567,0.24048181190817255,0.14485326799401615,0.2757062271082969,0.32164043353943605
345,20.067,19.7,-0.3,0.0016521582200462904,0.9982482859685311,0.2399164023889272,0.1468891227885685,0.27472859470749283,0.32487080712764255
346,20.108,19.76,-0.28,0.0016617085671692382,0.9982397815341261,0.2393482001869432,0.1489334924110247,0.27375746220485736,0.32811466366179337
347,20.233,19.82,-0.3,0.0016735991903946547,0.9982289424876379,0.23877710773292807,0.15098590511083074,0.2727924709673342,0.3313713678581935
348,20.254,19.87,-0.33,0.0016876720854642308,0.998215925567441,0.2382030316075215,0.1530459002972899,0.27183326540950664,0.334640283838882
349,20.296,19.92,-0.32,0.00170376733191159,0.9982008894270797,0.2376258823093618,0.15511302898087959,0.27087949304365977,0.33792077565902634
350,20.357,19.98,-0.34,0.0017217233629575892,0.9981839943670429,0.2370455740148996,0.15718685419488423,0.26993080452003543,0.341212207827753
351,20.398,20.03,-0.35,0.0017413772416323182,0.9981654020603369,0.23646202433114302,0.15926695139648903,0.2689868536578846,0.3445139458218633
352,20.439,20.09,-0.34,0.0017625649427934237,0.9981452752721937,0.23587515404244552,0.1613529088465124,0.26804729746789546,0.3478253565918981
353,20.501,20.14,-0.32,0.0017851216406970859,0.9981237775742471,0.23528488685234583,0.16344432796708414,0.26711179616654895,0.35114580906005194
354,20.604,20.2,-0.33,0.0018088820017635402,0.9981010730535408,0.23469114912137523,0.16554082367677464,0.2661800131829484,0.35447467460946774
355,20.625,20.25,-0.34,0.0018336804821649595,0.9980773260167269,0.23409386960168527,0.16764202470292885,0.2652516151586984,0.3578113275644989
356,20.668,20.31,-0.32,0.0018593516298550715,0.998052700689837,0.2334929791693472,0.16974757387119718,0.26432627194146086,0.36115514566156065
357,20.728,20.36,-0.34,0.0018857303906539297,0.9980273609139995,0.2328884105552189,0.1718571283724123,0.26340365657287956,0.364505510510231
358,20.789,20.42,-0.36,0.0019126524179965856,0.9980014698374915,0.23228009807535185,0.17397036000702717,0.2624834452716155,0.3678618080442789
359,20.829,20.48,-0.35,0.0019399543859484336,0.9979751896045103,0.2316679773619748,0.1760869554073351,0.2615653174122806,0.37122342896229893
360,20.891,20.53,-0.37,0.001967474305083466,0.9979486810410597,0.23105198509615532,0.17820661623762585,0.2606489555010901,0.3745897691576139
361,20.973,20.58,-0.4,0.001995051840816463,0.9979221033383551,0.23043205874328837,0.1803290593723391,0.25973404514906767,0.3779602301371094
362,20.994,20.64,-0.41,0.0020225286337747354,0.9978956137341478,0.22980813629257585,0.18245401705222491,0.25882027504362887,0.38133421942869705
363,21.054,20.69,-0.4,0.0020497486217858113,0.9978693671923877,0.2291801560016322,0.18458123701855803,0.2579073369193385,0.38471115097716624
364,21.115,20.75,-0.42,0.002076558363044882,0.9978435160816518,0.2285480561472944,0.18671048262552492,0.256994925528584,0.38809044552825406
365,21.156,20.8,-0.42,0.0021028073600107312,0.9978182098527832,0.2279117747836304,0.18884153293098344,0.2560827386128491,0.39147153100083504
366,21.217,20.86,-0.4,0.0021283483835666827,0.9977935947161966,0.22727124950806668,0.19097418276583922,0.25517047687522104,0.3948538428471564
367,21.279,20.91,-0.41,0.002153037796976389,0.9977698133193164,0.22662641723651647,0.1931082427822442,0.25425784395475276,0.39823682440103136
368,21.361,20.97,-0.43,0.0021767358791620686,0.9977470044246173,0.22597721398840492,0.19524353948069417,0.25334454640330895,0.40161992721386497
369,21.382,21.02,-0.42,0.002199307146833456,0.9977253025887325,0.22532357468254058,0.19737991521594636,0.25243029366555325,0.40500261137833266
370,21.443,21.08,-0.43,0.0022206206749970435,0.9977048378430992,0.224665432944847,0.1995172281815251,0.25151479806276217,0.408384345839481
371,21.484,21.14,-0.46,0.002240550415377302,0.9976857353766059,0.22400272092901732,0.2016553523724699,0.2505977747811629,0.41176460869300197
372,21.546,21.19,-0.47,0.0022589755122827113,0.9976681152207094,0.22333536915115598,0.20379417752596088,0.24967894186548986,0.41514288747045813
373,21.609,21.25,-0.47,0.002275780615447447,0.9976520919374865,0.2226633063394207,0.2059336090395353,0.24875802021843363,0.41851867941128956
374,21.691,21.3,-0.5,0.002290856189374661,0.9976377743110946,0.22198645929958988,0.20807356786673628,0.24783473360661368,0.42189149172150386
375,21.711,21.35,-0.52,0.002304098818700703,0.9976252650431252,0.22130475279736792,0.21021399039017097,0.24690880867364048,0.42526084181902063
376,21.774,21.41,-0.5,0.0023154115090952367,0.9976146604523335,0.22061810945811416,0.21235482827207647,0.24597997496075494,0.4286262575656832
377,21.814,21.46,-0.51,0.0023247039832116267,0.9976060501792338,0.219926449684538,0.2144960482825633,0.24504796493544692,0.4319872774859618
378,21.876,21.52,-0.52,0.0023318929712040945,0.997599516896048,0.21922969159275343,0.21663763210573914,0.24411251402836967,0.4353434509723684
379,21.937,21.57,-0.51,0.0023369024953322232,0.9975951360224881,0.21852775096694757,0.21877957612391186,0.24317336067880638,0.438694338477578
380,22.0,21.63,-0.52,0.002339664148178621,0.9975929754478536,0.21782054123283046,0.2209218911800373,0.24223024638891727,0.4420395116932222
381,22.083,21.68,-0.54,0.0023401173640143244,0.9975930952599119,0.21710797345000096,0.22306460231852013,0.2412829157869808,0.44537855371530355
382,22.124,21.74,-0.54,0.002338209682856701,0.9975955474810233,0.21638995632335023,0.2252077485044507,0.24033111669983281,0.448711059196208
383,22.145,21.8,-0.54,0.0023338970067750637,0.9976003758119608,0.21566639623360703,0.22735138232138957,0.2393746002346897,0.4520366344833363
384,22.209,21.85,-0.57,0.002327143848009005,0.9976076153838644,0.21493719728710226,0.2294955696478836,0.23841312087051342,0.45535489774443855
385,22.25,21.91,-0.59,0.0023179235684719925,0.9976172925187681,0.2142022613847632,0.23164038931300665,0.23744643655903008,0.4586654790798045
386,22.312,21.96,-0.58,0.0023062186102205612,0.9976294244991212,0.21346148831025447,0.23378593273136175,0.23647430883545476,0.46196802062150233
387,22.374,22.01,-0.61,0.0022920207164795845,0.997644019346726,0.21271477583705214,0.23593230351810307,0.23549650293889446,0.46526217661988384
388,22.434,22.07,-0.63,0.002275331142826465,0.997661075611491,0.21196201985409066,0.23807961708460668,0.2345127879423001,0.4685476135175766
389,22.495,22.12,-0.62,0.002256160858151264,0.9976805821703896,0.21120311450945176,0.24022800021543025,0.233522936891726,0.4718240100111686
390,22.536,22.18,-0.61,0.0022345307350263473,0.9977025180369968,0.21043795237141238,0.2423775906271549,0.23252672695454232,0.47509105710076627
391,22.599,22.23,-0.62,0.0022104717291383203,0.9977268521819551,0.20966642460604418,0.24452853650961393,0.2315239395761414,0.47834845812761134
392,22.661,22.29,-0.61,0.0021840250474564867,0.9977535433646973,0.20888842117048,0.24668099604998361,0.23051436064459796,0.48159592879996177
393,22.701,22.34,-0.59,0.002155242304833164,0.9977825399767375,0.2081038310209199,0.24883513694027884,0.22949778066269982,0.4848331972074863
394,22.805,22.4,-0.61,0.002124185668749779,0.9978137798968137,0.2073125423344383,0.25099113586894733,0.22847399492675563,0.48806000382445464
395,22.825,22.45,-0.62,0.0020909279919391083,0.9978471903581573,0.20651444274365258,0.25314917799744063,0.2274428037115925,0.4912761015020468
396,22.867,22.51,-0.59,0.002055552932630511,0.9978826878281399,0.20570941958330555,0.2553094564228383,0.22640401246117225,0.4944812554501134
397,22.93,22.57,-0.61,0.0020181550621854497,0.9979201779005311,0.20489736014779497,0.2574721716277842,0.22535743198426716,0.4976752432087016
398,22.972,22.62,-0.64,0.001978839959912754,0.9979595552005748,0.20407815195864254,0.2596375309191334,0.2243028786546333,0.5008578546096265
399,23.033,22.67,-0.64,0.0019377242948743715,0.998000703303075,0.20325168304083366,0.2618057478568041,0.22324017461510295,0.5040288917283323
400,23.093,22.73,-0.64,0.0018949358945129782,0.9980434946636559,0.20241784220688477,0.26397704167436453,0.22216914798498277,0.5071881688262574
401,23.176,22.78,-0.65,0.0018506137999541891,0.9980877905633404,0.20157651934740903,0.2661516366928877,0.22108963307008558,0.5103355122839229
402,23.198,22.84,-0.63,0.0018049083078583458,0.9981334410665688,0.20072760572686396,0.2683297617296146,0.22000147057464733,0.5134707605250067
403,23.26,22.89,-0.6,0.0017579809987188619,0.9981802849927602,0.19987099428311614,0.27051164950297574,0.21890450781431334,0.516593763931717
404,23.301,22.95,-0.61,0.0017100047515242764,0.9982281499014924,0.19900657992950185,0.27269753603549485,0.2177985989293396,0.5197043847518289
405,23.363,23.0,-0.61,0.001661163744717593,0.9982768520913681,0.19813425985817953,0.27488766005606174,0.21668360509715626,0.5228024969977857
406,23.425,23.06,-0.57,0.0016116534434023888,0.9983261966126133,0.19725393384370676,0.27708226240303846,0.21555939474347885,0.5258879863382652
407,23.529,23.11,-0.58,0.0015616805727629403,0.9983759772934431,0.19636550454589619,0.2792815854296158,0.21442584375121215,0.5289607499825923
408,23.55,23.17,-0.59,0.0015114630776848449,0.9984259767801965,0.195468877811104,0.2814858724127495,0.2132828356664543,0.5320206965583477
409,23.592,23.23,-0.59,0.0014612300685820413,0.9984759665912423,0.19456396297118167,0.2836953669668951,0.21213026190097062,0.5350677459824812
410,23.654,23.28,-0.59,0.001411221753454123,0.9985257071846158,0.19365067313937956,0.2859103124636656,0.21096802193056152,0.5381018293262059
411,23.715,23.33,-0.61,0.001361689356214064,0.998574948039349,0.1927289255025142,0.28813095145849826,0.20979602348878468,0.5411228886739343
412,23.756,23.39,-0.62,0.0013128950213398148,0.9986234277504333,0.19179864160867513,0.29035752512550167,0.20861418275550184,0.5441308769765476
413,23.818,23.44,-0.6,0.001265111704913667,0.9986708741373462,0.1908597476496555,0.29259027270184423,0.20742242453971163,0.547125757899315
414,23.921,23.5,-0.61,0.0012186230521208043,0.9987170043660665,0.18991217473717223,0.2948294309432413,0.20622068245610534,0.5501075056648066
415,23.942,23.55,-0.6,0.0011737232612839734,0.9987615250845003,0.1889558591718323,0.297075233592235,0.20500889909474912,0.5530761048911457
416,23.963,23.61,-0.57,0.0011307169345178797,0.9988041325712279,0.18799074270372618,0.2993279108610071,0.20378702618327957,0.5560315504259195
417,24.048,23.66,-0.57,0.0010899189150981312,0.9988445128974759,0.18701677278352882,0.3015876889304051,0.20255502474101922,0.5589738471760031
418,24.089,23.72,-0.57,0.0010516541116540445,0.9988823421022015,0.18603390280305804,0.3038547894667274,0.20131286522446906,0.5619030099334898
419,24.15,23.77,-0.56,0.0010162573093087266,0.9989172863801663,0.18504209232434912,0.3061294291577012,0.2000605276637167,0.5648190631978532
420,24.211,23.83,-0.55,0.0009840729679022932,0.9989490022828587,0.1840413072964418,0.3084118192689692,0.1987980017893874,0.567722040994432
421,24.271,23.89,-0.56,0.0009554550074439986,0.9989771369321248,0.1830315202592467,0.3107021652221872,0.19752528714984785,0.5706119866893217
422,24.292,23.94,-0.58,0.0009307665809465792,0.9990013282463485,0.18201271053406437,0.3130006661954704,0.19624239321844247,0.5734889528007854
423,24.355,24.0,-0.56,0.0009103798348024602,0.9990212051790317,0.1809848644005366,0.31530751474649854,0.19494933949059579,0.576353000807325
424,24.416,24.05,-0.59,0.0008946756568668263,0.9990363879696026,0.1799479752599638,0.3176228964582578,0.19364615557064865,0.5792042009525684
425,24.457,24.1,-0.61,0.0008840434124158224,0.999046488406292,0.1789020437849956,0.31994698960723755,0.1923328812483032,0.5820426320471394
426,24.539,24.16,-0.58,0.0008788806681509278,0.9990511101009077,0.1778470780557066,0.32227996485384186,0.19100956656453752,0.5848683812676694
427,24.643,24.21,-0.58,0.0008795929044248139,0.999049848775336,0.17678309368204934,0.3246219849546709,0.18967627186682876,0.5876815439530698
428,24.664,24.27,-0.58,0.0008865932158715975,0.9990422925595895,0.17571011391264843,0.32697320449617867,0.1883330678535056,0.5904822233981362
429,24.685,24.32,-0.57,0.0009003020006340423,0.9990280223012169,0.1746281697298746,0.3293337696490857,0.18698003560706042,0.5932705306445082
430,24.725,24.38,-0.55,0.0009211466383893871,0.9990066118858735,0.17353729993113984,0.33170381794288956,0.1856172666163026,0.5960465842689677
431,24.787,24.43,-0.57,0.0009495611573844226,0.9989776285688503,0.17243755119640566,0.33408347805985833,0.18424486278731053,0.5988105101690504
432,24.85,24.49,-0.57,0.0009859858906973234,0.9989406333173458,0.17132897814198111,0.33647286964799245,0.18286293644322144,0.6015624413459593
433,24.892,24.55,-0.55,0.001030867121950072,0.9988951811632624,0.17021164336077246,0.3388721031525921,0.18147161031298012,0.604302517684792
434,24.953,24.6,-0.57,0.0010846567206980436,0.9988408215663012,0.16908561744922138,0.3412812796662052,0.18007101750923687,0.6070308857320956
435,25.014,24.66,-0.59,0.0011478117677249681,0.9987770987871316,0.16795097902122036,0.3437004907968307,0.1786613014956435,0.6097476984707504
436,25.056,24.71,-0.58,0.001220794170471565,0.9987035522704077,0.16680781470932804,0.34612981855426433,0.17724261604384015,0.6124531150921319
437,25.118,24.76,-0.6,0.001304070268829782,0.9986197170374012,0.16565621915364376,0.34856933525439815,0.17581512518045408,0.6151473007654423
438,25.181,24.82,-0.62,0.0013981104315422238,0.9985251240880113,0.16449629497873264,0.35101910344111364,0.1743790031244308,0.617830426404044
439,25.241,24.87,-0.6,0.0015033886434560346,0.9984193008119051,0.16332815275899723,0.3534791758252638,0.17293443421500926,0.6205026684286072
440,25.304,24.93,-0.59,0.001620382083889301,0.9983017714085273,0.16215191097286352,0.3559495952401551,0.17148161283063845,0.6231642085268543
441,25.366,24.98,-0.6,0.0017495706963734279,0.9981720573157195,0.16096769594610932,0.3584303946129262,0.17002074329912892,0.6258152334096749
442,25.386,25.04,-0.61,0.0018914367500396999,0.9980296776466806,0.1597756417846428,0.3609215969512703,0.168552039799347,0.6284559345633959
443,25.448,25.09,-0.58,0.002046464392924887,0.9978741496350007,0.1585758902970587,0.36342321534502414,0.16707572625479772,0.6310865079980106
444,25.509,25.15,-0.59,0.0022151391974807103,0.9977049890874771,0.15736859090736574,0.3659352529821878,0.1655920362194931,0.6337071539912041
445,25.572,25.2,-0.63,0.002397947698583647,0.9975217108444281,0.15615390055835937,0.3684577031789332,0.1641012127565605,0.6363180768280344
446,25.633,25.26,-0.62,0.0025953769243542164,0.9973238292471901,0.15493198360619687,0.3709905494230966,0.16260350831010428,0.638919484536118
447,25.675,25.32,-0.63,0.0028079139201089703,0.9971108586124813,0.15370301170680736,0.37353376543055045,0.16109918457088088,0.6415115886161773
448,25.737,25.37,-0.66,0.003036045265783755,0.9968823137132939,0.15246716369484067,0.37608731521370026,0.15958851233636087,0.644094603767867
449,25.799,25.42,-0.66,0.003280256587182216,0.9966377102659661,0.1512246254559017,0.3786511531612355,0.1580717713657245,0.6466687476109444
450,25.84,25.48,-0.67,0.0035410320614147014,0.996376565423072,0.14997558979282538,0.38122522412821064,0.15654925023029806,0.6492342404019912
451,25.882,25.53,-0.69,0.003818853916900549,0.9960983982717584,0.14872025628671143,0.3838094635355753,0.15502124615989107,0.651791304746991
452,25.963,25.59,-0.7,0.00411420192831107,0.9958027303371615,0.14745883115336794,0.38640379747837,0.15348806488544495,0.6543401653101335
453,26.004,25.64,-0.67,0.00442755290683668,0.9954890860905158,0.14619152709573244,0.389008142841886,0.15195002047835193,0.6568810485192543
454,26.105,25.7,-0.68,0.004759380186171667,0.9951569934615748,0.14491856315279938,0.3916224074250805,0.15040743518677038,0.6594141822683341
455,26.147,25.75,-0.69,0.005110153104622741,0.9948059843549364,0.1436401645455812,0.39424649007046475,0.14886063926924684,0.6619397956174874
456,26.168,25.81,-0.68,0.005480336483760492,0.9944355951698655,0.1423565625206555,0.3968802807996499,0.14730997082597372,0.6644581184908462
457,26.229,25.86,-0.69,0.005870390104046156,0.9940453673231806,0.14106799419187127,0.3995236609537886,0.1457557756280461,0.6669693813727195
458,26.27,25.92,-0.71,0.006280768177879073,0.993634847774771,0.13977470238079837,0.4021765033382698,0.14419840694511243,0.6694738150024169
459,26.332,25.98,-0.71,0.0067119188205205585,0.9932035895552872,0.13847693545650552,0.40483867237116067,0.1426382253718321,0.6719716500681718
460,26.395,26.03,-0.71,0.007164283519356536,0.9927511522955507,0.1371749471752593,0.40751002423499555,0.14107559865356165,0.6744631169006695
461,26.479,26.08,-0.74,0.0076382966019638765,0.9922771027572151,0.13586899652075243,0.41019040703156706,0.13951090151169182,0.6769484451667505
462,26.5,26.14,-0.76,0.008134384703446362,0.9917810153642195,0.1345593475454611,0.4128796609394263,0.13794451546904568,0.6794278635639018
463,26.563,26.19,-0.75,0.008652966233509035,0.9912624727345614,0.13324626921368377,0.41557761837386015,0.13637682867572268,0.6819015995161504
464,26.605,26.25,-0.77,0.009194450843744586,0.9907210662119194,0.1319300352467227,0.41828410414916867,0.13480823573573353,0.6843698788719257
465,26.667,26.3,-0.78,0.009759238895612643,0.9901563963966439,0.1306109239705527,0.4209989356430861,0.1332391375347154,0.6868329256044132
466,26.729,26.36,-0.77,0.010347720929601286,0.9895680736756254,0.1292892181662006,0.4237219229631722,0.13166994106896304,0.6892909615148336
467,26.772,26.41,-0.77,0.010960277136070222,0.9889557187505418,0.1279652049229791,0.42645286911493874,0.13010105927596752,0.6917442059390243
468,26.835,26.47,-0.79,0.011597276828287097,0.9883189631639729,0.12663917549468534,0.4291915701714105,0.1285329108666247,0.6941928754576646
469,26.898,26.52,-0.78,0.012259077918181968,0.9876574498228552,0.12531142515886098,0.43193781544382076,0.12696592015925656,0.6966371836104946
470,26.961,26.58,-0.78,0.012946026395357132,0.9869708335187395,0.12398225307919743,0.434691387653244,0.1254005169155832,0.6990773406149076
471,26.982,26.64,-0.8,0.013658455809900803,0.9862587814443005,0.1226519621711476,0.43745206310310114,0.12383713617878092,0.7015135530893213
472,27.044,26.69,-0.82,0.014396686759564396,0.9855209737055385,0.12132085897077646,0.4402196118526012,0.12227621811375994,0.7039460237817454
473,27.105,26.75,-0.82,0.015161026381874936,0.9847571038290982,0.11998925350684458,0.4429937978912726,0.12071820784978814,0.7063749513039593
474,27.208,26.8,-0.85,0.01595176785176667,0.9839668792641205,0.11865745917607781,0.44577437931473796,0.1191635553255655,0.7088005298716697
475,27.25,26.85,-0.87,0.01676918988532781,0.9831500218780296,0.11732579262153466,0.44856110850179265,0.1176127151368049,0.7112229490509869
476,27.27,26.91,-0.85,0.01761355625026815,0.9823062684456474,0.11599457361393126,0.45135373229269954,0.11606614638630344,0.7136423935115168
477,27.331,26.96,-0.85,0.018485115283721047,0.9814353711310224,0.11466412493572534,0.45415199216845165,0.11452431253640506,0.716059042786323
478,27.372,27.02,-0.86,0.019384099418000303,0.9805370979613492,0.11333477226770115,0.45695562443061677,0.11298768126367147,0.7184730710389775
479,27.454,27.07,-0.86,0.020310724714939186,0.9796112332923483,0.11200684407773857,0.45976436038133595,0.11145672431551616,0.7208846468379022
480,27.515,27.13,-0.84,0.02126519040944546,0.9786575782644757,0.11068067151141545,0.46257792650308904,0.10993191736853175,0.7232939329381838
481,27.578,27.18,-0.86,0.02224767846291055,0.9776759512493175,0.10935658828409184,0.46539604463792733,0.10841373988824311,0.72570108607104
482,27.599,27.24,-0.88,0.02325835312711418,0.9766661882855304,0.10803493057413609,0.46821843216597686,0.10690267499003145,0.7281062567411113
483,27.661,27.3,-0.86,0.024297360519268885,0.9756281435036814,0.10671603691695908,0.47104480218310635,0.10539920930098942,0.730509589031726
484,27.703,27.35,-0.89,0.025364828208855484,0.9745616895393376,0.10540024809953343,0.4738748636776674,0.1039038328224717,0.7329112204182516
485,27.765,27.41,-0.91,0.026460864816909437,0.9734667179337426,0.10408790705508852,0.4767083217061454,0.10241703879308682,0.735311281589596
486,27.827,27.46,-0.92,0.027585559628425536,0.972343139521419,0.10277935875767827,0.4795448775674665,0.1009393235518431,0.7377098962778817
487,27.952,27.51,-0.94,0.02873898221855264,0.9711908848040219,0.10147495011629797,0.48238422897562416,0.09947118640110962,0.7401071810962582
488,27.973,27.57,-0.96,0.02992118209325252,0.9700099043097695,0.10017502986817745,0.4852260702302513,0.09801312946897685,0.742503245384774
489,27.993,27.62,-0.96,0.031132188345099007,0.9688001689377796,0.09887994847077963,0.48807009238479615,0.09656565757050059,0.7448981910642236
490,28.034,27.68,-0.93,0.032372009324895056,0.9675616702866268,0.09759005799190655,0.49091598341205783,0.09512927806719754,0.7472921124979017
491,28.095,27.73,-0.93,0.03364063232978639,0.9662944209664462,0.09630571199720506,0.49376342836693227,0.09370450072405652,0.7496850963612302
492,28.137,27.79,-0.94,0.03493802330854989,0.9649984548939002,0.09502726543430648,0.49661210954626533,0.09229183756326258,0.7520772215192488
493,28.199,27.84,-0.91,0.03626412658473461,0.9636738275693266,0.09375507451284201,0.49946170664570333,0.0908918027138206,0.7544685589119513
494,28.261,27.9,-0.91,0.03761886459833453,0.9623206163353918,0.0924894965796406,0.5023118969133555,0.08950491225629753,0.7568591714474043
495,28.322,27.95,-0.92,0.039002137666673806,0.9609389206165572,0.0912308899885035,0.5051623552999729,0.08813168406195228,0.7592491139025468
496,28.363,28.01,-0.91,0.040413823765184216,0.9595288621386822,0.08997961396401766,0.5080127546052843,0.08677263762557792,0.7616384328315289
497,28.427,28.07,-0.91,0.04185377832875119,0.9580905851280799,0.0887360284589048,0.5108627656201411,0.08542829389143537,0.7640271664814319
498,28.53,28.12,-0.93,0.04332183407429767,0.9566242564893529,0.0875004940043965,0.5137120572642215,0.08409917507170027,0.7664153447152013
499,28.551,28.17,-0.94,0.04481780084526692,0.9551300659613446,0.0862733715530695,0.5165602967192252,0.08278580445686996,0.7688029889416682
500,28.591,28.23,-0.93,0.04634146547865485,0.9536082262505496,0.08505502231348204,0.5194071495576963,0.0814887062175823,0.7711901120525604
501,28.674,28.28,-0.94,0.047892591695231905,0.952058973141344,0.08384580757585969,0.5222522798677476,0.08020840519728524,0.7735767183664385
502,28.695,28.34,-0.93,0.04947092001358198,0.9504825655824017,0.08264608852800504,0.5250953503739855,0.07894542669516706,0.7759628035794962
503,28.757,28.39,-0.9,0.05107616768857428,0.9488792857486829,0.08145622606056635,0.527936022554841,0.07770029623873201,0.778348354723147
504,28.818,28.45,-0.89,0.05270802867487455,0.9472494390783854,0.08027658056082632,0.530773956756312,0.07647353934540516,0.7807333501282835
505,28.859,28.5,-0.9,0.05436617361609401,0.9455933542842583,0.07910751169426529,0.5336088123018797,0.07526568127257799,0.7831177593960823
506,28.921,28.56,-0.89,0.05605024986016578,0.943911383338689,0.07794937817328146,0.5364402475981889,0.07407724675557209,0.785501543375229
507,28.982,28.61,-0.88,0.05775988150152371,0.9422039014319887,0.07680253751258356,0.539267920236069,0.07290875973308854,0.7878846541454589
508,29.043,28.67,-0.89,0.05949466945063859,0.9404713069033186,0.07566734577089675,0.5420914870865424,0.07176074305980418,0.7902670350073553
509,29.084,28.73,-0.89,0.06125419153144183,0.9387140211437307,0.07454415727872524,0.5449106043916252,0.0706337182058594,0.7926486204784207
510,29.189,28.78,-0.87,0.06303800260714035,0.9369324884708181,0.07343332435199992,0.5477249278498948,0.06952820494305349,0.7950293362954849
511,29.21,28.83,-0.89,0.06484563473489904,0.9351271759744995,0.07233519699151711,0.5505341126969217,0.06844472101762268,0.797409099423541
512,29.252,28.89,-0.91,0.06667659734983848,0.9332985733334956,0.07125012256814355,0.5533378137806806,0.06738378180952513,0.7997878180710742
513,29.314,28.94,-0.9,0.06853037747876582,0.9314471926020784,0.07017844549381126,0.5561356856319936,0.06634589997819366,0.8021653917119017
514,29.355,29.0,-0.88,0.07040643998402625,0.9295735679667125,0.06912050687835349,0.5589273825299252,0.06533158509474501,0.8045417111134799
515,29.438,29.05,-0.89,0.07230422783783433,0.927678255472232,0.06807664417224928,0.5617125585619109,0.0643413432606433,0.8069166583716072
516,29.48,29.11,-0.87,0.07422316242741532,0.9257618327172287,0.0670471907953633,0.564490867678311,0.06337567671283037,0.8092901069514796
517,29.541,29.16,-0.85,0.0761626438912566,0.9238248985183549,0.06603247575183031,0.567261963741071,0.06243508341538081,0.8116619217351002
518,29.583,29.22,-0.86,0.0781220514867356,0.9218680725432797,0.06503282323136085,0.5700255005661803,0.06152005663781908,0.8140319590751082
519,29.624,29.27,-0.86,0.08010074398935688,0.9198919949120682,0.06404855219740521,0.5727811319596743,0.060631084520336186,0.8164000668551538
520,29.687,29.33,-0.83,0.08209806012379525,0.9178973257667897,0.06307997596276589,0.5755285117470121,0.05976864962626179,0.8187660845569716
521,29.811,29.39,-0.85,0.08411331902690793,0.915884744809195,0.0621274017533756,0.5782672937957399,0.05893322848226301,0.8211298433342769
522,29.853,29.44,-0.86,0.08614582074284145,0.9138549508063367,0.061191130261058914,0.5809971320314153,0.058125291106848956,0.8234911660935577
523,29.873,29.5,-0.86,0.08819484675031976,0.9118086610640529,0.06027145518616308,0.5837176804468556,0.05734530052785723,0.8258498675817596
524,29.915,29.55,-0.86,0.09025966052215728,0.9097466108682677,0.059368662770979644,0.5864285931049137,0.05659371228967318,0.8282057544807733
525,29.977,29.6,-0.88,0.09233950811699901,0.9076695528941119,0.05848303132488919,0.5891295241351545,0.055870973950989396,0.8305586255085882
526,30.038,29.66,-0.88,0.09443361880324928,0.9055782565829024,0.05761483074215384,0.5918201277249326,0.05517752457394282,0.8329082715269439
527,30.1,29.71,-0.85,0.09654120571511042,0.903473507487059,0.05676432201327435,0.5945000581054443,0.05451379420548631,0.8352544756552904
528,30.162,29.77,-0.86,0.09866146654061099,0.9013561065830848,0.05593175673082968,0.5971689695333435,0.05388020335187506,0.8375970133908466
529,30.183,29.82,-0.87,0.10079358424145989,0.899226869552768,0.05511737659073197,0.5998265162685638,0.053277162447185146,0.8399356527345314
530,30.244,29.88,-0.84,0.1029367278045172,0.8970866260328209,0.054321412889871856,0.6024723525490447,0.05270507131684341,0.8422701543225328
531,30.285,29.93,-0.85,0.105090053024628,0.894936218833207,0.05354408602119998,0.6051061325631317,0.05216431863722866,0.8446002715632751
532,30.348,29.99,-0.87,0.10725270331852271,0.8927765031244533,0.052785604967356445,0.6077275104205151,0.05165528139248387,0.8469257507795555
533,30.41,30.05,-0.86,0.10942381056944253,0.8906083455942889,0.052046166793982995,0.6103361401228095,0.05117832432976279,0.8492463313556231
534,30.452,30.1,-0.87,0.11160249600210283,0.8884326235739936,0.05132595614385389,0.6129316755351568,0.05073379941421702,0.8515617458889608
535,30.554,30.16,-0.9,0.11378787108755772,0.8862502241348944,0.05062514473298117,0.6155137703604279,0.05032204528509694,0.8538717203465118
536,30.575,30.21,-0.92,0.11597903847747787,0.884062043155492,0.04994389084988795,0.6180820781176626,0.04994338671438738,0.8561759742251297
537,30.614,30.26,-0.92,0.1181750929672998,0.8818689843597554,0.04928233885927377,0.6206362521263872,0.04959813406941707,0.8584742207160684
538,30.677,30.32,-0.94,0.12037512248765035,0.8796719583271801,0.04864061871130499,0.6231759454983903,0.0492865827808658,0.86076616687339
539,30.74,30.37,-0.96,0.12257820912339416,0.8774718814752553,0.048018845457749315,0.6257008111384532,0.04900901281755051,0.863051513786235
540,30.802,30.43,-0.92,0.12478343015959802,0.8752696750150412,0.047417118776149236,0.628210501755389,0.04876568816931247,0.8653299567549301
541,30.884,30.48,-0.93,0.12698985915365546,0.8730662638806117,0.04683552250322516,0.6307046698845448,0.04855685633927797,0.8676011854709305
542,30.904,30.54,-0.94,0.12919656703276905,0.8708625756331551,0.046274124178733174,0.6331829679227088,0.04838274784674531,0.8698648842005958
543,30.966,30.59,-0.93,0.13140262321594437,0.8686595393405734,0.0457329746010597,0.6356450481761925,0.04824357574196693,0.8721207319727755
544,31.008,30.65,-0.93,0.13360709675960708,0.8664580844334643,0.045212107395884715,0.6380905629227819,0.04813953513414761,0.8743684027701507
545,31.071,30.7,-0.95,0.13580905752591024,0.8642591395384094,0.04471153859925825,0.6405191644882442,0.04807080273403949,0.8766075657242421
546,31.154,30.76,-0.97,0.13800757737275512,0.8620636312895414,0.04423126625640445,0.6429305053381286,0.048037536412558125,0.8788378853139922
547,31.175,30.82,-0.96,0.14020173136450517,0.8598724831194037,0.04377127003752845,0.6453242381856683,0.04803987477687522,0.8810590215678282
548,31.258,30.87,-0.99,0.1423905990023277,0.8576866140301612,0.043331510871882646,0.647700016116598,0.04807793676544292,0.8832706302691371
549,31.278,30.92,-1.02,0.1445732654730543,0.8555069373462705,0.042911930601344864,0.6500574927316214,0.04815182126338047,0.8854723631650849
550,31.341,30.98,-1.02,0.1467488229154029,0.8533343594497584,0.04251245165476066,0.6523963223070419,0.04826160673960452,0.8876638681787337
551,31.381,31.03,-1.02,0.1489163717023614,0.8511697784993077,0.042132976744318845,0.6547161599736738,0.04840735090701055,0.8898447896243927
552,31.442,31.09,-1.01,0.1510750217384907,0.8490140831343873,0.04177338858524169,0.6570166619136761,0.04858909040692408,0.8920147684261432
553,31.505,31.14,-1.01,0.15322389377086387,0.846868151165706,0.04143354964003431,0.6592974855745952,0.04880684051896153,0.8941734423394424
554,31.546,31.2,-1.0,0.15536212071231947,0.8447328482533114,0.04111330188844474,0.6615582898997792,0.049060594897397475,0.8963204461757089
555,31.629,31.25,-1.01,0.1574888489756635,0.8426090265736943,0.04081246662418653,0.6637987355743759,0.049350325335139354,0.8984554120297443
556,31.691,31.31,-1.03,0.15960323981741584,0.8404975234773037,0.040530844279413294,0.6660184852862218,0.04967598155644445,0.9005779695098306
557,31.712,31.36,-1.02,0.16170447068966187,0.8383991601379088,0.04026821427792266,0.6682172040009927,0.05003749103954912,0.9026877459702992
558,31.775,31.42,-1.05,0.16379173659854038,0.836314740195279,0.04002433491809186,0.6703945592509484,0.050434758870396515,0.9047843667462879
559,31.836,31.48,-1.07,0.1658642514678714,0.8342450483926768,0.03979894328657575,0.6725502214364828,0.0508676676286333,0.9068674553903466
560,31.898,31.53,-1.08,0.16792124950640352,0.8321908492106871,0.03959175520380451,0.6746838641395559,0.051336077307009134,0.9089366339104888
561,31.981,31.58,-1.11,0.169961986577133,0.8301528854989322,0.039402465202298516,0.6767951644479495,0.051839825265242466,0.9109915230092694
562,32.002,31.64,-1.14,0.17198574156712443,0.8281318771072429,0.039230746538764065,0.67888380328921,0.05237872621931797,0.913031742323487
563,32.064,31.69,-1.14,0.17399181775624015,0.82612851951788,0.03907625124082869,0.680949465773176,0.052952572267049774,0.9150569106641756
564,32.105,31.75,-1.13,0.1759795441831589,0.8241434824804273,0.038938610189134956,0.6829918415420848,0.05356113295059185,0.9170666462566126
565,32.167,31.8,-1.14,0.17794827700704066,0.8221774086509966,0.03881743323537404,0.6850106251273289,0.054204155356422916,0.919060566980142
566,32.229,31.86,-1.14,0.1798974008631627,0.8202309122374212,0.03871230935673032,0.6870055163119376,0.05488136425319798,0.9210382906076573
567,32.271,31.91,-1.12,0.18182633021082217,0.8183045776521406,0.038622806847134206,0.6889762204978099,0.055592462267761295,0.9229994350446168
568,32.374,31.97,-1.13,0.18373451067176996,0.8163989581745105,0.03854847354568457,0.6909224490766495,0.05633713009956025,0.9249436185674532
569,32.394,32.03,-1.15,0.18562142035741097,0.8145145746243,0.03848883710257516,0.6928439198034745,0.05711502677366572,0.9268704600612208
570,32.477,32.08,-1.14,0.18748657118297768,0.8126519140481717,0.03844340528280794,0.694740357171589,0.0579257899325753,0.9287795792562874
571,32.498,32.14,-1.14,0.18932951016684932,0.8108114284209632,0.03841166630789848,0.6966114927879921,0.05876903616694199,0.9306705969638515
572,32.539,32.19,-1.18,0.1911498207131497,0.8089935333636423,0.03839308923568857,0.698457065748318,0.05964436138531232,0.9325431353100785
573,32.601,32.25,-1.2,0.19294712387570467,0.8071986068798466,0.03838712437827818,0.700276823010529,0.06055134122288381,0.9343968179686846
574,32.662,32.3,-1.2,0.1947210796013768,0.8054269881129937,0.03839320375796814,0.702070519766704,0.06148953148920425,0.9362312703918413
575,32.723,32.35,-1.22,0.19647138795071736,0.803678976126017,0.03841074160096674,0.7038379198123953,0.06245846865462182,0.938046120039311
576,32.784,32.41,-1.23,0.1981977902937877,0.8019548287058771,0.03843913486845697,0.7055787959130795,0.06345767037515018,0.9398409966057767
577,32.845,32.47,-1.2,0.19990007047890399,0.8002547611950944,0.038477763824464696,0.7072929301672378,0.06448663605525308,0.9416155322463465
578,32.866,32.52,-1.2,0.20157805597195147,0.7985789453526613,0.03852599263984605,0.7089801143654754,0.06554484744790226,0.9433693618001989
579,32.928,32.58,-1.21,0.2032316189638,0.7969275082467989,0.03858317003164878,0.7106401503449097,0.06663176929114327,0.9451021230122868
580,32.991,32.63,-1.18,0.20486067744324102,0.7953005311821482,0.03864862993709266,0.7122728503378898,0.06774684998032489,0.9468134567529899
581,33.134,32.69,-1.17,0.2064651962327577,0.7936980486640788,0.038721692221452025,0.7138780373139753,0.06888952227510671,0.9485030072355863
582,33.155,32.74,-1.17,0.20804518798435087,0.7921200474029013,0.03880166341918889,0.7154555453140249,0.0700592040403301,0.9501704222314452
583,33.177,32.8,-1.18,0.20960071413256226,0.7905664653608399,0.03888783750775548,0.7170052197752137,0.07125529901981693,0.9518153532828894
584,33.198,32.85,-1.16,0.2111318858017785,0.7890371908446842,0.03897949671355186,0.7185269178457873,0.07247719764214759,0.9534374559136943
585,33.262,32.91,-1.18,0.2126388646648529,0.7875320616470847,0.0390759123495886,0.7200205086883145,0.07372427785745696,0.9550363898372007
586,33.323,32.96,-1.2,0.2141218637500532,0.7860508642394851,0.03917634568445669,0.7214858737701002,0.0749959060042508,0.9566118191619969
587,33.386,33.02,-1.18,0.21558114819332588,0.7845933330196986,0.03928004884223423,0.7229229071392717,0.07629143770519224,0.9581634125950981
588,33.467,33.07,-1.18,0.2170170359328668,0.7831591496171405,0.03938626573295878,0.7243315156849016,0.07761021879073048,0.9596908436424875
589,33.488,33.13,-1.19,0.21842989834300125,0.7817479422587141,0.03949423301325542,0.7257116193793913,0.078951586249347,0.9611937908068371
590,33.53,33.18,-1.17,0.21982016080440006,0.7803592851983205,0.03960318107662956,0.7270631515012889,0.0803148692030975,0.9626719377821935
591,33.591,33.24,-1.15,0.221188303207695,0.7789926982129317,0.039712335072829084,0.7283860588367702,0.08169938990704827,0.9641249736454031
592,33.653,33.29,-1.15,0.22253486038759854,0.7776476461681224,0.03982091595558472,0.7296803018581476,0.08310446477115423,0.9655525930440801
593,33.714,33.35,-1.15,0.22386042248469779,0.7763235386558914,0.039928141557965514,0.7309458548779626,0.0845294054030914,0.9669544963809813
594,33.775,33.4,-1.12,0.225165635232183,0.7750197297075127,0.04003322769455031,0.7321827061774131,0.08597351967054805,0.9683303899946918
595,33.836,33.46,-1.13,0.22645120016489792,0.7737355175840316,0.0401353892896196,0.7333908581079708,0.08743611278147828,0.9696799863365704
596,33.877,33.51,-1.14,0.2277178747482485,0.7724701446468694,0.04023384153058891,0.7345703271650644,0.08891648838081248,0.9710030041438978
597,33.959,33.57,-1.13,0.22896647242466525,0.7712227973108418,0.04032780104590314,0.7357211440326532,0.09041394966209594,0.9722991686091876
598,33.98,33.62,-1.13,0.23019786257547398,0.7699926060817379,0.04041648710657169,0.7368433535974894,0.0919278004924928,0.9735682115456225
599,34.042,33.67,-1.15,0.23141297039619554,0.7687786456804395,0.04049912285041697,0.7379370149320393,0.09345734654953489,0.9748098715485863
600,34.084,33.73,-1.14,0.23261277668346728,0.7675799352553875,0.04057493652790022,0.7390022012455179,0.09500189646792725,0.9760238941533103
601,34.147,33.78,-1.11,0.2337983175319496,0.7663954386850331,0.04064316276811523,0.74003899980322,0.09656076299465274,0.9772100319886557
602,34.189,33.84,-1.11,0.23497068393975917,0.7652240649717362,0.04070304386328838,0.7410475118149545,0.09813326415054231,0.9783680449271053
603,34.272,33.9,-1.1,0.23613102132113764,0.7640646687283994,0.04075383106994732,0.7420278522937486,0.09971872439641785,0.979497700231036
604,34.312,33.95,-1.06,0.23728052892525112,0.7629160507589463,0.040794785924822975,0.7429801498861367,0.10131647580187901,0.9805987726953481
605,34.394,34.01,-1.06,0.2384204591602027,0.7617769587335651,0.04082518157351788,0.7439045466753532,0.1029258592148054,0.9816710447864692
606,34.414,34.06,-1.07,0.23955211682153357,0.760646087959438,0.04084430410998084,0.744801197958675,0.10454622542966581,0.9827143067776957
607,34.476,34.12,-1.04,0.240676858224682,0.7595220822474937,0.04085145392484821,0.7456702720000629,0.10617693635276067,0.9837283568807386
608,34.557,34.17,-1.04,0.24179609024105378,0.7584035348755285,0.040845947060738276,0.7465119497591175,0.10781736616255601,0.9847130013732615
609,34.578,34.23,-1.06,0.2429112692375445,0.7572889896478556,0.040827116572609345,0.7473264245972293,0.10946690246328673,0.985668054722151
610,34.64,34.28,-1.05,0.244023899919541,0.7561769420514589,0.04079431389128756,0.7481139019617145,0.11112494743001074,0.9865933397022547
611,34.701,34.34,-1.05,0.24513553407762143,0.7550658405084314,0.0407469101882213,0.748874599048747,0.11279091894328115,0.9874886875103431
612,34.742,34.39,-1.05,0.24624776923836575,0.7539540877242893,0.04068429773941501,0.7496087444460038,0.11446425171156693,0.9883539378740949
613,34.804,34.45,-1.04,0.2473622472198897,0.7528400421315512,0.04060589128633564,0.7503165777560912,0.11614439837949463,0.9891889391559265
614,34.865,34.5,-1.0,0.2484806525929256,0.751722019427761,0.04051112939139592,0.7509983492019525,0.11783083061992147,0.9899935484514988
615,34.948,34.56,-0.98,0.2496047110484971,0.7505982942069134,0.04039947578545278,0.7516543192154701,0.11952304020780474,0.9907676316826846
616,34.968,34.61,-0.98,0.25073618767347317,0.7494671016829951,0.040270420704637,0.7522847580104053,0.12122054007382237,0.991511063684737
617,35.03,34.67,-0.95,0.25187688513553247,0.7483266395041186,0.040123482213748445,0.7528899451407464,0.12292286533573855,0.9922237282873354
618,35.072,34.72,-0.94,0.2530286417793177,0.747175069655467,0.03995820751340896,0.7534701690455016,0.1246295743055858,0.992905518389134
619,35.133,34.78,-0.94,0.2541933296358039,0.7460105204490326,0.03977417422815515,0.7540257265809844,0.1263402494708202,0.9935563360254199
620,35.196,34.83,-0.93,0.2553728523471429,0.7448310885978878,0.039570991672651386,0.754556922541727,0.12805449844768435,0.9941760924285269
621,35.299,34.89,-0.91,0.25656914300947375,0.7436348413724991,0.0393483020932052,0.7550640691712892,0.1297719549050736,0.9947647080807189
622,35.321,34.94,-0.92,0.25778416193640574,0.7424198188363846,0.03910578188178612,0.7555474856643387,0.13149227945725028,0.9953221127593261
623,35.362,35.0,-0.93,0.25901989434607997,0.7411840361582044,0.038843142759782984,0.7560074976614318,0.1332151605237825,0.9958482455739722
624,35.425,35.05,-0.9,0.26027834797490723,0.7399254859971908,0.03856013292877985,0.7564444367378929,0.13494031515510743,0.9963430549957462
625,35.487,35.1,-0.9,0.2615615506212586,0.7386421409586384,0.03825653818568617,0.7568586398880424,0.1366674898221282,0.9968064988781397
626,35.55,35.16,-0.9,0.26287154762256526,0.7373319561160009,0.03793218299961228,0.7572504490057871,0.13839646116824805,0.9972385444695469
627,35.571,35.22,-0.86,0.26421039926944323,0.7359928715959773,0.037586931547922454,0.7576202103623676,0.14012703672223983,0.9976391684170873
628,35.697,35.27,-0.84,0.2655801781606142,0.7346228152228194,0.037220688708948825,0.7579682740819126,0.14185905557036385,0.9980083567615173
629,35.719,35.33,-0.83,0.2669829665025348,0.7332197052179489,0.036833401008935306,0.7582949936154011,0.14359238898619017,0.9983461049230288
630,35.76,35.38,-0.81,0.2684208533577839,0.731781452950836,0.03642505752089328,0.7586007252136885,0.14532694101666044,0.9986524176777997
631,35.802,35.44,-0.77,0.2698959318463891,0.7303059657369594,0.03599569071317452,0.7588858274003993,0.1470626490230295,0.9989273091252167
632,35.864,35.49,-0.78,0.2714102963044056,0.7287911496785361,0.03554537724569881,0.7591506604456173,0.1487994841754487,0.9991708026457143
633,35.927,35.55,-0.78,0.2729660394041813,0.7272349125435867,0.03507423871190388,0.759395585841382,0.1505374519000751,0.9993829308491654
634,35.97,35.6,-0.76,0.27456524924086995,0.7256351666787755,0.034582442324602884,0.7596209657799986,0.1522765922777114,0.9995637355137181
635,36.032,35.66,-0.76,0.2762100063898749,0.7239898319513463,0.03407020154403175,0.7598271626360992,0.15401698039307915,0.9997132675149261
636,36.074,35.71,-0.79,0.27790238094002834,0.7222968387153508,0.03353777664643557,0.7600145384532766,0.15575872663390297,0.9998315867449827
637,36.116,35.77,-0.78,0.27964442950742013,0.7205541307972555,0.032985475231575016,0.7601834544360229,0.15750197693902773,0.999918762021876
638,36.2,35.82,-0.76,0.2814381922348854,0.718759668495923,0.03241365266754604,0.7603342704476505,0.1592469129948148,0.9999748709882734
639,36.22,35.88,-0.75,0.28328568978223556,0.716911431591882,0.031822712471311757,0.7604673445148484,0.16099375237906155,1.0
640,36.283,35.93,-0.74,0.2851889203123661,0.7150074223607539,0.03121310662334581,0.7605830323395477,0.16274274865168006,0.9999942440040344
641,36.389,35.99,-0.7,0.2871498564784109,0.7130456685856704,0.03058533581480229,0.7606816868188272,0.16449419139138777,0.9999577064060033
642,36.41,36.04,-0.7,0.28917044241711676,0.7110242265635074,0.029939949625687405,0.7607636575736308,0.1662484061777255,0.9998904989271908
643,36.451,36.1,-0.7,0.2912525907536041,0.7089411840997736,0.029277546632618556,0.7608292904870672,0.1680057545178199,0.9997927414510661
644,36.514,36.15,-0.67,0.2933981796226544,0.7067946634870195,0.028598774444907674,0.7608789272529848,0.16976663371742917,0.9996645618593047
645,36.577,36.21,-0.67,0.29560904971162594,0.7045828244616622,0.027904329667890384,0.7609129049354131,0.17153147669593247,0.9995060958572489
646,36.62,36.26,-0.69,0.29788700133004076,0.7023038671341916,0.027194957792616475,0.7609315555393166,0.17330075174502568,0.9993174867887367
647,36.682,36.32,-0.68,0.3002337915108015,0.6999560348877989,0.02647145301118627,0.7609352055930468,0.17507496223097463,0.9990988854402748
648,36.765,36.37,-0.67,0.3026511311478828,0.6975376172405837,0.025734657957148934,0.7609241757428807,0.17685464624034877,0.9988504498345433
649,36.787,36.42,-0.67,0.3051406821752276,0.6950469526666145,0.02498546337047583,0.760898780360087,0.17864037616920722,0.9985723450133016
650,36.828,36.48,-0.66,0.30770405479146956,0.6924824313712176,0.024224807686680446,0.7608593271610388,0.18043275825573404,0.9982647428098474
651,36.891,36.53,-0.61,0.3103428047350067,0.6898424980159732,0.023453676549684135,0.7608061168409693,0.18223243205634138,0.9979278216112443
652,36.953,36.59,-0.61,0.31305843061386257,0.6871256543889798,0.0226731022480667,0.7607394427219917,0.18404006986530178,0.9975617661105554
653,36.995,36.65,-0.61,0.3158523712946835,0.6843304620160358,0.02188416307443077,0.7606595904159529,0.18585637607805336,0.9971667670492864
654,37.057,36.7,-0.58,0.318726003355127,0.6814555447084808,0.021087982607754727,0.7605668375026111,0.1876820864984409,0.9967430209501876
655,37.139,36.76,-0.58,0.32168063860380147,0.6784995910435374,0.02028572891878602,0.760461453223534,0.18951796759029912,0.9962907298404975
656,37.16,36.81,-0.59,0.32471752167181495,0.6754613567730876,0.019478613698694004,0.7603436981920818,0.1913648156739152,0.9958101009657152
657,37.222,36.87,-0.58,0.32783782767988173,0.6723396671569389,0.018667891311328875,0.7602138241199182,0.19322345606801308,0.9953013464940449
658,37.282,36.92,-0.57,0.3310426599848173,0.6691334192167425,0.017854857769521944,0.7600720735606605,0.19509474217799558,0.9947646832117449
659,37.344,36.98,-0.58,0.33433304800912345,0.6658415839068639,0.017040849635927165,0.7599186796715,0.19697955453125268,0.994200332209712
660,37.386,37.03,-0.59,0.33770994515722663,0.662463208198637,0.016227242848943835,0.7597538659938353,0.19887879976040715,0.9936085185617313
661,37.49,37.09,-0.57,0.3411742268217923,0.6589974170745787,0.01541545147427695,0.7595778462541408,0.20079340953541258,0.9929894709948724
662,37.532,37.14,-0.57,0.34472668848339094,0.6554434154292869,0.01460692638270069,0.7593908241863625,0.20272433944545848,0.9923434215525342
663,37.554,37.2,-0.58,0.3483680439066428,0.6518004898738906,0.013803153854609515,0.7591929933770794,0.20467256783166085,0.9916706052505904
664,37.615,37.25,-0.55,0.35209892343581217,0.6480680104410792,0.013005654111982715,0.7589845371345102,0.20663909457155105,0.990971259727056
665,37.678,37.31,-0.54,0.35591987239265904,0.6442454321878986,0.012215979778463644,0.7587656283822658,0.2086249398164209,0.9902456248856464
666,37.739,37.36,-0.54,0.3598313495791864,0.6403322966936723,0.011435714268356913,0.7585364295786353,0.21063114268264374,0.989493942533646
667,37.802,37.42,-0.53,0.3638337258877511,0.6363282334505778,0.010666470105456724,0.7582970926622283,0.21265875989816546,0.9887164560145892
668,37.883,37.47,-0.51,0.36792728302082256,0.6322329611445883,0.009909887172740488,0.7580477590249225,0.21470886440544837,0.9879134098363578
669,37.904,37.53,-0.52,0.3721122123224899,0.6280462888246806,0.009167630894112698,0.7577885595131821,0.216782543922241,0.9870850492954001
670,37.945,37.58,-0.53,0.3763886137236291,0.623768116958391,0.008441390349572597,0.7575196144588577,0.21888089946163727,0.9862316200978537
671,37.985,37.64,-0.5,0.3807564948024618,0.6193984383719907,0.0077328763253958375,0.7572410337405029,0.22100504381297775,0.9853533679784062
672,38.047,37.69,-0.53,0.38521576996205814,0.6149373390737257,0.0070438193011497195,0.7569529168760822,0.22315609998522137,0.9844505383177324
673,38.129,37.75,-0.54,0.38976625972616685,0.6103849989587324,0.006375967375577769,0.7566553531476589,0.22533519961447357,0.9835233757593288
674,38.17,37.8,-0.52,0.3944076901545867,0.6057416923944211,0.005731084133578787,0.7563484217582738,0.22754348133738886,0.9825721238265364
675,38.231,37.85,-0.5,0.3991396923791229,0.6010077886852735,0.00511094645667918,0.7560321920207563,0.22978208913218365,0.9815970245405062
676,38.272,37.91,-0.51,0.4039618022610093,0.5961837524161749,0.004517342279564442,0.7557067235777258,0.23205217062900269,0.980598318039868
677,38.313,37.97,-0.49,0.4088734601705171,0.5912701436735571,0.003952068295397927,0.7553720666516853,0.23435487539140665,0.9795762422029071
678,38.375,38.02,-0.45,0.4138740108893143,0.5862676181437818,0.0034169276128318974,0.7550282623239326,0.2366913531708009,0.978531032273138
679,38.436,38.08,-0.46,0.4189627036359877,0.5811769270883539,0.0029137273678157103,0.7546753428409454,0.23906275213570913,0.9774629204892432
680,38.499,38.13,-0.47,0.4241386922149837,0.5759989171957007,0.0024442762935008703,0.7543133319469097,0.24147021707789737,0.976372135720418
681,38.54,38.19,-0.43,0.4294010352890731,0.5707345303094137,0.002010382251712412,0.7539422452411326,0.2439148875974667,0.9752589031081724
682,38.601,38.24,-0.44,0.4347486967752911,0.5653848030329969,0.0016138497296147231,0.7535620905591388,0.24639789626914635,0.9741234437156171
683,38.664,38.3,-0.45,0.44018054636415627,0.559950866211319,0.0012564773053519672,0.753172868376258,0.2489203667921171,0.9729659741852289
684,38.706,38.35,-0.45,0.44569536016182154,0.5544339442891136,0.0009400550865710482,0.7527745722324717,0.2514834121257766,0.9717867064060639
685,38.768,38.41,-0.46,0.45129182145465924,0.5488353545470263,0.0006663621258286269,0.7523671891772584,0.2540881326139212,0.9705858471913642
686,38.808,38.46,-0.47,0.45696852159562884,0.5431565062158558,0.00043716381693703453,0.7519507002331642,0.25673561409986034,0.9693635979674741
687,38.871,38.52,-0.46,0.4627239610116202,0.5373988994698015,0.0002542092763101981,0.7515250808768812,0.25942692603498674,0.9681201544749851
688,38.975,38.57,-0.43,0.46855655033081045,0.5315641242996728,0.00011922871333967253,0.7510903015367392,0.26216311958332156,0.966855706483042
689,38.996,38.63,-0.43,0.47446461162891257,0.525653859267186,3.393079377416056e-05,0.7506463281056623,0.26494522572454826,0.9655704375177451
690,39.037,38.68,-0.43,0.4804463797930458,0.5196698701416163,0.0,0.7501931224688071,0.26777425335806704,0.9642645246055934
691,39.099,38.74,-0.39,0.4865000040018085,0.513614008420226,1.9093992063235054e-05,0.7497306430452044,0.2706511874106549,0.9629381380328441
692,39.14,38.79,-0.4,0.49262354932000824,0.5074882097340139,9.284097329050596e-05,0.7492588453426886,0.2735769869504015,0.9615914411215647
693,39.203,38.85,-0.41,0.49881499840637267,0.5012944921404617,0.00022283706444973053,0.7487776825252268,0.2765525833096777,0.9602245900230212
694,39.286,38.9,-0.41,0.5050722533324365,0.4950349543050868,0.00041064369047442187,0.748287105991583,0.2795788782199837,0.9588377335289145
695,39.349,38.96,-0.41,0.5113931375106523,0.4887117735737496,0.0006577849838104452,0.7477870659641718,0.28265674196159046,0.9574310129008736
696,39.389,39.01,-0.44,0.5177753977296096,0.4823272039378354,0.0009657452084287633,0.7472775120869358,0.2857870115309352,0.9560045617185381
697,39.429,39.07,-0.46,0.5242167062940688,0.47588357389460173,0.0013359662084984568,0.7467583940311244,0.2889704888287343,0.9545585057465504
698,39.47,39.12,-0.44,0.5307146632673241,0.46938328420517705,0.0017698448856521747,0.7462296621078589,0.29220793887175656,0.9530929628207664
699,39.531,39.17,-0.46,0.5372667988132045,0.4628288055528994,0.002268730708708623,0.7456912678863351,0.2955000880311416,0.9516080427540015
700,39.614,39.23,-0.47,0.5438705756348111,0.4562226761048967,0.00283392325963774,0.7451431648164262,0.29884762230006173,0.9501038472616125
701,39.717,39.28,-0.45,0.5505233915068586,0.44956749898003734,0.0034666698194749444,0.744585308854343,0.3022511855934407,0.948580469907151
702,39.738,39.34,-0.45,0.557222581898257,0.44286593962661114,0.0041681629978430135,0.7440176590898884,0.3057113780823673,0.9470379960682133
703,39.779,39.4,-0.47,0.5639654226813341,0.4361207231133413,0.004939538409731066,0.743440178373701,0.30922875456578375,0.9454765029225021
704,39.8,39.45,-0.45,0.570749132923853,0.42933463133756944,0.0057818724032018,0.7428528339427969,0.3128038228819898,0.9438960594539724
705,39.862,39.51,-0.45,0.5775708777597388,0.42251050015469965,0.006696179841756538,0.7422555980426176,0.31643704236248305,0.9422967264788081
706,39.924,39.56,-0.48,0.5844277713341923,0.415651216433221,0.007683411945184681,0.7416484485437085,0.3201288223306284,0.9406785566908343
707,39.965,39.62,-0.5,0.5913168798186357,0.4087597150398599,0.008744454192820682,0.7410313695510965,0.32387952064761805,0.9390415947258681
708,40.088,39.67,-0.5,0.5982352244907069,0.4018389757596442,0.009880124293186219,0.7404043520044706,0.3276894423081206,0.9373858772444558
709,40.108,39.73,-0.52,0.6051797848742951,0.39489202015588254,0.01109117022399782,0.7397673942673247,0.331558838087926,0.9357114330324142
710,40.15,39.78,-0.53,0.6121475019343809,0.38792190837529317,0.012378268346480654,0.7391205027032617,0.33548790324576416,0.9340182831186247
711,40.19,39.84,-0.49,0.6191352813212317,0.3809317359037279,0.013742021597862072,0.7384636922376623,0.33947677628132344,0.9323064409095335
712,40.252,39.89,-0.47,0.62613999665831,0.3739246302781301,0.015182957765835866,0.7377969869029094,0.3435255377513597,0.9305759123398523
713,40.314,39.95,-0.47,0.6331584928681022,0.36690374776051393,0.01670152784868958,0.7371204203653711,0.3476342091456742,0.9288266960389836
714,40.375,40.0,-0.46,0.6401875895299721,0.35987226997985816,0.01829810450467592,0.7364340364324781,0.3518027518246964,0.9270587835127382
715,40.436,40.06,-0.43,0.6472240842640717,0.35283340054787377,0.019972980594105336,0.7357378895384482,0.35603106602040074,0.9252721593399462
716,40.476,40.11,-0.43,0.6542647561353072,0.3457903616546491,0.021726367817558476,0.7350320452074767,0.36031898990231215,0.9234668013835964
717,40.538,40.17,-0.42,0.6613063690713396,0.3387463906501845,0.023558395453561292,0.7343165804934658,0.3646662987103669,0.921642681016196
718,40.579,40.22,-0.39,0.668345675288631,0.3317047366178034,0.025469109199030202,0.733591584395597,0.36907270395640585,0.9197997633590892
719,40.641,40.28,-0.41,0.6753794187206085,0.32466865694536545,0.027458470115776793,0.7328571582491981,0.37353785269609513,0.9179380075354929
720,40.682,40.33,-0.42,0.6824043384421142,0.3176414139001053,0.0295263536863445,0.7321134160913955,0.37806132687307675,0.9160573669370333
721,40.744,40.39,-0.38,0.6894171720844487,0.31062627121279074,0.031672548982410544,0.7313604850010171,0.38264264273715104,0.9141577895035823
722,40.805,40.44,-0.39,0.6964146592354684,0.30362649067672937,0.03389675794890385,0.7305985054121324,0.38728125033826505,0.9122392180162148
723,40.888,40.5,-0.4,0.703393544819384,0.2966453287669772,0.036198594806835134,0.729827631400565,0.3919765330980295,0.9103015904030893
724,40.908,40.55,-0.38,0.710350582451084,0.28968603328492143,0.038577585577593936,0.7290480309427384,0.39672780746043784,0.9083448400579522
725,40.968,40.6,-0.37,0.7172825377599765,0.2827518400332377,0.041033167731168996,0.7282598861463566,0.4015343226234151,0.9063688961708083
726,41.009,40.66,-0.38,0.7241861916785147,0.27584596952606055,0.04356468996044392,0.7274633934526081,0.40639526035277734,0.9043736840701759
727,41.07,40.72,-0.38,0.7310583436907335,0.268971623739035,0.04617141208344124,0.7266587638097911,0.4113097348801219,0.9023591255762946
728,41.172,40.77,-0.36,0.7378958150362861,0.2621319829037588,0.04885250507514528,0.7258462228184523,0.4162767928861115,0.9003251393646527
729,41.193,40.83,-0.38,0.744695451865632,0.2553302023509666,0.05160705123032478,0.725026010848262,0.42129541357053835,0.8982716413392181
730,41.235,40.88,-0.39,0.7514541283421605,0.24856940940667002,0.05443404445857181,0.7241983831269367,0.42636450881046956,0.8961985450147426
731,41.316,40.94,-0.38,0.7581687496871476,0.24185270034535933,0.05733239071254894,0.7233636098015881,0.43148292340767574,0.8941057619074888
732,41.337,40.99,-0.4,0.7648362551635296,0.23518313740427843,0.06030090855019375,0.7225219759729141,0.43664943542642737,0.8919932019336603
733,41.399,41.05,-0.42,0.7714536209945614,0.22856374586271552,0.06333832983138539,0.7216737817026361,0.4418627566226139,0.8898607738147885
734,41.46,41.1,-0.41,0.7780178632134798,0.2219975111901838,0.06644330054932424,0.720819341994577,0.4471215329649807,0.8877083854893131
735,41.543,41.16,-0.4,0.7845260404403603,0.21548737626731412,0.06961438179659916,0.7199589867498092,0.4524243452491039,0.8855359445296251
736,41.564,41.21,-0.43,0.7909752565824117,0.20903623868321652,0.07285005086561708,0.7190930606963931,0.4577697098045342,0.8833433585638791
737,41.626,41.27,-0.43,0.797362663454035,0.20264694811299178,0.07614870248275511,0.7182219232943576,0.4631560792953466,0.8811305357019614
738,41.688,41.32,-0.39,0.8036854633130762,0.19632230377897159,0.07950865017529797,0.7173459486167105,0.46858184361415856,0.8788973849650932
739,41.728,41.38,-0.4,0.8099409113098458,0.19006505199912507,0.08292812776997781,0.7164655252073644,0.47404533086950174,0.8766438167186638
740,41.789,41.43,-0.41,0.8161263178456425,0.18387788382590162,0.08640529102174932,0.7155810559168789,0.47954480846626746,0.8743697431080336
741,41.911,41.49,-0.39,0.8222390508377223,0.17776343277857973,0.08993821937128542,0.714692957716866,0.48507848427880346,0.8720750784971055
742,41.932,41.54,-0.39,0.8282765378878705,0.17172427267197463,0.09352491782955147,0.7138016614938006,0.49064450791610376,0.8697597399094726
743,41.952,41.6,-0.41,0.8342362683519631,0.16576291554412603,0.09716331898769859,0.7129076118228515,0.49624097207840423,0.8674236474719464
744,42.013,41.65,-0.42,0.840115795308141,0.15988180968535923,0.10085128515039339,0.7120112667222295,0.5018659140043331,0.8650667248602756
745,42.074,41.71,-0.41,0.845912737421455,0.154083337770872,0.10458661059056547,0.7111130973884893,0.5075173170075934,0.8626888997469112
746,42.116,41.76,-0.42,0.8516247807030697,0.1483698150987729,0.10836702392337569,0.7102135879131861,0.5131931121019502,0.8602901042507024
747,42.176,41.82,-0.41,0.8572496801623284,0.14274348793527805,0.11219019059695466,0.7093132349813234,0.518891179713074,0.8578702753884234
748,42.278,41.87,-0.36,0.8627852613501829,0.13720653196858018,0.11605371549712803,0.7084125475520919,0.5246093514755615,0.8554293555280047
749,42.299,41.92,-0.36,0.8682294217926702,0.13176105087271708,0.11995514566297995,0.7075120465224665,0.5303454121132414,0.852967292843261
750,42.339,41.98,-0.36,0.8735801323132902,0.12640907498259812,0.12389197310974882,0.706612264374233,0.5360971014006876,0.8504840417698045
751,42.4,42.03,-0.34,0.8788354382432807,0.12115256008119898,0.12786163775522905,0.7057137448049918,0.5418621162037283,0.8479795634616947
752,42.461,42.09,-0.32,0.8839934605189331,0.11599338629979258,0.13186153044559312,0.7048170423435894,0.5476381125966221,0.8454538262482331
753,42.503,42.15,-0.33,0.8890523966652375,0.1109333571319375,0.13588899607633578,0.7039227219502895,0.5534227080534642,0.8429068060902294
754,42.585,42.2,-0.32,0.8940105216653053,0.105974198561783,0.13994133680383644,0.7030313586019126,0.5592134837112536,0.8403384870350142
755,42.648,42.26,-0.3,0.8988661887152075,0.10111755830706318,0.1440158153428108,0.7021435368621808,0.5650079867019182,0.8377488616694783
756,42.668,42.31,-0.3,0.9036178298640541,0.09636500517695909,0.14810965834468642,0.7012598504375782,0.5708037325504293,0.8351379315703978
757,42.73,42.37,-0.29,0.9082639565393452,0.09171802854480834,0.1522200598516867,0.7003809017191222,0.5765982076359781,0.8325057077512881
758,42.771,42.42,-0.24,0.9128031599578161,0.08717803793544683,0.1563441848211617,0.6995073013104726,0.5823888717130157,0.8298522111049572
759,42.832,42.48,-0.22,0.9172341114222193,0.08274636272674839,0.16047917271449166,0.6986396675427312,0.5881731604888062,0.8271774728408348
760,42.914,42.53,-0.21,0.9215555625047079,0.07842425196470196,0.16462214114472967,0.6977786259761186,0.5939484882540099,0.824481534916043
761,42.935,42.59,-0.16,0.9257663451177371,0.0742128742911166,0.1687701895770455,0.6969248088885619,0.5997122505627185,0.8217644504590806
762,43.017,42.64,-0.14,0.9298653714736321,0.07011331798280632,0.17292040307599513,0.6960788547511029,0.6054618269583085,0.8190262841849184
763,43.059,42.7,-0.13,0.9338516339342116,0.06612659110087292,0.1770698560936589,0.6952414076899779,0.6111945837414501,0.8162671128002957
764,43.1,42.75,-0.11,0.937724204752078,0.06225362174847686,0.18121561629272767,0.6944131169352498,0.6169078767765693,0.8134870253980512
765,43.163,42.81,-0.07,0.9414822357054133,0.0584952584352592,0.1853547483986595,0.6935946362559597,0.6225990543330331,0.8106861238394089
766,43.246,42.86,-0.07,0.9451249576283447,0.054852270546347025,0.18948431807506969,0.6927866233818751,0.6282654599572771,0.8078645231232425
767,43.267,42.92,-0.08,0.9486516798391681,0.051325348913654,0.19360139581653063,0.6919897394119783,0.6339044353720349,0.8050223517414159
768,43.329,42.97,-0.03,0.9520617894689218,0.04791510648698502,0.19770306085292497,0.6912046482098932,0.6395133233987567,0.802159752019336
769,43.39,43.03,-0.0,0.9553547506929875,0.04462207910225997,0.20178640505941584,0.690432015786434,0.6450894708992267,0.7992768804408608
770,43.432,43.08,0.02,0.9585301038685886,0.04144672634398524,0.20584853686597893,0.6896725096694232,0.6506302317322916,0.7963739079567235
771,43.493,43.14,0.07,0.9615874645812377,0.03838943249892107,0.20988658516030637,0.6889267982609163,0.6561329697215312,0.7934510202756561
772,43.554,43.19,0.11,0.9645265226033413,0.03545050759773028,0.2138977031777963,0.6881955501820042,0.6615950616296677,0.7905084181374075
773,43.596,43.25,0.13,0.9673470407683232,0.03263018854124853,0.21787907237232046,0.6874794336054321,0.6670139001355144,0.7875463175668616
774,43.658,43.3,0.15,0.9700488537637466,0.029928640307885664,0.22182790626150725,0.686779115576388,0.6723868968093163,0.7845649501084915
775,43.741,43.35,0.2,0.9726318668470517,0.027345957238547047,0.2257414542403727,0.6860952613219443,0.677711485082391,0.7815645630404439
776,43.762,43.41,0.22,0.9750960544876309,0.02488216439534088,0.22961700535725305,0.6854285335497553,0.6829851232070362,0.7785454195676252
777,43.823,43.47,0.23,0.977441458939081,0.022537218990230076,0.23345189204611727,0.6847795917366869,0.6882052972027112,0.7755077989932492
778,43.886,43.52,0.26,0.9796681887455521,0.02031101187970092,0.23724349380945414,0.684149091408101,0.6933695237845316,0.7724519968683509
779,43.926,43.58,0.28,0.9817764171861914,0.018203369121447596,0.2409892408460584,0.6835376834085006,0.6984753532701538,0.7693783251187917
780,43.987,43.63,0.28,0.9837663806617429,0.016214053589002866,0.2446866176181958,0.6829460131641699,0.7035203724611364,0.7662871121492608
781,44.049,43.69,0.33,0.985638377027432,0.014342766640181054,0.24833316635277544,0.6823747199383786,0.7085022074948767,0.7631787029237869
782,44.131,43.74,0.37,0.987392763876319,0.012589149835143077,0.25192649047128357,0.6818244360797059,0.713418526663207,0.7600534590222808
783,44.152,43.8,0.39,0.9890299567773497,0.010952786699848751,0.2554642579433213,0.6812957862640557,0.718267043193749,0.7569117586726632
784,44.234,43.85,0.42,0.9905504274723645,0.009433204530630677,0.2589442045586918,0.6807893867309891,0.723045517990153,0.7537539967581756
785,44.277,43.91,0.48,0.9919547020363528,0.008029876235595139,0.26236413711310563,0.6803058445150751,0.7277517623274163,0.7505805847995111
786,44.318,43.96,0.51,0.9932433590052517,0.006742222208541045,0.26572193650274606,0.6798457566730153,0.7323836404985697,0.7473919509114441
787,44.381,44.02,0.52,0.9944170274755971,0.005569612231083462,0.26901556072314176,0.6794097095073138,0.7369390724091377,0.7441885397336844
788,44.53,44.07,0.57,0.9954763851803127,0.0045113673986884794,0.27224304776801184,0.6789982777872613,0.7414160361158996,0.7409708123357036
789,44.55,44.13,0.59,0.9964221565448947,0.0035667620663510356,0.2754025184239718,0.6786120239679923,0.7458125703066152,0.7377392460952833
790,44.571,44.18,0.58,0.9972551107282182,0.002735025809686481,0.27849217895719486,0.6782514974083791,0.750126776717508,0.7344943345505311
791,44.591,44.24,0.6,0.9979760596521321,0.0020153453972566525,0.2815103236883182,0.6779172335885699,0.7543568224854083,0.7312365872251345
792,44.652,44.29,0.63,0.9985858560239531,0.0014068667700177177,0.28445533745205104,0.6776097533280317,0.7585009424315475,0.7279665294266457
793,44.714,44.35,0.65,0.9990853913558929,0.0009086970238478548,0.28732569793810475,0.6773295620050234,0.7625574412740554,0.7246847020176449
794,44.795,44.4,0.66,0.9994755939853612,0.0005199063912066883,0.290119977910188,0.6770771487784715,0.7665246957662357,0.721391661159671
795,44.857,44.46,0.73,0.9997574271000048,0.00023953021806015964,0.2928368472999135,0.6768529858133145,0.7704011567577395,0.7180879780298542
796,44.878,44.51,0.75,0.9999318867712482,6.657093230194789e-05,0.2954750751725808,0.6766575275104495,0.7741853511758149,0.7147742385102044
797,44.919,44.57,0.77,1.0,0.0,0.29803353156196183,0.6764912097424712,0.7778758839239025,0.7114510428495593
798,44.981,44.62,0.82,0.9999628227780921,3.8759865901899885e-05,0.30051118917142056,0.6763544490964243,0.7814714396949758,0.708119005298244
799,45.043,44.67,0.85,0.999821438168895,0.0001817658747444112,0.3029071249389581,0.6762476421247642,0.7849707846971882,0.7047787537155209
800,45.084,44.73,0.85,0.9995769544104313,0.0004279081700464073,0.30522052146407,0.676171164605664,0.7883727682895554,0.7014309291499439
801,45.166,44.78,0.88,0.9992305030441655,0.0007760535672060263,0.30745066829459516,0.6761253708137533,0.7916763245255758,0.698076185392763
802,45.228,44.84,0.91,0.998783237072488,0.0012250473978809395,0.3095969630720048,0.6761105928024143,0.7948804736028569,0.6947151885045811
803,45.249,44.9,0.91,0.9982363291477384,0.0017737153228094475,0.3116589125338102,0.6761271396988575,0.7979843232169725,0.6913486163155159
804,45.31,44.95,0.91,0.9975909697954293,0.0024208651104087485,0.3136361333719495,0.6761752970133411,0.8009870698179137,0.6879771578991649
805,45.35,45.01,0.96,0.9968483656741441,0.0031652883786731033,0.3155283529461646,0.6762553259639907,0.803887999767626,0.6846015130206766
806,45.412,45.06,0.98,0.9960097378744235,0.004005762298063814,0.31733540985150027,0.6763674628186865,0.806686490397233,0.6812223915591663
807,45.474,45.12,1.0,0.9950763202587846,0.004941051253239469,0.3190572543391857,0.6765119182553829,0.8093820109626476,0.6778405129046446
808,45.536,45.17,0.96,0.9940493578448829,0.005969908461619375,0.3206939485902724,0.6766888767421154,0.8119741234973759,0.6744566053295387
809,45.579,45.23,0.99,0.9929301052336872,0.007091077546905641,0.32224566684153366,0.6768984959378723,0.8144624835614445,0.6710714053348417
810,45.642,45.28,1.0,0.9917198250844286,0.00830329406580514,0.3237126953633052,0.6771409061154946,0.8168468408854944,0.6676856569710673
811,45.703,45.34,1.02,0.9904197866379729,0.009605286986305321,0.32509543228915005,0.6774162096078378,0.8191270399091591,0.6643001111345802
812,45.806,45.39,1.06,0.9890312642901571,0.010995780115964112,0.3263943872974729,0.6777244802785478,0.8213030202128843,0.6609155248404459
813,45.827,45.45,1.07,0.9875555362165277,0.012473493478775056,0.32761018114547763,0.6780657630189065,0.8233748168424092,0.6575326604734525
814,45.867,45.5,1.07,0.9859938830498238,0.014037144639275077,0.3287435450561341,0.6784400732722418,0.8253425605252442,0.6541522850192749
815,45.949,45.56,1.11,0.9843475866114364,0.015685449972660286,0.3297953199591126,0.678847396587365,0.8272064777786197,0.6507751692778931
816,45.97,45.61,1.1,0.9826179286979893,0.017417125879769697,0.3307664555869756,0.6792876882023253,0.8289668909085516,0.6474020870614016
817,46.031,45.67,1.09,0.9808061899240902,0.019230889945886745,0.33165800942824564,0.6797608726595236,0.8306242178998016,0.6440338143783422
818,46.094,45.72,1.12,0.978913648622208,0.021125462042405924,0.33247114553923063,0.680266843453016,0.8321789721966316,0.6406711286066679
819,46.134,45.78,1.15,0.9769415798005258,0.02309956537051431,0.33320713321664935,0.6808054627087174,0.8336317623743487,0.6373148076573995
820,46.196,45.83,1.16,0.9748912541595118,0.025151927446146916,0.33386734553320513,0.6813765608981518,0.8349832917017203,0.6339656291310054
821,46.258,45.89,1.17,0.9727639371678297,0.027281281025594666,0.33445325773832146,0.6819799365864131,0.8362343575944329,0.6306243694685072
822,46.321,45.94,1.22,0.9705608881980806,0.029486364971264604,0.33496644552634297,0.6826153562150531,0.8373858509598894,0.6272918030992914
823,46.342,46.0,1.23,0.9682833597227548,0.031765925057224045,0.33540858317463457,0.6832825539206894,0.838438755433806,0.623968701587581
824,46.424,46.05,1.24,0.9659325965706292,0.03411871471428632,0.3357814415541801,0.6839812313901952,0.839394146509253,0.6206558327794764
825,46.466,46.1,1.27,0.9635098352437129,0.03654349571453184,0.33608688601547293,0.6847110577533614,0.8402531905589846,0.6173539599523906
826,46.527,46.16,1.28,0.9610163032947296,0.03903903879528166,0.3363268741527101,0.6854716695138273,0.8410171437521152,0.6140638409685649
827,46.568,46.22,1.27,0.958453218764996,0.041604124222658204,0.33650345344954435,0.686262670518886,0.8416873508663975,0.6107862274342227
828,46.629,46.27,1.28,0.955821789682446,0.04423754229498342,0.3366187588098752,0.6870836319685679,0.8422652439975483,0.6075218638658086
829,46.69,46.33,1.28,0.9531232136194293,0.046938093786383375,0.33667500997734684,0.6879340924642917,0.8427523411672296,0.6042714868646991
830,46.752,46.38,1.26,0.9503586773097944,0.049704590331087366,0.33667450884735267,0.6888135580973376,0.8431502448314361,0.6010358243017297
831,46.814,46.44,1.25,0.9475293563246433,0.05253585474903279,0.33661963667542694,0.6897215025774635,0.8434606402911384,0.5978155945128855
832,46.856,46.49,1.28,0.9446364148060415,0.05543072131349054,0.33651285118593605,0.690657367402074,0.8436852940071073,0.5946115055074847
833,46.897,46.55,1.27,0.9416810052578583,0.058388035961536314,0.3363566835850022,0.691620562066392,0.8438260518208952,0.5914242541901534
834,46.958,46.6,1.26,0.9386642683928068,0.06140665644829567,0.336153735481608,0.6926104643150242,0.8438848370839979,0.5882545255978063
835,47.084,46.66,1.29,0.9355873330346405,0.06448545244600526,0.3359066757208694,0.693626420435159,0.8438636486972763,0.5851029921527314
836,47.103,46.71,1.29,0.9324513160743501,0.06762330558904459,0.3356182371335577,0.6946677455914181,0.8437645590628046,0.581970312932742
837,47.123,46.77,1.28,0.9292573224790819,0.07081910946621671,0.3352912132060819,0.69573372420214,0.8435897119504034,0.5788571329592646
838,47.205,46.82,1.29,0.926006445352377,0.0740717695616753,0.33492845467527826,0.6968236103567135,0.8433413202812184,0.5757640825041916
839,47.226,46.88,1.31,0.9226997660442084,0.07738020314601653,0.33453286605248495,0.6979366282735254,0.8430216638308208,0.5726917764163222
840,47.288,46.93,1.29,0.9193383543091768,0.08074333911917478,0.33410740208150763,0.6990719727980848,0.8426330868544197,0.569640813468234
841,47.35,46.99,1.28,0.9159232685111054,0.08416011780687481,0.33365506413519647,0.7002288099409183,0.842177995636897,0.5666117757244646
842,47.454,47.04,1.3,0.9124555558721786,0.08762949071249887,0.3331788965554376,0.7014062774548736,0.841658855970468,0.5636052279318833
843,47.475,47.1,1.27,0.908936252764666,0.09115042022632229,0.3326819829414087,0.7026034854514819,0.8410781905628805,0.5606217169330941
844,47.515,47.15,1.25,0.9053663850431881,0.09472187929415896,0.33216744239094376,0.7038195170560015,0.8404385763791246,0.5576617711036455
845,47.556,47.21,1.26,0.9017469684153927,0.09834285104754407,0.33163842569981594,0.7050534291006587,0.8397426419196782,0.5547258998137227
846,47.618,47.26,1.27,0.898079008848831,0.10201232839766723,0.33109811152369556,0.7063042528554099,0.8389930644383466,0.5518145929149236
847,47.68,47.32,1.26,0.8943635030117357,0.10572931359534839,0.3305497025074992,0.7075709947953093,0.8381925671027621,0.5489283202526404
848,47.721,47.37,1.27,0.8906014387453364,0.10949281775942192,0.32999642138681445,0.7088526374033618,0.8373439161006444,0.5460675312045222
849,47.783,47.42,1.29,0.8867937955652799,0.11330186037595927,0.3294415070660696,0.7101481400076463,0.8364499176949616,0.5432326542454445
850,47.844,47.48,1.26,0.8829415451896707,0.11715546877081164,0.3288882106781377,0.7114564396514745,0.8355134152312188,0.5404240965393691
851,47.907,47.53,1.25,0.879045652091199,0.12105267755799724,0.3283397916301072,0.7127764519953943,0.8345372861001872,0.537642243558453
852,47.949,47.59,1.27,0.8751070740707997,0.12499252806649352,0.32779951363998766,0.7141070722498645,0.8335244386594877,0.5348874587297261
853,48.01,47.65,1.25,0.8711267628502615,0.1289740677480066,0.32727064076916573,0.7154471761374033,0.8324778091175263,0.5321600831095918
854,48.071,47.7,1.23,0.8671056646812088,0.1329963495682988,0.32675643345545535,0.7167956208828976,0.8314003583833478,0.5294604350863508
855,48.175,47.76,1.22,0.8630447209678918,0.1370584313846344,0.32626014455159225,0.7181512462306571,0.8302950688860211,0.5267888101108578
856,48.196,47.81,1.2,0.8589448689012615,0.1411593753118696,0.32578501537399157,0.7195128754867194,0.8291649413672076,0.524145480455336
857,48.237,47.87,1.16,0.8548070421018585,0.1452982470796597,0.3253342717665324,0.7208793165848705,0.8280129916505647,0.521530695000296
858,48.3,47.92,1.14,0.8506321712691266,0.14947411538317382,0.32491112018404666,0.7222493631748574,0.8268422473916152,0.518944679049475
859,48.361,47.98,1.15,0.8464211848348552,0.15368605122961546,0.324518743800073,0.7236217957313352,0.8256557448116475,0.5163876341727051
860,48.382,48.03,1.13,0.8421750096185631,0.15793312728273812,0.3241602986432843,0.7249953826821459,0.8244565254191414,0.5138597380766279
861,48.444,48.09,1.11,0.8378945714827473,0.1622144172074345,0.32383890976685153,0.7263688815545514,0.8232476327220986,0.5113611445031929
862,48.527,48.14,1.13,0.8335807959860142,0.16652899501638146,0.3235576674548905,0.7277410401380237,0.8220321089345977,0.5088919831558436
