,Time_Host,Time_Arduino,easingdata,CH1_Oxy,CH1_Deoxy,CH2_Oxy,CH2_Deoxy,CH3_Oxy,CH3_Deoxy
0,1.059,0.04,0.0,0.0,0.7294206414938975,0.1315958652326349,0.23635414821125328,0.0,0.25214919740503977
1,1.081,0.1,0.0,0.004023764798536169,0.7252694075424747,0.13373250315025834,0.2366958401909309,0.0019552009531234485,0.2559593317594837
2,1.102,0.15,0.0,0.008058513677538442,0.7211382579746098,0.1358755018548597,0.23706275308585922,0.003917856746330015,0.2597584523495575
3,1.123,0.21,0.0,0.012102725816492507,0.7170284216581071,0.13802409515934635,0.23745467097659825,0.005887246279001981,0.26354466517880537
4,1.144,0.26,0.0,0.016154869625862864,0.7129411004490253,0.1401775112741515,0.23787134978658112,0.007862643260212018,0.2673160729586319
5,1.164,1.05,0.0,0.02021340391969133,0.7088774683487411,0.14233497335441966,0.23831251733360925,0.009843316865169321,0.2710707765982475
6,1.185,1.11,0.0,0.024276779099213868,0.704838670715009,0.1444957000511701,0.238777873423041,0.011828532399302335,0.2748068767023162
7,1.247,1.16,0.0,0.028343438346449652,0.700825823527258,0.1466589060660916,0.23926708998279747,0.013817551969126977,0.27852247507514877
8,1.309,1.22,0.0,0.03241181882670699,0.6968400127061991,0.1488238027096305,0.23977981124022812,0.015809635159023495,0.2822156762302915
9,1.392,1.27,0.0,0.03648035289893726,0.692882293487663,0.15098959846204252,0.24031565394079213,0.017804039713017805,0.28588458890435864
10,1.413,1.33,0.01,0.04054746933285085,0.6889536898504289,0.15315549953708546,0.24087420760843115,0.019800022220633495,0.2895273275739625
11,1.474,1.38,0.11,0.044611594531686775,0.6850551939976803,0.15532071044803053,0.24145503484742434,0.021796838805850337,0.2931420139745937
12,1.516,1.44,0.11,0.04867115375950199,0.6811877658916273,0.15748443457567046,0.24205767168544828,0.023793745818176736,0.2967267786203264
13,1.579,1.49,0.13,0.052724572371824555,0.6773523328408,0.15964587473799494,0.24268162795750783,0.02579000052482437,0.30027976232323034
14,1.622,1.55,0.23,0.05677027704851303,0.6735497891394607,0.16180423376120373,0.24332638773035337,0.027784861802968835,0.3037991177113686
15,1.682,1.6,0.27,0.06080669702768598,0.6697809957584687,0.1639587150517393,0.24399140976693745,0.02977759083108832,0.307283010744255
16,1.764,1.66,0.29,0.06483226533961818,0.6660467800867952,0.1661085231690471,0.24467612803039537,0.03176745177838694,0.3107296222246869
17,1.806,1.71,0.33,0.06884542003952666,0.6623479357228403,0.16825286439880607,0.2453799522269729,0.033753712491330204,0.3141371493059365
18,1.846,1.77,0.41,0.07284460543819106,0.6586852223147167,0.17039094732640753,0.24610226838728685,0.03573564517634395,0.31750380699336256
19,1.908,1.82,0.41,0.07682827332937447,0.6550593654487361,0.1725219834104881,0.24684243948527282,0.03771252707775292,0.32082782963960094
20,1.95,1.88,0.39,0.08079488421302598,0.6514710565854269,0.17464518755634148,0.24759980609416013,0.03968364115005527,0.32410747243258253
21,2.012,1.93,0.48,0.08474290851325471,0.6479209530425093,0.1767597786890321,0.24837368707879445,0.041648276723646904,0.3273410128756436
22,2.073,1.99,0.43,0.08867082779005964,0.6444096780242873,0.17886498032602605,0.24916338032359003,0.04360573016312208,0.33052675225891887
23,2.135,2.04,0.44,0.09257713594377685,0.6409378206968768,0.18096002114913332,0.2499681634953191,0.045555305517277656,0.3336630171210856
24,2.198,2.1,0.52,0.0964603404111737,0.6375059363085401,0.18304413557552823,0.2507872948398577,0.04749631515994277,0.3367481607003808
25,2.239,2.15,0.56,0.10031896335208725,0.6341145463541723,0.1851165643275778,0.25162001401189893,0.04942808042074483,0.3397805643736621
26,2.3,2.21,0.58,0.10415154282547537,0.6307641387827339,0.1871765550011753,0.25246554293653684,0.051349932204911436,0.3427586390821694
27,2.362,2.26,0.64,0.10795663395372866,0.6274551682462455,0.18922336263225095,0.253323086701526,0.05326121160120523,0.34568082674262124
28,2.404,2.32,0.74,0.11173281007409087,0.6241880563888969,0.19125625026112295,0.25419183447896504,0.055161270477097665,0.3485456016423174
29,2.508,2.37,0.76,0.1154786638760583,0.6209631921748484,0.19327448949435957,0.2550709604751196,0.057049472060307325,0.35135147181703563
30,2.528,2.43,0.79,0.1191928085236608,0.6177809322534182,0.19527736106383617,0.25595962490708896,0.05892519150585414,0.3540969804106241
31,2.569,2.48,0.88,0.12287387876156244,0.6146416013604772,0.19726415538267872,0.25685697500501886,0.06078781644781444,0.35678070701526515
32,2.61,2.54,0.89,0.12652053200395574,0.6115454927549459,0.19923417309779226,0.2577621460385419,0.06263674753499815,0.35940126899136976
33,2.673,2.59,0.91,0.13013144940525526,0.6084928686892689,0.20118672563865939,0.2586742623660747,0.06447139894980443,0.36195732276602144
34,2.734,2.65,0.96,0.13370533691162045,0.6054839609126464,0.20312113576207144,0.2595924385055486,0.06629119890954302,0.3644475651088221
35,2.774,2.7,0.97,0.1372409262923597,0.6025189712056431,0.20503673809241177,0.2605157802250816,0.06809559014953614,0.36687073438392537
36,2.879,2.76,0.99,0.14073697615027825,0.5995980719446304,0.20693287965706456,0.2614433856520366,0.069884030387337,0.36922561177697344
37,2.921,2.81,1.01,0.14419227291003264,0.5967214066944316,0.2088089204164691,0.2623743463988473,0.07165599276741803,0.37151102249561635
38,2.941,2.87,1.12,0.14760563178354089,0.5938890908275288,0.21066423378828597,0.26330774870394297,0.07341096628569271,0.37372583694226763
39,3.002,2.92,1.15,0.15097589771148,0.5911012121682319,0.21249820716509402,0.2642426745860525,0.07514845619324463,0.3758689718577662
40,3.064,2.98,1.19,0.15430194627989044,0.5883578316602611,0.21431024242499733,0.2651782030101258,0.07686798437865303,0.3779393914346402
41,3.125,3.03,1.31,0.1575826846108991,0.5856589840562502,0.21609975643450424,0.2661134110630829,0.07856908972833189,0.3799361083986844
42,3.229,3.09,1.34,0.16081705222659362,0.5830046786276791,0.21786618154304221,0.2670473751375752,0.08025132846434217,0.3818581850575471
43,3.249,3.14,1.38,0.1640040218851154,0.5803948998937082,0.21960896606849253,0.26797917212192174,0.08191427445918614,0.38370473431502605
44,3.269,3.2,1.44,0.16714260038808976,0.5778296083673251,0.22132757477315523,0.26890788059437093,0.08355751952714925,0.3854749206497752
45,3.332,3.25,1.5,0.17023182935857256,0.5753087413171779,0.22302148932958424,0.26983258201983795,0.08518067369181377,0.3871679610571209
46,3.394,3.31,1.5,0.17327078598876008,0.5728322135434101,0.22469020877576174,0.27075236194726854,0.08678336542942497,0.3887831259527059
47,3.455,3.36,1.57,0.17625858375676992,0.5703999181658475,0.22633324995910334,0.2716663112057913,0.08836524188784362,0.3903197400367272
48,3.497,3.42,1.65,0.17919437311185038,0.568011727422959,0.22795014796879515,0.2725735270978519,0.0899259690808665,0.3917771831175851
49,3.6,3.47,1.63,0.18207734212741117,0.5656674934800875,0.22954045655596297,0.27347311458754586,0.09146523205774507,0.39315489089378897
50,3.62,3.53,1.63,0.18490671712128517,0.5633670492454836,0.23110374854116134,0.27436418748238034,0.09298273504777915,0.39445235569292564
51,3.661,3.58,1.71,0.1876817632426254,0.5611102091926832,0.23263961620863804,0.27524586960668856,0.0944782015799104,0.39566912716637187
52,3.723,3.64,1.75,0.19040178502481836,0.5588967701877144,0.23414767168678494,0.27611729596489887,0.09595137457727969,0.39680481293824893
53,3.784,3.69,1.77,0.19306612690376013,0.5567265123195426,0.23562754731413846,0.2769776138928298,0.09740201642674566,0.39785907920697144
54,3.826,3.75,1.83,0.1956741737008088,0.5545991997321021,0.2370788959902514,0.27782598419516874,0.09882990902339028,0.39883165129768844
55,3.888,3.8,1.89,0.1982253510697159,0.5525145814562892,0.2385013915107447,0.2786615822673151,0.10023485379007832,0.3997223141639434
56,3.971,3.86,1.92,0.200719125906862,0.5504723922403952,0.23989472888586197,0.2794835991998197,0.10161667167218334,0.40053091283701564
57,3.991,3.91,1.93,0.20315500672416859,0.5484723533776921,0.2412586246418825,0.28029124286373397,0.10297520310764503,0.4012573528216051
58,4.054,3.97,2.03,0.2055325439841217,0.5465141735301734,0.2425928171047941,0.28108373897526384,0.1043103079725769,0.4019016004367243
59,4.096,4.02,2.02,0.2078513303964145,0.5445975495477144,0.24389706666567393,0.28186033213820494,0.10562186550270039,0.40246368310081254
60,4.159,4.08,2.03,0.21011100117578432,0.5427221672820752,0.24517115602727077,0.2826202868626904,0.10690977419093624,0.40294368956016596
61,4.222,4.13,2.07,0.21231123426068094,0.540887702395262,0.24641489043131953,0.28336288855884234,0.10817395166153684,0.4033417700598005
62,4.284,4.19,2.06,0.2144517504924542,0.5390938211617532,0.24762809786614723,0.2840874445039604,0.10941433452119326,0.40365813645585175
63,4.346,4.24,2.04,0.21653231375479695,0.5373401812640389,0.24881062925414646,0.2847932847819159,0.11063087818758904,0.403893062268652
64,4.407,4.3,2.03,0.21855273107321513,0.5356264325808447,0.2499623586186973,0.28547976319344565,0.11182355669590274,0.4040468826757162
65,4.468,4.35,2.07,0.22051285267432957,0.5339522179673488,0.2510831832301042,0.2861462581360711,0.11299236248377832,0.40411999444401414
66,4.488,4.41,2.06,0.22241257200483744,0.5323171740266486,0.2521730237300849,0.28679217345238456,0.11413730615529162,0.40411285580104656
67,4.551,4.46,2.07,0.2242518257099648,0.530720931871769,0.2532318242343118,0.287416939245457,0.11525841622444351,0.40402598624437025
68,4.592,4.52,2.16,0.22603059357123279,0.5291631178776126,0.25425955241246745,0.2880200126601188,0.1163557388387148,0.4038599662893057
69,4.653,4.57,2.18,0.2277488984033578,0.5276433544223306,0.25525619954526313,0.28860087862885125,0.11742933748322959,0.4036154371546306
70,4.717,4.63,2.2,0.22940680591013252,0.5261612606175987,0.2562217805578899,0.28915905058100755,0.11847929266609525,0.40329310038613475
71,4.756,4.68,2.26,0.23100442449918984,0.5247164530272425,0.25715633402942767,0.28969407111407564,0.11950570158552365,0.4028937174179891
72,4.819,4.74,2.29,0.23254190505564326,0.5233085463735399,0.25805992217781054,0.2902055126257229,0.12050867777938287,0.4024181090719632
73,4.882,4.79,2.29,0.23401944067471317,0.5219371542303987,0.25893263082002826,0.2906929779054117,0.1214883507578791,0.40186715499463715
74,4.922,4.85,2.28,0.23543726635356876,0.520601889702536,0.2597745693073213,0.29115610068444703,0.12244486562011742,0.4012417930329071
75,4.984,4.9,2.33,0.23679565864272722,0.5193023660898493,0.2605858704351943,0.2915945461434168,0.12337838265533632,0.4005430185482471
76,5.109,4.96,2.29,0.23809493525744874,0.5180381975362937,0.2613666903281358,0.29200801137608157,0.12428907692965029,0.3997718836703784
77,5.13,5.01,2.26,0.2393354546496425,0.5168089996627333,0.2621172082989829,0.2923962258088785,0.1251771378591614,0.3989294964911932
78,5.171,5.07,2.31,0.2405176155408574,0.5156143901833402,0.2628376266829134,0.29275895157530246,0.12604276877032006,0.39801702019995416
79,5.213,5.12,2.29,0.24164185641697,0.5144539895051428,0.26352817064607925,0.293095983844509,0.12688618644842464,0.39703567216091246
80,5.274,5.18,2.26,0.242708654985207,0.51332742131029,0.2641890879689269,0.2934071511035284,0.1277076206751526,0.39598672293455167
81,5.316,5.23,2.26,0.24371852759414256,0.512234313120544,0.26482064880426814,0.2936923153925104,0.12850731375601585,0.39487149524365045
82,5.358,5.29,2.27,0.2446720286173199,0.5111742968434315,0.26542314541018747,0.29395137249242637,0.12928552003863444,0.39369136288528134
83,5.44,5.34,2.26,0.24556974980116658,0.510147009299341,0.2659968918578874,0.29418425206465343,0.13004250542271664,0.3924477495897908
84,5.522,5.4,2.26,0.2464123195779216,0.5091520927286951,0.26654222371459513,0.29439091774189047,0.1307785468626284,0.3911421278278133
85,5.543,5.45,2.34,0.24720040234436416,0.5081891952782133,0.26705949770167425,0.2945713671699585,0.1314939318634279,0.389776017566452
86,5.585,5.51,2.31,0.24793469770722618,0.507257971465185,0.26754909132811217,0.294725632000223,0.13218895797123997,0.38835098497588305
87,5.647,5.56,2.3,0.2486159396962688,0.506358082618621,0.26801140249959376,0.2948537778326062,0.13286393225885315,0.3868686410877634
88,5.751,5.62,2.35,0.24924489594609409,0.5054891972961221,0.2684468491034275,0.2949559041093625,0.13351917080743525,0.3853306404068998
89,5.772,5.67,2.33,0.2498223668478489,0.5046509916752956,0.2688558685696659,0.29503214395992305,0.13415499818528423,0.383738679477672
90,5.834,5.73,2.31,0.25034918467204426,0.5038431499185838,0.26923891740885425,0.2950826639971897,0.13477174692454497,0.3820944954067677
91,5.875,5.78,2.32,0.2508262126637658,0.5030653645105014,0.26959647072692133,0.2951076640657363,0.1353697569968317,0.38039986434389655
92,5.936,5.84,2.33,0.2512543441115889,0.5023173365664954,0.26992902171780925,0.295107376942464,0.13594937528870155,0.37865659992227707
93,6.0,5.89,2.29,0.2516345013915476,0.5015987761128854,0.2702370811345001,0.2950820679903885,0.13651095507792255,0.3768665516608338
94,6.039,5.95,2.24,0.2519676349875317,0.500909402337612,0.27052117673915516,0.2950320347663609,0.13705485551147428,0.3750316033301495
95,6.102,6.0,2.28,0.2522547224895008,0.5002489438117463,0.2707818527331266,0.294957606583645,0.1375814410862073,0.37315367128429494
96,6.183,6.06,2.21,0.2524967675709085,0.4996171386818739,0.271019669167646,0.29485914403034946,0.13809108113306837,0.3712347027606734
97,6.204,6.11,2.15,0.25269479894672214,0.499013734833519,0.2712352013360157,0.29473703844475424,0.13858414930577323,0.36927667414999005
98,6.246,6.17,2.16,0.25284986931339654,0.498438490025748,0.27142903914814176,0.29459171134857937,0.13906102307477497,0.3672815892383745
99,6.308,6.22,2.15,0.2529630542721227,0.4978911719969781,0.2716017864882307,0.2944236138392371,0.13952208322733703,0.3652514774235551
100,6.37,6.28,2.13,0.2530354512366244,0.49737155854186554,0.27175406055645085,0.29423322594208984,0.1399677133744749,0.36318839190687824
101,6.431,6.33,2.13,0.25306817832672174,0.49687943755906017,0.2718864911953311,0.2940210559237292,0.14039829946548466,0.36109440786289704
102,6.473,6.39,2.17,0.25306237324883846,0.4964146070696104,0.27199972020166585,0.29378763956730886,0.1408142293107367,0.3589716205882348
103,6.535,6.44,2.14,0.2530191921646157,0.49597687520590455,0.2720944006247071,0.2935335394110143,0.14121589211338315,0.35682214363145337
104,6.598,6.5,2.12,0.25293980854880443,0.49556606017120375,0.27217119605146656,0.29325934395082565,0.14160367801060217,0.35464810690573556
105,6.661,6.55,2.19,0.2528254120376402,0.49518199017003306,0.27223077987998634,0.29296566680884106,0.14197797762498549,0.3524516547862761
106,6.681,6.61,2.15,0.25267720726895115,0.49482450330986244,0.27227383458148235,0.2926531458685337,0.14233918162665593,0.35023494419433526
107,6.742,6.66,2.12,0.2524964127152984,0.49449344747457896,0.27230105095229845,0.29232244237841615,0.14268768030668658,0.3480001426699412
108,6.804,6.72,2.14,0.2522842595114946,0.49418868017026474,0.2723131273566366,0.29197424002567085,0.14302386316237445,0.345749426435219
109,6.846,6.77,2.12,0.2520419902778855,0.493910068343739,0.2723107689610558,0.29160924398137583,0.14334811849490503,0.34348497845030396
110,6.908,6.83,2.08,0.25177085794082055,0.49365748817422844,0.2722946869617595,0.29122817991900934,0.1436608330199176,0.341208986463809
111,6.969,6.88,1.98,0.25147212455175844,0.4934308248385089,0.2722655978057138,0.29083179300796236,0.14396239149145063,0.3389236410598663
112,7.011,6.94,2.01,0.25114706010645865,0.4932299722499262,0.2722242224066557,0.29042084688383396,0.14425317633970478,0.3366311337038343
113,7.095,6.99,1.95,0.25079694136569497,0.49305483277183054,0.27217128535704815,0.2899961225973164,0.14453356732300893,0.3343336547888632
114,7.158,7.05,1.89,0.25042305067889276,0.4929053169061073,0.2721075141370253,0.28955841754348394,0.1448039411943082,0.33203339168565904
115,7.179,7.1,1.92,0.25002667481203517,0.49278134295758996,0.272033638321347,0.2891085443732794,0.1450646713824171,0.32973252679789367
116,7.282,7.16,1.9,0.24960910378111512,0.4926828366751056,0.2719503887853383,0.28864732988893416,0.14531612768820584,0.32743323562567317
117,7.302,7.21,1.89,0.24917162969233375,0.4926097308697192,0.27185849691073755,0.2881756139249758,0.14555867599581518,0.3251376848393163
118,7.343,7.27,1.91,0.24871554559015854,0.49256196501052757,0.27175869379232565,0.2876942482163926,0.14579267799892962,0.32284803036546894
119,7.405,7.32,1.94,0.24824214431427974,0.49253948479818777,0.2716517094461588,0.28720409525546065,0.14601849094208327,0.3205664154873804
120,7.466,7.38,1.93,0.2477527173664483,0.4925422417163558,0.27153827202021313,0.2867060271386906,0.14623646737692775,0.3182949689610667
121,7.507,7.43,1.93,0.2472485537881437,0.4925701925614042,0.27141910700825045,0.2862009244053357,0.14644695493335286,0.31603580314910046
122,7.569,7.49,2.02,0.24673093905000681,0.4926232989511159,0.27129493646773206,0.28568967486890623,0.14665029610532354,0.3137910121738487
123,7.673,7.54,1.99,0.24620115395398234,0.49270152681331847,0.2711664782426377,0.28517317244314183,0.14684682805127258,0.3115626700920727
124,7.693,7.6,1.99,0.24566047354913348,0.49280484585555123,0.2710344451920736,0.28465231596388074,0.1470368824088707,0.30935282909286244
125,7.734,7.65,2.05,0.24511016606211394,0.49293322901683756,0.27089954442557906,0.2841280080082449,0.14722078512398173,0.30716351772085515
126,7.796,7.71,2.05,0.24455149184329758,0.49308665190253154,0.27076247654605395,0.28360115371253164,0.14739885629360033,0.3049967391265875
127,7.859,7.76,2.03,0.24398570232956757,0.49326509220310205,0.270623934901238,0.28307265959017275,0.14757141002255753,0.3028544693457116
128,7.901,7.82,2.04,0.2434140390247526,0.4934685290976838,0.270484604844666,0.2825434323511064,0.1477387542937676,0.30073865560869384
129,7.962,7.87,2.04,0.24283773249866805,0.49369694264329134,0.27034516300701406,0.2820143777239112,0.1479011908517734,0.2986512146825075
130,8.024,7.93,2.02,0.24225800140568376,0.4939503131507055,0.27020627657872803,0.2814863992820553,0.14805901509932692,0.29659403124575046
131,8.066,7.98,1.96,0.24167605152368718,0.49422862054819877,0.27006860260479243,0.28096039727560873,0.14821251600671367,0.2945689562985742
132,8.127,8.04,2.03,0.2410930748142408,0.49453184373443304,0.2699327872924504,0.28043726746974873,0.1483619760334915,0.2925778056087685
133,8.187,8.09,2.01,0.24051024850464744,0.4948599599219782,0.2697994653326254,0.2799178999913373,0.14850767106227128,0.29062235819528065
134,8.25,8.15,2.01,0.23992873419253508,0.4952129439729438,0.2696692592357307,0.2794031781847709,0.1486498703441203,0.28870435485033685
135,8.291,8.2,2.08,0.23934967697346482,0.4955907677281832,0.2695427786824908,0.27889397747820327,0.14878883645512528,0.28682549670117047
136,8.392,8.26,2.11,0.23877420459197496,0.4959933993314009,0.26942061989035226,0.2783911642611381,0.14892482526362114,0.2849874438121845
137,8.414,8.31,2.12,0.2382034266164123,0.4964208025493591,0.2693033649960368,0.2778955947742908,0.14905808590757108,0.2831918138282454
138,8.475,8.37,2.15,0.2376384336378676,0.4968729360893311,0.2691915814547888,0.27740811401257254,0.1491888607815745,0.28144018065975535
139,8.516,8.42,2.22,0.23708029649352738,0.49734975291499856,0.2690858214568672,0.27692955464205193,0.1493173855329821,0.2797340732101658
140,8.577,8.48,2.23,0.2365300655147649,0.4978511995621044,0.2689866213618444,0.2764607359317834,0.14944388906660314,0.27807497414665183
141,8.639,8.53,2.22,0.235988769800304,0.4983772154553159,0.26889450115127794,0.27600246270143036,0.14956859355750207,0.2764643187147371
142,8.66,8.59,2.3,0.23545741651478705,0.49892773222792314,0.26880996390032413,0.27555552428564484,0.149691714471394,0.2749034935976868
143,8.743,8.64,2.28,0.23493699021307135,0.4995026730461,0.2687334952688565,0.27512069351617807,0.14981346059216333,0.27339383582146426
144,8.784,8.7,2.27,0.23442845219056013,0.5001019519394823,0.2686655630126472,0.2746987257226824,0.1499340340560414,0.2719366317059891
145,8.825,8.75,2.31,0.233932739859853,0.5007254731397672,0.2686066165151588,0.27429035775312843,0.1500536303919856,0.27053311586335926
146,8.888,8.81,2.31,0.23345076615398014,0.501373130428908,0.2685570863404793,0.273896307014709,0.15017243856780468,0.26918447024360603
147,8.949,8.86,2.27,0.232983418956464,0.5020448064983224,0.268517383807911,0.27351727053604746,0.1502906410415706,0.26789182322845967
148,8.99,8.92,2.23,0.2325315605584209,0.5027403723204432,0.2684879005886729,0.27315392405151717,0.15040841381784967,0.2666562487735179
149,9.052,8.97,2.31,0.23209602714286773,0.5034596865339241,0.26846900832509996,0.2728069211085412,0.15052592650827074,0.26547876559912303
150,9.116,9.03,2.29,0.23167762829633942,0.5042025948438031,0.2684610582726217,0.2724768921988217,0.1506433423959279,0.2643603364301826
151,9.177,9.08,2.31,0.2312771465478472,0.5049689294378861,0.26846438096469877,0.2721644439145145,0.1507608185030865,0.26330186728511223
152,9.238,9.14,2.43,0.2308953369351246,0.5057585084205527,0.26847928590080394,0.27187015813036197,0.15087850566164046,0.26230420681398675
153,9.28,9.19,2.46,0.23053292659803207,0.506571135265073,0.2685060612574705,0.27159459121275187,0.15099654858576209,0.2613681456858452
154,9.341,9.25,2.43,0.2301906143989369,0.5074065982854203,0.2685449736223997,0.2713382732566034,0.1511150859461997,0.26049441602495427
155,9.422,9.3,2.49,0.22986907056985856,0.5082646701285055,0.2685962677516151,0.27110170735093353,0.15123425044570557,0.25968369089571475
156,9.484,9.36,2.55,0.2295689363861782,0.5091451072877516,0.2686601663496598,0.2708853688739388,0.15135416889511666,0.2589365838358883
157,9.504,9.41,2.58,0.22929082386674615,0.5100476496389311,0.2687368698728577,0.2706897048184274,0.15147496228964658,0.25825364843799403
158,9.567,9.47,2.59,0.2290353155002708,0.5109720199992268,0.2688265563556854,0.2705151331484273,0.15159674588497718,0.25763537797903835
159,9.607,9.52,2.68,0.2288029639979286,0.5119179237105185,0.2689293812603233,0.27036204218779225,0.15171962927277116,0.2570822050990112
160,9.669,9.58,2.65,0.2285942920721891,0.512885048247893,0.2690454773494746,0.2702307900415896,0.15184371645526654,0.2565945015286994
161,9.731,9.63,2.65,0.22840979224189611,0.5138730628543108,0.2691749545825436,0.27012170405101316,0.1519691059186553,0.2561725778673549
162,9.792,9.69,2.67,0.22824992666367283,0.514881618202247,0.2693179000352562,0.270035080282521,0.15209589070498708,0.2558166834106664
163,9.855,9.74,2.66,0.22811512698973355,0.5159103460829579,0.2694743778427783,0.26997118305185974,0.15222415848237228,0.25552700602937434
164,9.876,9.8,2.63,0.22800579425217699,0.5169588591238625,0.2696444291663499,0.2699302444835994,0.15235399161328117,0.2553036720988149
165,9.939,9.85,2.61,0.22792229877380585,0.5180267505344416,0.26982807218340116,0.2699124641067707,0.15248546722074496,0.25514674647968916
166,9.98,9.91,2.65,0.22786498010546694,0.5191135938810534,0.2700253021010528,0.2699180084871573,0.15261865725226878,0.25505623255040444
167,10.042,9.96,2.64,0.22783414698984278,0.5202189428910824,0.27023609119283865,0.2699470108967358,0.15275362854125893,0.25503207229137437
168,10.103,10.02,2.65,0.227830077351546,0.5213423312868837,0.2704603888584158,0.2699995710206771,0.1528904428657592,0.25507414642165266
169,10.144,10.07,2.75,0.22785301831328048,0.5224832726500465,0.2706981217059584,0.2700757547022272,0.15302915700428518,0.25518227458817017
170,10.247,10.13,2.76,0.2279031862377531,0.5236412603165285,0.2709491936568827,0.27017559372569633,0.15316982278855243,0.25535621560767274
171,10.268,10.18,2.78,0.22798076679495877,0.5248157673032046,0.27121348607252616,0.2702990856377043,0.1533124871529154,0.2555956677612866
172,10.309,10.24,2.84,0.228085915054435,0.526006246266318,0.2714908579024146,0.2704461936067851,0.15345719218036935,0.2559002691414887
173,10.371,10.29,2.88,0.22821875560209268,0.5272121294922467,0.27178114585378527,0.2706168463214246,0.15360397514501764,0.25626959805115473
174,10.433,10.35,2.88,0.2283793826812641,0.5284328289209339,0.2720841645820814,0.2708109379266054,0.15375286855095927,0.25670317345433014
175,10.474,10.4,2.88,0.22856786035764945,0.5296677362023768,0.27239970690218474,0.2710283279989592,0.15390390016760544,0.2572004554784249
176,10.577,10.46,2.95,0.22878422270788148,0.5309162227866793,0.27272754402018623,0.27126884156067593,0.1540570930614864,0.25776084596761756
177,10.597,10.51,2.92,0.22902847403146157,0.5321776400483161,0.27306742578553295,0.27153226913237316,0.154212465624658,0.25838368908732806
178,10.638,10.57,2.9,0.22930058908584106,0.5334513194453779,0.27341908096340706,0.2718183668251632,0.15437003159986154,0.2590682719796519
179,10.722,10.62,2.93,0.22960051334442486,0.5347365727146579,0.27378221752721094,0.2721268564721755,0.15452980010262538,0.2598138254696185
180,10.764,10.68,2.91,0.2299281632772674,0.536032692103428,0.2741565229710331,0.27245742579977716,0.15469177564053047,0.2606195248220525
181,10.803,10.73,2.86,0.23028342665421558,0.5373389506386339,0.27454166464196045,0.2728097286386986,0.1548559581298816,0.2614844905487111
182,10.864,10.79,2.85,0.23066616287022998,0.5386546024340833,0.2749372900920689,0.2731833851752399,0.15502234291004158,0.2624077892652538
183,10.967,10.84,2.85,0.23107620329258555,0.5399788830359962,0.27534302744987743,0.2735779822427061,0.15519092075569202,0.26338843459747696
184,10.987,10.9,2.83,0.23151335162961897,0.5413110098070925,0.2757584858109875,0.27399307365317316,0.15536167788728242,0.26442538813614086
185,11.049,10.95,2.82,0.23197738432063933,0.5426501823492264,0.2761832556475621,0.2744281805696181,0.15553459597992286,0.2655175604396375
186,11.111,11.01,2.9,0.23246805094656045,0.543995582964491,0.27661690923622995,0.27488279191836,0.15570965217096766,0.26666381208365003
187,11.132,11.06,2.87,0.23298507466076257,0.5453463771546325,0.27705900110394577,0.2753563648416693,0.15588681906653573,0.26786295475684513
188,11.194,11.12,2.86,0.23352815263965673,0.5467017141585061,0.2775090684913048,0.2758483251903188,0.15606606474722481,0.26911375240152374
189,11.257,11.17,2.9,0.23409695655241702,0.5480607275271756,0.27796663183280124,0.27635806805577295,0.15624735277329324,0.2704149223980387
190,11.319,11.23,2.89,0.23469113304936345,0.5494225357360902,0.2784311952535232,0.2768849583416508,0.15643064218961028,0.2717651367916694
191,11.382,11.28,2.88,0.23531030426850222,0.5507862428336022,0.27890224708179256,0.2774283313740383,0.15661588753069544,0.27316302356058
192,11.444,11.34,2.87,0.23595406835975558,0.5521509391250067,0.27937926037726746,0.2779874935501884,0.1568030388261892,0.2746071679234658
193,11.504,11.39,2.87,0.23662200002643463,0.5535157018912688,0.2798616934740348,0.27856172302511656,0.1569920416071137,0.2760961136855025
194,11.525,11.45,2.83,0.23731365108352184,0.5548795961416534,0.28034899053822077,0.27915027043557683,0.15718283691329654,0.2776283646212306
195,11.586,11.5,2.79,0.2380285510323353,0.556241675399547,0.2808405821396469,0.27975235966087725,0.15737536130233756,0.27920238589304697
196,11.669,11.56,2.82,0.2387662076511463,0.5576009825207998,0.2813358858370448,0.28036718861994736,0.1575695468604979,0.28081660550399146
197,11.69,11.61,2.73,0.23952610760131354,0.5589565505438575,0.28183430677632393,0.28099393010400336,0.15776532121588244,0.2824694157834924
198,11.751,11.67,2.69,0.24030771704847587,0.5603074035707849,0.2823352383013555,0.28163173264406116,0.1579626075542704,0.28415917490465
199,11.813,11.72,2.7,0.24111048229830528,0.56165255767805,0.2828380625766838,0.2822797214124504,0.15816132463792582,0.2858842084315022
200,11.853,11.78,2.69,0.24193383044627412,0.562991021855622,0.2833421512215118,0.2829369991573773,0.15836138682768952,0.2876428108945674
201,11.915,11.83,2.68,0.2427771700408413,0.5643217989725907,0.28384686595424213,0.2836026471694636,0.15856270410861975,0.2894332473928717
202,11.979,11.89,2.67,0.24363989175941927,0.5656438867672554,0.2843515592467941,0.2842757262790724,0.15876518211941618,0.29125375522065766
203,12.081,11.94,2.72,0.24452136909645802,0.5669562788595033,0.2848555749878786,0.28495527788315217,0.1589687221858391,0.2931025455170121
204,12.102,12.0,2.69,0.245420959062976,0.5682579657833188,0.28535824915439434,0.2856403250002874,0.15917322135832376,0.29497780493672554
205,12.144,12.05,2.67,0.24633800289687421,0.5695479360374234,0.28585891049011686,0.2863298733526301,0.1593785724539861,0.29687769734078695
206,12.206,12.11,2.72,0.24727182678337575,0.570825177152262,0.2863568811908721,0.28702291247338046,0.15958466410321528,0.2988003655049878
207,12.268,12.16,2.7,0.24822174258494759,0.5720886767716857,0.28685147759540924,0.2877184168384598,0.15979138080105215,0.3007439328451411
208,12.289,12.22,2.67,0.24918704858008114,0.573337423747678,0.2873420108812088,0.28841534702097693,0.15999860296354834,0.3027065051574093
209,12.35,12.27,2.67,0.25016703021033215,0.5745704092463679,0.2878277877644651,0.2891126508670488,0.16020620698930385,0.30468617237216056
210,12.432,12.33,2.65,0.251160960835048,0.5757866278634042,0.28830811120348077,0.2898092646914875,0.16041406532637456,0.30668101031965705
211,12.452,12.38,2.59,0.2521681024932378,0.5769850787466165,0.28878228110470555,0.29050411449180336,0.16062204654473483,0.30868908250577337
212,12.514,12.44,2.54,0.25318770667204776,0.5781647667238164,0.2892495950306578,0.2911961171788852,0.1608300154144633,0.31070844189588515
213,12.574,12.49,2.57,0.254219015081294,0.5793247034336115,0.2897093489089601,0.29188418182262554,0.16103783298979196,0.3127371327050485
214,12.637,12.55,2.55,0.25526126043347364,0.5804639084571119,0.290160837741699,0.2925672109106631,0.16124535669912243,0.3147731921925674
215,12.678,12.6,2.53,0.256313667228632,0.5815814104483572,0.29060335631427764,0.29324410161832476,0.16145244044106882,0.3168146524590058
216,12.761,12.66,2.58,0.25737545254340116,0.5826762482612001,0.2910361999028887,0.29391374708776974,0.16165893468654485,0.318859542243609
217,12.823,12.71,2.59,0.2584458268234665,0.5837474720702489,0.2914586649797175,0.29457503771427707,0.16186468658688077,0.3209058887199978
218,12.844,12.77,2.58,0.25952399467867626,0.5847941444833545,0.29187004991500387,0.2952268624375841,0.16206954008793745,0.322951719287946
219,12.907,12.82,2.61,0.26060915567998805,0.5858153416431,0.2922696556751376,0.29586811003620167,0.16227333605017474,0.32499506335907624
220,12.948,12.88,2.63,0.2617005051574525,0.5868101543148091,0.2926567865160263,0.2964976704227061,0.16247591237463269,0.3270339541343726
221,13.011,12.93,2.6,0.26279723499845953,0.5877776889587386,0.29303075067104345,0.2971144359381166,0.16267710413478773,0.3290664303715023
222,13.072,12.99,2.57,0.2638985344454987,0.5887170687843623,0.29339086103292905,0.29771730264360224,0.16287674371425306,0.3310905381400402
223,13.155,13.04,2.61,0.26500359089270803,0.5896274347849375,0.2937364358290744,0.2983051716078876,0.16307466095029174,0.333104332562763
224,13.176,13.1,2.54,0.2661115906804982,0.5905079467507903,0.2940667992896641,0.29887695018881827,0.1632706832831035,0.3351058795412238
225,13.238,13.15,2.5,0.2672217198875455,0.5913577842598979,0.29438128230817195,0.29943155330758386,0.16346463591082652,0.3370932574638309
226,13.28,13.21,2.5,0.26833316511943767,0.5921761476444073,0.29467922309370476,0.2999679047140956,0.16365634195016684,0.33906455889463444
227,13.341,13.26,2.46,0.26944511429324725,0.5929622589316997,0.29495996781467326,0.3004849382419836,0.1638456226025331,0.34101789224099455
228,13.426,13.32,2.43,0.2705567574172846,0.5937153627585505,0.29522287123323454,0.3009815990516296,0.16403229732550959,0.3429513833983119
229,13.467,13.37,2.43,0.27166728736525125,0.5944347272568967,0.2954672973299165,0.3014568448596092,0.16421618400945104,0.3448631773700507
230,13.53,13.43,2.49,0.2727759006439753,0.5951196449097523,0.2956926199177956,0.3019096471528849,0.1643970991589329,0.34675143986135026
231,13.592,13.48,2.48,0.27388179815386876,0.5957694333758818,0.29589822324556175,0.3023389923860901,0.16457485807874644,0.3486143588445917
232,13.612,13.54,2.48,0.2749841859412227,0.5963834362819654,0.2960835025887836,0.30274388316025425,0.16474927506409226,0.3504501460953727
233,13.675,13.59,2.55,0.2760822759414405,0.5969610239811226,0.29624786482869314,0.3031233393813604,0.16492016359460712,0.3522570386974257
234,13.737,13.65,2.53,0.2771752867123287,0.5975015942767384,0.2963907290178479,0.3034763993971553,0.1650873365318481,0.3540333005151076
235,13.798,13.7,2.55,0.27826244415659956,0.5980045731105763,0.29651152693209654,0.30380212111067056,0.16525060631985714,0.355777223632194
236,13.903,13.76,2.57,0.2793429822327912,0.5984694152141931,0.29660970360835176,0.3040995830689554,0.1654097851884312,0.3574871297558291
237,13.924,13.81,2.59,0.2804161436538729,0.5988956047227088,0.2966847178677472,0.3043678855256087,0.16556468535872748,0.35916137158460004
238,13.966,13.87,2.58,0.28148118057286936,0.5992826557500266,0.2967360428238097,0.30460615147579445,0.16571511925083773,0.360798334139827
239,14.007,13.92,2.56,0.282537355254896,0.5996301129247015,0.29676316637531786,0.30481352766255376,0.16586089969296575,0.3623964360593005
240,14.049,13.98,2.62,0.2835839407350477,0.5999375518858141,0.2967655916835411,0.30498918555332977,0.1660018401318433,0.3639541308528384
241,14.111,14.03,2.58,0.28462022146162463,0.6002045797383371,0.29674283763357795,0.30513232228570153,0.16613775484401297,0.36546990811915914
242,14.172,14.09,2.54,0.2856454939242058,0.6004308354675622,0.2966944392795246,0.30524216158135054,0.16626845914759644,0.3669422947236606
243,14.256,14.14,2.59,0.2866590672660999,0.6006159903121782,0.296619948273212,0.3053179546272882,0.16639376961415525,0.3683698559366962
244,14.277,14.2,2.61,0.2876602638806938,0.6007597480955225,0.2965189332762488,0.30535898092336083,0.16651350428023548,0.3697511965318599
245,14.338,14.25,2.62,0.2886484199912061,0.600861845514434,0.29639098035509726,0.3053645490950297,0.1666274828581706,0.37108496184368356
246,14.379,14.31,2.66,0.2896228862133129,0.6009220523850599,0.2962356933589052,0.3053339976704489,0.16673552694570168,0.37236983878405105
247,14.442,14.36,2.73,0.29058302810009,0.6009401718450033,0.29605269427981945,0.3052666958209218,0.16683746023397172,0.37360455681655586
248,14.504,14.42,2.74,0.2915282266687079,0.6009160405113244,0.2958416235955382,0.30516204406391956,0.16693310871346184,0.3747878888880148
249,14.545,14.47,2.75,0.2924578789083404,0.6008495285941633,0.29560214059390705,0.30501947492797177,0.1670223008774569,0.3759186523164144
250,14.65,14.53,2.85,0.29337139826879527,0.6007405399660554,0.29533392367942946,0.30483845357887895,0.16710486792265725,0.37699570963466383
251,14.67,14.58,2.84,0.29426821512944384,0.6005890121872651,0.29503667066163713,0.3046184784068286,0.16718064394658744,0.37801796938961807
252,14.711,14.64,2.84,0.2951477772480968,0.600394916487611,0.29471009902534695,0.3043590815741153,0.16724946614148764,0.378984386895907
253,14.772,14.69,2.88,0.2960095501895418,0.6001582577053122,0.2943539461828965,0.3040598295232788,0.1673111749844105,0.3798939649441464
254,14.834,14.75,2.89,0.29685301773352607,0.5998790741833407,0.2939679697085149,0.3037203234455851,0.16736561442328002,0.3807457544631084
255,14.894,14.8,2.87,0.29767768226202396,0.5995574376237055,0.2935519475550192,0.30334019970986603,0.1674126320586987,0.3815388551354407
256,14.935,14.86,2.87,0.29848306512567324,0.5991934529000781,0.2931056782530518,0.3029191302518221,0.16745207932131165,0.382272415966544
257,14.998,14.91,2.88,0.2992687069892928,0.5987872578292621,0.2926289810930797,0.3024568229239695,0.16748381164455217,0.3829456358062636
258,15.081,14.97,2.82,0.3000341681564172,0.5983390229021461,0.29212169629037515,0.30195302180649075,0.1675076886326034,0.38355776382311557
259,15.103,15.02,2.79,0.3007790288727787,0.5978489509749654,0.2915836851331937,0.30140750747931744,0.1675235742234123,0.3841080999308615
260,15.166,15.08,2.86,0.301502889608652,0.5973172769218633,0.29101483011435403,0.3008200972558397,0.1675313368465835,0.3845959951673555
261,15.208,15.13,2.85,0.3022053713199409,0.5967442672498028,0.29041503504640737,0.3001906453786712,0.167530849575966,0.3850208520256754
262,15.27,15.19,2.87,0.3028861156878457,0.5961302196768575,0.28978422516057073,0.2995190431779087,0.167521990276729,0.3853821247376012
263,15.374,15.24,2.92,0.30354478533691703,0.595475462674889,0.2891223471895828,0.29880521919232567,0.16750464174671653,0.38567931950947826
264,15.394,15.3,2.95,0.3041810640312933,0.5947803549775905,0.28842936943464786,0.29804913925395166,0.1674786918518795,0.38591199471044935
265,15.436,15.35,2.95,0.30479465684895285,0.5940452850548844,0.28770528181665034,0.2972508065365174,0.16744403365560792,0.38607976101303676
266,15.497,15.41,2.96,0.30538529033387507,0.5932706705547396,0.28695009591186454,0.29641026156830674,0.16740056554181634,0.3861822814861598
267,15.559,15.46,3.03,0.30595271262607887,0.5924569577136684,0.2861638449724222,0.29552758221003633,0.1673481913316734,0.38621927164084197
268,15.622,15.52,2.99,0.30649669356958265,0.5916046207374154,0.28534658393184226,0.29460288359846565,0.16728682039389695,0.3861904994290653
269,15.663,15.57,2.98,0.3070170247983978,0.5907141611536089,0.28449838939596056,0.2936363180565006,0.1672163677485692,0.3860957851964449
270,15.724,15.63,3.02,0.30751351980071756,0.5897861071383707,0.2836193596196276,0.29262807497059107,0.16713675416445348,0.3859350015895715
271,15.787,15.68,3.01,0.30798601396151043,0.5888210128189603,0.2827096144695569,0.2915783806362342,0.16704790624981886,0.38570807341899704
272,15.829,15.74,2.98,0.3084343645837688,0.587819457554499,0.28176929537372253,0.2904874980723739,0.16694975653679833,0.3854149774789334
273,15.892,15.79,2.97,0.3088584508886936,0.5867820451967328,0.28079856525769803,0.2893557268054719,0.16684224355931818,0.38505574232478706
274,15.934,15.85,2.97,0.3092581739951244,0.5857094033326972,0.2797976084683221,0.28818340262401243,0.16672531192464887,0.384630448009661
275,15.975,15.9,2.93,0.3096334568785431,0.5846021825110757,0.278766630685051,0.28697089730420394,0.16659891237863209,0.38413922578095394
276,16.037,15.96,2.91,0.3099842443099848,0.5834610554540218,0.27770585881932214,0.2857186183076578,0.16646300186463522,0.38358225773818017
277,16.1,16.01,2.98,0.310310502775174,0.5822867162562707,0.2766155409021992,0.2844270084518277,0.1663175435762784,0.38295977645311424
278,16.142,16.07,2.97,0.310612220374185,0.5810798795733886,0.275495945960521,0.2830965455539619,0.16616250700396903,0.38227206455330154
279,16.203,16.12,2.95,0.31088940670189963,0.5798412798009847,0.27434736388174835,0.28172774204923484,0.1659978679752765,0.38151945426990713
280,16.265,16.18,2.99,0.3111420927095364,0.5785716702466077,0.2731701052677031,0.2803211445836291,0.1658236086891827,0.3807023269508164
281,16.327,16.23,3.0,0.3113703305475438,0.5772718222958745,0.27196450127741123,0.27887733358208244,0.1656397177442611,0.3798211125398755
282,16.411,16.29,2.99,0.3115741933901933,0.5759425245742138,0.27073090345928574,0.27739692279240813,0.16544619016085457,0.378876289023224
283,16.472,16.34,3.0,0.3117537752422556,0.5745845821055198,0.26946968357290735,0.27588055880553114,0.16524302739734323,0.37786838184379556
284,16.493,16.4,3.04,0.31190919072819046,0.5731988154690137,0.26818123340067956,0.27432892055262964,0.165030237360614,0.376797963285207
285,16.534,16.45,3.0,0.31204057486433584,0.5717860599556588,0.2668659645496534,0.2727427187798122,0.1648078344108648,0.3756656518263731
286,16.616,16.51,2.96,0.31214808281463596,0.5703471647255324,0.2655243082438255,0.2711226955010054,0.16457583936089626,0.3744721114682682
287,16.636,16.56,3.01,0.31223188963049425,0.568882991967619,0.264156715107211,0.2694696234297632,0.16433427947006243,0.3732180510342801
288,16.698,16.62,2.94,0.3122921899753778,0.5673944160634835,0.2627636549379829,0.2677843053907291,0.16408318843306502,0.37190422344557433
289,16.759,16.67,2.9,0.31232919783481317,0.5658823227562082,0.26134561647394644,0.2660675737114783,0.16382260636377752,0.37053142497282654
290,16.842,16.73,2.89,0.3123431462124144,0.5643476083258465,0.2599031071495843,0.2643202895954445,0.16355257977428478,0.3691004944655887
291,16.863,16.78,2.86,0.3123342868125698,0.5627911787724058,0.2584366528448688,0.2625433424765884,0.16327316154931057,0.36761231256043475
292,16.926,16.84,2.84,0.31230288971039194,0.5612139490071305,0.2569467976259893,0.26073764935639687,0.16298441091618548,0.3660678008689454
293,16.967,16.89,2.85,0.3122492430094899,0.5596168420526777,0.25543410347809536,0.25890415412372364,0.162686393410482,0.36446792114655174
294,17.03,16.95,2.9,0.312173652488076,0.5580007882527068,0.2538991500301004,0.25704382685792054,0.1623791808374175,0.362813674443258
295,17.091,17.0,2.88,0.31207644123387634,0.5563667244914107,0.2523425342715554,0.25515766311566396,0.16206285122911215,0.36110610023728357
296,17.153,17.06,2.88,0.31195794926829096,0.5547155934235937,0.2507648702615783,0.2532466832018588,0.16173748879778221,0.3593462755526857
297,17.194,17.11,2.95,0.3118185331602425,0.5530483427160374,0.2491667888298262,0.2513119314250063,0.16140318388496383,0.3575353140620196
298,17.278,17.17,2.92,0.3116585656301754,0.5513659243009551,0.24754893726951138,0.24935447533743227,0.16106003290687582,0.3556743651750423
299,17.298,17.22,2.9,0.31147843514470014,0.5496692936423316,0.24591197902248466,0.2473754049607837,0.16070813829605546,0.35376461311438084
300,17.361,17.28,2.92,0.3112785455024177,0.5479594090158659,0.24425659335643163,0.2453758319972263,0.16034760843942208,0.3518072759789667
301,17.402,17.33,2.91,0.31105931541150394,0.5462372308031009,0.24258347503424998,0.24335688902680067,0.1599785576129464,0.349803604795931
302,17.464,17.39,2.87,0.31082117805967596,0.5445037208001829,0.24089333397569598,0.24131972869142543,0.15960110591311852,0.34775488256159326
303,17.567,17.44,2.83,0.3105645806772015,0.5427598415416349,0.23918689491140366,0.2392655228660665,0.1592153791854185,0.34566242327218494
304,17.588,17.5,2.85,0.31028998409362707,0.5410065556395791,0.23746489702938742,0.23719546181763723,0.15882150894999442,0.34352757094498443
305,17.63,17.55,2.77,0.30999786228889337,0.5392448251389581,0.23572809361413113,0.23511075335223258,0.15841963232474668,0.3413516986305825
306,17.714,17.61,2.72,0.309688701939462,0.537475610889413,0.23397725167834282,0.23301262195133282,0.158009891945999,0.33913620741701284
307,17.755,17.66,2.74,0.3093630019600095,0.5356998719345238,0.2322131515874153,0.23090230789761215,0.15759243588691346,0.33688252542641434
308,17.817,17.72,2.72,0.3090212730411725,0.5339185649190266,0.23043658667658057,0.2287810663909493,0.15716741757377659,0.3345921068047494
309,17.942,17.77,2.7,0.3086640371837622,0.5321326435144145,0.22864836286069057,0.22665016665515364,0.15673499570025,0.3322664307049111
310,17.962,17.83,2.72,0.30829182722979886,0.5303430578631154,0.22684929823649844,0.22451089103583668,0.15629533413964866,0.32990700026335973
311,17.982,17.88,2.75,0.30790518639066644,0.5285507540412507,0.22504022267727403,0.222364534089791,0.15584860185528834,0.3275153415702484
312,18.024,17.94,2.73,0.3075046677726598,0.5267566735398692,0.22322197741957236,0.22021240166619932,0.1553949728089332,0.32509300263290075
313,18.066,17.99,2.7,0.30709083390020253,0.5249617527645227,0.22139541464198623,0.21805580997999738,0.15493462586737258,0.3226415523324905
314,18.129,18.05,2.78,0.30666425623703975,0.5231669225530879,0.21956139703574173,0.21589608467775234,0.15446774470716254,0.3201625793738356
315,18.191,18.1,2.75,0.3062255147057608,0.5213731077117613,0.2177207973670375,0.2137345598964731,0.1539945177175759,0.31765769122830834
316,18.254,18.16,2.71,0.30577519720606144,0.5195812265691361,0.21587449803107175,0.21157257731582207,0.15351513790181495,0.31512851306996326
317,18.295,18.21,2.76,0.3053138991322034,0.5177921905482151,0.21402339059774983,0.20941148520424108,0.15302980277655057,0.31257668670503513
318,18.357,18.27,2.73,0.30484222289016927,0.5160069037561207,0.21216837534910768,0.2072526374595324,0.1525387142698631,0.31000386949494646
319,18.419,18.32,2.69,0.3043607774150391,0.5142262625911572,0.21031036080852578,0.2050973926444475,0.1520420786176669,0.3074117332729325
320,18.461,18.38,2.67,0.3038701776891306,0.5124511553668218,0.20845026326183247,0.2029471130178582,0.15154010625870298,0.30480196325435843
321,18.566,18.43,2.66,0.30337104426144773,0.5106824619523622,0.20658900627041094,0.20080316356210717,0.151033011728181,0.3021762569407691
322,18.586,18.49,2.62,0.30286400276896613,0.5089210534295385,0.20472752017643178,0.1986669110071626,0.15052101355014358,0.29953632301770805
323,18.67,18.54,2.55,0.3023496834602537,0.5071677917653493,0.20286674160032944,0.19653972285222335,0.15000433412860725,0.2968838802463754
324,18.691,18.6,2.58,0.30182872072187755,0.5054235295005517,0.20100761293062713,0.19442296638544698,0.14948319963751222,0.2942206563492136
325,18.733,18.65,2.52,0.3013017526079957,0.5036891094537873,0.199151081806185,0.1923180077024743,0.14895783990948047,0.2915483868894679
326,18.795,18.71,2.5,0.3007694203734619,0.501965364441005,0.19729810059090597,0.19022621072439883,0.1484284883233499,0.2888688141446656
327,18.835,18.76,2.53,0.3002323680106782,0.5002531170097229,0.19544962584088701,0.18814893621577647,0.14789538169041364,0.2861836859738302
328,18.898,18.82,2.55,0.29969124179033363,0.498553179187489,0.19360661776397253,0.1860875408032108,0.14735876013926286,0.28349475467815083
329,18.962,18.87,2.54,0.2991466898060758,0.496866352243763,0.19177003967166642,0.18404337599499712,0.14681886699910582,0.2808037758548383
330,19.045,18.93,2.55,0.2985993615231103,0.49519342646438486,0.1899408574233857,0.18201778720229064,0.14627594868142427,0.27811250724401
331,19.066,18.98,2.6,0.29804990733070535,0.49353518093787496,0.1881200388630904,0.18001211276228105,0.14573025455982958,0.2754227075686133
332,19.108,19.04,2.57,0.29749897809859893,0.49189238335297075,0.18630855324838236,0.17802768296389687,0.14518203684799139,0.2727361353675809
333,19.171,19.09,2.56,0.29694722473733376,0.49026578980707247,0.18450737067222656,0.17606581907661564,0.14463155047552456,0.27005454782259664
334,19.233,19.15,2.62,0.2963952977625735,0.4886561446255457,0.1827174614775044,0.17412783238300605,0.14407905296173457,0.26737969957900126
335,19.295,19.2,2.56,0.2958438468634817,0.4870641801920178,0.18093979566466029,0.17221502321566617,0.1435248042871331,0.2647133415614579
336,19.337,19.26,2.54,0.2952935204752664,0.48549061678987526,0.17917534229274826,0.1703286799992411,0.14296906676264765,0.2620572197850433
337,19.398,19.31,2.54,0.29474496535600253,0.4839361624551374,0.1774250688742195,0.16847007829821767,0.14241210489645487,0.2594130741624253
338,19.46,19.37,2.53,0.2941988261678497,0.4824015128407801,0.1756899407638189,0.16664047987119715,0.14185418525837248,0.2567826373077855
339,19.502,19.42,2.5,0.29365574506278647,0.480887351092462,0.17397092054197605,0.16484113173234374,0.14129557634173856,0.2541676333381753
340,19.564,19.48,2.45,0.2931163612729662,0.47939434773553363,0.1722689673930828,0.16307326522070575,0.1407365484226946,0.25156977667306546
341,19.625,19.53,2.47,0.2925813107057802,0.47792316057320416,0.17058503647904177,0.16133809507810623,0.1401773734167755,0.24899077083289942
342,19.686,19.59,2.42,0.2920512255436768,0.4764744345957342,0.1689200783084466,0.1596368185362923,0.13961832473268915,0.24643230723748266
343,19.77,19.64,2.38,0.2915267338487293,0.47504880190052945,0.1672750381017147,0.1579706144140208,0.13905967712314413,0.24389606400503944
344,19.791,19.7,2.46,0.2910084591718704,0.47364688162299706,0.1656508551524413,0.15634064222473995,0.1385017065325581,0.2413837047527529
345,19.854,19.75,2.44,0.2904970201666338,0.4722692798779451,0.16404846218520364,0.1547480412954965,0.13794468994145265,0.23889687739960444
346,19.896,19.81,2.44,0.28999303020718503,0.47091658971115974,0.16246878471002818,0.1531939298976526,0.1373889052073227,0.23643721297236595
347,19.938,19.86,2.48,0.2894970970103961,0.46958939106067227,0.16091274037374684,0.15167940438996982,0.13683463090176123,0.234006324415661
348,20.0,19.92,2.58,0.2890098222617352,0.46828825072713903,0.15938123830850362,0.15020553837460962,0.13628214614362957,0.23160580540708872
349,20.062,19.97,2.61,0.2885318012447862,0.46701372235274474,0.15787517847772975,0.14877338186660183,0.13573173042808337,0.22923722917851608
350,20.144,20.03,2.59,0.28806362247427747,0.4657663464081216,0.1563954510199691,0.14738396047734967,0.13518366345129823,0.22690214734478933
351,20.166,20.08,2.65,0.2876058673325648,0.4645466501869479,0.15494293559100022,0.14603827461276694,0.13463822493078964,0.22460208874122423
352,20.228,20.14,2.61,0.28715910970957187,0.4633551478080719,0.1535185007047574,0.14473729868667087,0.13409569442128227,0.22233855827129226
353,20.291,20.19,2.58,0.2867239156462365,0.46219234022518285,0.1521230030735965,0.14348198035007645,0.13355635112613712,0.22011303576594307
354,20.332,20.25,2.62,0.2863008429815382,0.4610587152441884,0.15075728694848126,0.14227323973705372,0.13302047370438638,0.21792697485599577
355,20.394,20.3,2.6,0.2858904410031968,0.45995474754848686,0.14942218345968242,0.14111196872780787,0.13248834007344884,0.21578180185898566
356,20.456,20.36,2.56,0.28549325010214055,0.45888089873225385,0.14811850995859127,0.1399990302296149,0.13196022720761297,0.21367891468176456
357,20.519,20.41,2.55,0.2851098014308325,0.4578376173417538,0.1468470693612471,0.1389352574762063,0.13143641093238595,0.21161968174001455
358,20.559,20.47,2.53,0.28474061656553196,0.4568253389245611,0.14560864949416255,0.13792145334614428,0.13091716571481368,0.20960544089563585
359,20.621,20.52,2.48,0.2843862071725535,0.45584448608644684,0.14440402244300385,0.1369583897006701,0.13040276444988075,0.2076374984127677
360,20.682,20.58,2.46,0.2840470746785655,0.4548954685555884,0.1432339439046458,0.1360468067414452,0.1298934782430925,0.2057171279330329
361,20.704,20.63,2.53,0.28372370994495283,0.4539786832536987,0.14209915254307665,0.13518741238854143,0.12938957618933117,0.20384556947048507
362,20.766,20.69,2.5,0.28341659294623756,0.45309451437359005,0.14100036934960025,0.13438088167896808,0.12889132514806548,0.20202402842667722
363,20.829,20.74,2.5,0.28312619245254406,0.452243333462558,0.13993829700777047,0.13362785618596554,0.1283989895149857,0.2002536746262674
364,20.87,20.8,2.57,0.28285296571609736,0.45142549951082117,0.13891361926350826,0.13292894345925169,0.12791283099014336,0.19853564137359045
365,20.933,20.85,2.56,0.28259735816177733,0.4506413590440975,0.13792700030088145,0.13228471648638007,0.12743310834269322,0.1968710245306325
366,20.996,20.91,2.56,0.28235980308179237,0.4498912462193198,0.1369790841240643,0.13169571317535878,0.12696007717236327,0.19526088161686564
367,21.036,20.96,2.56,0.28214072133457746,0.4491754829224981,0.13607049394602544,0.13116243585869897,0.1264939896678096,0.1937062309314231
368,21.099,21.02,2.57,0.2819405210480674,0.44849437886779836,0.13520183158451685,0.13068535081911503,0.1260350943620497,0.19220805069811375
369,21.161,21.07,2.53,0.281759597327553,0.44784823169697663,0.1343736768659544,0.13026488783716433,0.12558363588520172,0.1907672782338312
370,21.243,21.13,2.46,0.28159833196838124,0.44723732707840924,0.13358658703779727,0.12990143976117527,0.125139854714782,0.1893848091410267
371,21.264,21.18,2.51,0.28145709317380563,0.44666193880508326,0.13284109619003687,0.12959536209986688,0.12470398692383322,0.18806149652505613
372,21.326,21.24,2.44,0.28133623527832446,0.4461223288910228,0.13213771468640126,0.12934697263809347,0.12427626392716007,0.1867981502373396
373,21.367,21.29,2.38,0.28123609847685566,0.44561874766568393,0.13147692860586438,0.12915655107615082,0.12385691222594819,0.18559553614536575
374,21.428,21.35,2.4,0.281157008560085,0.4451514338658432,0.130859199195019,0.12902433869305777,0.12344615315102825,0.1844543754306068
375,21.511,21.4,2.37,0.281099276656295,0.4447206147244093,0.13028496233183884,0.12895053803415762,0.12304420260503322,0.18337534391538715
376,21.533,21.46,2.36,0.28106319897994303,0.44432650605544655,0.1297546280013197,0.12893531262327898,0.12265127080367595,0.1823590714197213
377,21.615,21.51,2.37,0.28104905658719753,0.4439693123346031,0.12926857978345058,0.12897878669958446,0.12226756201635605,0.18140614114912382
378,21.655,21.57,2.41,0.28105711513859544,0.44364922677411284,0.12882717435393207,0.12908104497916112,0.12189327430629346,0.18051708911441097
379,21.696,21.62,2.4,0.28108762466895865,0.44336643139156856,0.12843074099804538,0.1292421324413841,0.12152859927038612,0.17969240358459496
380,21.76,21.68,2.38,0.28114081936471325,0.4431210970717547,0.12807958113807696,0.12946205414010742,0.12117372177899911,0.17893252457410547
381,21.803,21.73,2.45,0.2812169173487965,0.4429133836209255,0.1277739678747274,0.12974077503978476,0.12082881971591411,0.17823784336571988
382,21.863,21.79,2.42,0.2813161204734005,0.44274343981297326,0.1275141455429617,0.13007821987666807,0.12049406371869248,0.17760870207069718
383,21.926,21.84,2.39,0.28143861412087234,0.44261140342691774,0.12730032928279306,0.13047427304526535,0.12016961691973398,0.1770453932277053
384,21.988,21.9,2.42,0.28158456701315604,0.4425174012751126,0.12713270462551723,0.130928778510259,0.11985563468833678,0.17654815944219576
385,22.029,21.95,2.39,0.28175413103021363,0.4424615492214753,0.1270114270959438,0.13144153974408518,0.11955226437408847,0.17611719306793922
386,22.091,22.01,2.44,0.28194744103790564,0.44244395218896726,0.126936621831191,0.13201231969035518,0.11925964505193472,0.17575263593251317
387,22.153,22.06,2.55,0.28216461472582816,0.4424647041555406,0.12690838321662157,0.13264084075328714,0.11897790726928612,0.17545457910858683
388,22.194,22.12,2.54,0.28240575245560795,0.4425238881378408,0.12692677453949286,0.13332678481332036,0.11870717279554542,0.1752230627327408
389,22.256,22.17,2.49,0.2826709371201433,0.4426215761620697,0.12699182766087502,0.1340697932690943,0.11844755437447695,0.17505807587318584
390,22.339,22.23,2.43,0.28296023401425446,0.4427578292215775,0.12710354270636198,0.13486946710597567,0.1181991554798969,0.17495955644715103
391,22.38,22.28,2.47,0.28327369071716113,0.4429326972209181,0.12726188777605477,0.1357253669913024,0.11796207007522096,0.17492739118807593
392,22.441,22.34,2.42,0.2836113369871511,0.44314621890624295,0.12746679867424637,0.13663701339647238,0.11773638237743968,0.17496141566224108
393,22.483,22.39,2.4,0.2839731846687283,0.4433984217819878,0.12771817865918564,0.13760388674593316,0.11752216662610142,0.1750614143341421
394,22.543,22.45,2.42,0.28435922761246013,0.4436893220138098,0.12801589821326032,0.1386254275930361,0.11731948685787809,0.17522712067970142
395,22.583,22.5,2.41,0.28476944160769263,0.4440189243176671,0.12835979483392915,0.1397010368226238,0.11712839668729012,0.17545821734629705
396,22.644,22.56,2.41,0.28520378432828475,0.44438722183484747,0.12874967284574224,0.14083007588014976,0.11694893909416985,0.17575433635859614
397,22.728,22.61,2.4,0.28566219529152054,0.4447941959927493,0.12918530323380795,0.14201186702711532,0.11678114621844977,0.17611505936929397
398,22.748,22.67,2.43,0.28614459583039115,0.445239816351331,0.12966642349908222,0.1432456936226396,0.11662503916287612,0.17653991795400878
399,22.809,22.72,2.4,0.28665088907947833,0.44572404043535535,0.13019273753586796,0.14453080043103578,0.11648062780426434,0.17702839394970699
400,22.851,22.78,2.35,0.2871809599747027,0.4462468135529404,0.130763915531922,0.14586639395533457,0.11634791061393346,0.17757991983609733
401,22.934,22.83,2.39,0.28773467526720853,0.44680806860145034,0.13137959389157378,0.14725164279675973,0.11622687448797536,0.17819387915941048
402,22.975,22.89,2.3,0.2883118835516472,0.44740772586229793,0.1320393751822688,0.14868567804019212,0.11611749458803226,0.17886960699788437
403,23.017,22.94,2.26,0.2889124153091147,0.44804569278656947,0.13274282810495264,0.15016759366565063,0.11601973419326077,0.17960639046815385
404,23.081,23.0,2.24,0.2895360829649892,0.4487218637735011,0.13348948748870545,0.15169644698577361,0.11593354456415858,0.18040346927163645
405,23.143,23.05,2.2,0.29018268096190525,0.44943611994376226,0.1342788543100148,0.153271259109221,0.11585886481891469,0.18126003627993617
406,23.184,23.11,2.14,0.29085198584807614,0.45018832890939314,0.13511039573703928,0.15489101542984926,0.11579562182291785,0.18217523815827721
407,23.246,23.16,2.11,0.2915437563811351,0.45097834454220004,0.13598354519916658,0.1565546661414466,0.11574373009202438,0.18314817602600508
408,23.309,23.22,2.13,0.2922577336476114,0.45180600674240246,0.13689770248211133,0.15826112677774248,0.11570309171015081,0.18417790615321536
409,23.371,23.27,2.09,0.2929936411981205,0.4526711412092008,0.13785223384874457,0.1600092787773315,0.11567359626171679,0.18526344069259543
410,23.455,23.33,2.06,0.29375118519834237,0.45357355921460685,0.13884647218579887,0.161797970073104,0.11565512077942969,0.18640374844559734
411,23.476,23.38,2.12,0.29453005459588716,0.4545130573814258,0.13987971717656267,0.1636260157057849,0.11564752970787423,0.18759775566209078
412,23.518,23.44,2.07,0.2953299213031971,0.4554894174658942,0.14095123549966643,0.1654921984612116,0.11565067488335301,0.1888443468726676
413,23.58,23.49,2.04,0.29615044039667077,0.45650240614524035,0.14206026105407135,0.1673952695309979,0.11566439553041058,0.1901423657528079
414,23.661,23.55,2.06,0.2969912503322303,0.45755177481034276,0.14320599521039123,0.1693339491962248,0.11568851827546585,0.19149061601814774
415,23.682,23.6,2.01,0.2978519731775648,0.45863725936359595,0.14438760708869772,0.17130692753379143,0.11572285717796937,0.19288786235011504
416,23.743,23.66,1.97,0.2987322148612972,0.45975858002206177,0.14560423386297805,0.1733128651450611,0.11576721377949015,0.19433283135124468
417,23.827,23.71,1.94,0.2996315654393147,0.4609154411260276,0.14685498109242404,0.17535039390645524,0.11582137717111789,0.19582421252954862
418,23.849,23.77,1.94,0.3005495993784919,0.4621075309532156,0.1481389230797348,0.1774181177416734,0.11588512407953847,0.19736065931137767
419,23.908,23.82,1.89,0.3014858758580235,0.4633345215390288,0.14945510325661157,0.17951461341523461,0.1159582189721042,0.19894079008226323
420,23.949,23.88,1.81,0.3024399390885581,0.46459606850337276,0.1508025345966066,0.18163843134704175,0.11604041418117907,0.2005631892552665
421,24.033,23.93,1.84,0.30341131864928583,0.46589181088469794,0.15218020005546065,0.18378809644766908,0.11613145004799641,0.20222640836634448
422,24.074,23.99,1.77,0.30439952984307855,0.4672213709819568,0.15358705303902428,0.18596210897404195,0.11623105508622075,0.20392896719615378
423,24.115,24.04,1.73,0.30540407406970704,0.4685843542051231,0.15502201789881023,0.1881589454051139,0.11633894616535147,0.2056693549175768
424,24.177,24.1,1.76,0.306424439217075,0.46998034893480595,0.15648399045516528,0.19037705933706894,0.11645482871405036,0.20744603126811434
425,24.262,24.15,1.76,0.30746010007032853,0.4714089263912846,0.15797183854798763,0.19261488239753596,0.116578396943418,0.20925742774618428
426,24.303,24.21,1.73,0.30851051873863145,0.472869640513088,0.15948440261485292,0.19487082517835216,0.11670933409019402,0.21110194883035063
427,24.345,24.26,1.73,0.3095751450993453,0.47436202784516746,0.1610204962963594,0.19714327818655059,0.1168473126798137,0.21297797322056813
428,24.407,24.32,1.75,0.3106534172593243,0.4758856074367515,0.16257890706846867,0.19943061281340255,0.11699199480922236,0.21488385510061495
429,24.469,24.37,1.71,0.31174476203303253,0.4774398807490716,0.1641583969016123,0.2017311823214457,0.1171430324493218,0.2168179254209915
430,24.551,24.43,1.68,0.31284859543720495,0.47902433157325597,0.16575770294633674,0.20404332284947088,0.11730006776689532,0.21877849320167328
431,24.572,24.48,1.73,0.31396432320179085,0.48063842595877887,0.16737553824526882,0.20636535443545212,0.1174627334658286,0.22076384685419218
432,24.613,24.54,1.68,0.31509134129693106,0.48228161215287507,0.16901059247118697,0.20869558205738692,0.11763065314741121,0.2227722555225702
433,24.675,24.59,1.65,0.31622903647572254,0.4839533205512665,0.17066153269098275,0.21103229669198234,0.11780344168946982,0.22480197044263375
434,24.738,24.65,1.65,0.3173767868325036,0.4856529636604175,0.17232700415528615,0.21337377639106975,0.11798070564404921,0.22685122631917315
435,24.78,24.7,1.61,0.3185339623763631,0.48737993607135244,0.17400563111350914,0.21571828737557194,0.11816204365332104,0.22891824272027297
436,24.842,24.76,1.58,0.31969992561952737,0.4891336144448899,0.17569601765403453,0.2180640851467608,0.11834704688335604,0.23100122548798643
437,24.946,24.81,1.57,0.3208740321802114,0.49091335750804205,0.17739674856923948,0.22040941561446617,0.11853529947534437,0.2330983681643839
438,24.967,24.87,1.59,0.32205563139944127,0.4927185060613121,0.17910639024499372,0.22275251624182224,0.11872637901379275,0.23520785343186712
439,25.03,24.92,1.58,0.32324406697127167,0.4945483829966571,0.18082349157421812,0.22509161720606718,0.11891985701117047,0.23732785456650082
440,25.051,24.98,1.56,0.3244386775857408,0.496402293325966,0.18254658489403916,0.22742494257484958,0.11911529940842298,0.23945653690300717
441,25.113,25.03,1.62,0.3256387975838408,0.49827952422000693,0.18427418694604095,0.2297507114974412,0.11931226709072633,0.24159205931000502
442,25.174,25.09,1.6,0.32684375762374224,0.5001793450578838,0.18600479985909976,0.23206713941021867,0.1195103164178197,0.2437325756740681
443,25.216,25.14,1.59,0.328052885357488,0.502101007487115,0.1877369121542881,0.23437243925574308,0.11970899976822161,0.24587623639121414
444,25.279,25.2,1.62,0.32926550611735833,0.5040437454944989,0.1894689997713411,0.23666482271474243,0.11990786609660904,0.24802118986448624
445,25.34,25.25,1.65,0.3304809436111064,0.5060067754879173,0.1911995271161901,0.23894250145026366,0.12010646150361648,0.25016558400633176
446,25.383,25.31,1.63,0.3316985206252598,0.5079892963892,0.19292694812907107,0.24120368836321482,0.12030432981728809,0.2523075677445434
447,25.446,25.36,1.63,0.3329175597356716,0.5099904897381708,0.1946497073727142,0.2434465988584815,0.12050101318539566,0.25444529253059806
448,25.508,25.42,1.66,0.3341373840244904,0.512009519808076,0.19636624114010512,0.2456694521207825,0.12069605267781564,0.2565769138492787
449,25.57,25.47,1.64,0.3353573178026973,0.5140455337327049,0.19807497858128673,0.24787047239942575,0.12088898889813893,0.2587005927284736
450,25.654,25.53,1.59,0.336576687337322,0.5160976616456824,0.19977434284864104,0.2500478903011181,0.12107936260366363,0.2608144972480204
451,25.675,25.58,1.64,0.33779482158240337,0.5181650168325396,0.20146275226005245,0.25219994408996926,0.12126671533289152,0.2629168040463841
452,25.716,25.64,1.61,0.33901105291269956,0.5202466958962311,0.20313862147930795,0.25432488099378037,0.12145059003961564,0.2650056998238159
453,25.779,25.69,1.61,0.3402247178590837,0.522341778936709,0.2048003627130372,0.25642095851563285,0.12163053173264897,0.2670793828404659
454,25.82,25.75,1.66,0.34143515784449363,0.5244493297450319,0.20644638692343759,0.25848644574969804,0.12180608812020341,0.26913606440774585
455,25.883,25.8,1.7,0.3426417199192468,0.5265683960122755,0.20807510505597335,0.2605196247000942,0.12197681025789192,0.2711739703710992
456,25.944,25.86,1.72,0.3438437574944968,0.528698009553308,0.20968492928120086,0.26251879160153513,0.12214225319929721,0.273191342582286
457,26.026,25.91,1.75,0.3450406310725984,0.5308371865453846,0.21127427424985049,0.2644822582404637,0.12230197664803458,0.2751864403593313
458,26.047,25.97,1.8,0.3462317089731564,0.5329849277815535,0.2128415583602939,0.266408353275359,0.12245554561023327,0.2771575419323711
459,26.109,26.02,1.82,0.34741636805357357,0.5351402189390142,0.21438520503753175,0.26829542355492625,0.12260253104636896,0.279102945873751
460,26.151,26.08,1.82,0.3485939944229686,0.5373020308627593,0.21590364402284676,0.2701418354329162,0.1227425105213897,0.2810209725108739
461,26.214,26.13,1.91,0.34976398414840726,0.5394693198650092,0.21739531267327677,0.27194597607835147,0.12287506885209058,0.28290996532042917
462,26.274,26.19,1.89,0.35092574395245896,0.5416410280410529,0.2188586572700679,0.27370625477994776,0.12299979875070617,0.28476829230273926
463,26.399,26.24,1.89,0.35207869190114993,0.5438160836021108,0.22029213433526795,0.27542110424350474,0.12311630146370302,0.2865943473350082
464,26.419,26.3,1.93,0.3532222580814199,0.5459934012257759,0.22169421195561026,0.2770889818810221,0.12322418740476888,0.2883865515022694
465,26.44,26.35,1.92,0.3543558852672145,0.5481718824244808,0.22306337111282135,0.2787083710902583,0.12332307678100536,0.2901433544048129
466,26.502,26.41,1.9,0.35547902957335314,0.5503504159323458,0.22439810701945534,0.28027778252343455,0.12341260021133547,0.2918632354408757
467,26.563,26.46,1.89,0.35659116109629896,0.5525278781107344,0.225696930459313,0.2817957553437913,0.12349239933613515,0.2935447050633983
468,26.605,26.52,1.93,0.35769176454093315,0.5547031333728693,0.22695836913144152,0.28326085846873095,0.12356212741709056,0.2951863060096926
469,26.687,26.57,1.95,0.3587803398323991,0.5568750346279198,0.22818096899664791,0.28467169179827573,0.12362144992626829,0.29678661450293603
470,26.749,26.63,1.97,0.3598564027120361,0.5590424237450361,0.22936329562538854,0.2860268874275518,0.12367004512336786,0.2983442414245025
471,26.769,26.68,2.06,0.3609194853163837,0.5612041320378508,0.23050393554582901,0.28732511084201323,0.12370760462011673,0.2998578334562103
472,26.851,26.74,2.07,0.36196913673821673,0.5633589807699498,0.23160149759080528,0.28856506209418714,0.12373383393077142,0.30132607419158564
473,26.871,26.79,2.1,0.363004923568588,0.5655057816817312,0.23265461424236367,0.2897454769608312,0.12374845300770862,0.30274768521523926
474,26.934,26.85,2.17,0.3640264304189008,0.5676433375389339,0.23366194297252987,0.29086512807950393,0.12375119676112165,0.3041214271494687
475,26.974,26.9,2.19,0.3650332604221107,0.5697704427029501,0.23462216757895132,0.2919228260636116,0.12374181556187555,0.3054461006672546
476,27.035,26.96,2.22,0.3660250357122444,0.5718858837228802,0.23553399951406814,0.29291742059502635,0.12372007572661467,0.30672054747092975
477,27.117,27.01,2.26,0.367001397881507,0.5739884399492495,0.23639617920646877,0.2938478014934058,0.12368575998425876,0.30794365123595174
478,27.138,27.07,2.3,0.36796200841431637,0.5760768841693594,0.23720747737306708,0.2947128997614143,0.12363866792306806,0.3091143385193606
479,27.2,27.12,2.3,0.36890654909767007,0.5781499832643757,0.23796669632070597,0.2955116886051235,0.12357861641750097,0.31023157963265124
480,27.263,27.18,2.28,0.3698347224073096,0.5802064988884097,0.23867267123576366,0.29624318442893033,0.12350544003413202,0.3112943894789072
481,27.325,27.23,2.35,0.37074625186920307,0.5822451881699664,0.23932427146032836,0.29690644780434444,0.12341899141593622,0.31230182835413983
482,27.366,27.29,2.31,0.37164088239592213,0.5842648044361468,0.2399204017535047,0.29750058441196653,0.12331914164427912,0.31325300271282996
483,27.427,27.34,2.28,0.37251838059753545,0.5862640979598864,0.24046000353640687,0.2980247459559184,0.12320578057797861,0.31414706589768077
484,27.531,27.4,2.33,0.3733785350666712,0.5882418167303041,0.24094205611936836,0.2984781310499124,0.1230788171688235,0.3149832188335265
485,27.55,27.45,2.33,0.37422115663741495,0.5901967072459384,0.24136557790985974,0.2988599860740632,0.122938179752951,0.31576071068522327
486,27.591,27.51,2.34,0.37504607861770634,0.5921275153303565,0.24172962759955385,0.29916960600145726,0.12278381631749463,0.31647883947922717
487,27.654,27.56,2.37,0.37585315699487765,0.5940329869693902,0.24203330532892264,0.2994063351934128,0.12261569474192473,0.31713695268846925
488,27.696,27.62,2.47,0.37664227061395655,0.5959118691691145,0.24227575382769773,0.29956956816231334,0.12243380301352,0.31773444778009413
489,27.756,27.67,2.48,0.3774133213283583,0.5977629108335836,0.2424561595294937,0.2996587503008665,0.12223814941643646,0.3182707727256256
490,27.858,27.73,2.48,0.37816623412262623,0.5995848636613098,0.24257375365888034,0.29967337857665016,0.12202876269388033,0.31874542647313475
491,27.879,27.78,2.58,0.37890095720693473,0.6013764830595132,0.24262781328918998,0.29961300219084197,0.12180569218294769,0.3191579593809194
492,27.92,27.84,2.57,0.3796174620831528,0.603136529075227,0.24261766236936022,0.2994772232000839,0.1215690079217599,0.3195079736120817
493,27.982,27.89,2.57,0.3803157435823492,0.6048637673423648,0.24254267271812205,0.2992656971004908,0.12131880072859041,0.31979512348927713
494,28.044,27.95,2.71,0.3809958198737114,0.606556970043793,0.2424022649838435,0.29897813337289597,0.12105518225274424,0.320019115808822
495,28.108,28.0,2.7,0.38165773244493206,0.608214916887288,0.24219590956832715,0.2986142959885321,0.12077828499701507,0.3201797101132776
496,28.13,28.06,2.7,0.38230154605419614,0.6098363960940202,0.2419231275128396,0.2981740038744458,0.12048826231161286,0.3202767189215597
497,28.234,28.11,2.7,0.38292734865396005,0.6114202053980156,0.24158349134463894,0.29765713133800537,0.12018528835952719,0.3203100079155545
498,28.255,28.17,2.7,0.3835352512867639,0.6129651530549062,0.2411766258822641,0.29706360844986807,0.11986955805336812,0.32027949608216005
499,28.297,28.22,2.66,0.3841253879533518,0.614470058858212,0.24070220899786043,0.2963934213847603,0.11954128696379386,0.32018515580964624
500,28.358,28.28,2.62,0.3846979154534019,0.615933755161376,0.24015997233482347,0.295646612719411,0.11920071119968426,0.32002701293725444
501,28.42,28.33,2.67,0.3852530131991765,0.6173550879037445,0.23954970197903983,0.2948232816869729,0.11884808726025164,0.3198051467570146
502,28.483,28.39,2.62,0.3857908830024118,0.6187329176385694,0.2388712390819881,0.2939235843872462,0.11848369185930398,0.3195196899667803
503,28.526,28.44,2.59,0.38631174883475045,0.620066120560897,0.2381244804339331,0.29294773395197227,0.11810782172188931,0.31917082857345125
504,28.589,28.5,2.65,0.3868158565619997,0.6213535895329223,0.23730937898540935,0.2918960006644056,0.11772079335356478,0.31875880174523535
505,28.652,28.55,2.67,0.3873034736524691,0.6225942351040631,0.2364259443151583,0.29076871203229104,0.1173229427825516,0.3182839016116712
506,28.693,28.61,2.66,0.3877748888596192,0.6237869865227086,0.23547424304267492,0.28956625281330955,0.11691462527506208,0.3177464730100731
507,28.778,28.66,2.7,0.3882304118792507,0.6249307927364148,0.23445439918354197,0.28828906499201556,0.11649621502411847,0.3171469131771076
508,28.796,28.72,2.72,0.38867037298147655,0.6260246233772914,0.23336659444580016,0.2869376477073095,0.11606810481223177,0.3164856713843322
509,28.858,28.77,2.71,0.3890951226177563,0.6270674697294679,0.23221106846572115,0.28551255712953905,0.11563070564836392,0.3157632485167112
510,28.983,28.83,2.66,0.38950503100331657,0.628058345675811,0.23098811898150778,0.2840144062863901,0.11518444637965417,0.3149801965933606
511,29.003,28.88,2.72,0.38990048767533286,0.6289962886213596,0.22969810194363352,0.28244386483677486,0.114729773278445,0.3141371182300179
512,29.024,28.94,2.68,0.39028190102731003,0.6298803603911682,0.2283414315607329,0.2808016587919531,0.11426714960519196,0.3132346660429745
513,29.066,28.99,2.66,0.3906496978201606,0.6307096481003638,0.22691858028016126,0.27908857018316996,0.1137970551478818,0.31227354199445206
514,29.127,29.05,2.68,0.3910043226705248,0.6314832649943305,0.22543007870254866,0.2773054366752028,0.113319985738619,0.31125449667964034
515,29.188,29.1,2.63,0.3913462375169045,0.6322003512570766,0.22387651542988948,0.27545315112533814,0.11283645274807501,0.31017832855582195
516,29.251,29.16,2.59,0.3916759210641889,0.6328600747860214,0.22225853684692093,0.2735326610874366,0.11234698255852389,0.3090458831141934
517,29.333,29.21,2.57,0.3919938682071356,0.6334616319316716,0.22057684683573836,0.2715449682608739,0.11185211601621314,0.3078580519951718
518,29.353,29.27,2.56,0.3923005894333576,0.6340042482008982,0.2188322064237581,0.2694911278842783,0.11135240786383553,0.30661577204813845
519,29.415,29.32,2.53,0.3925966102063481,0.6344871789227499,0.2170254333652785,0.2673722480741124,0.11084842615387797,0.30532002433670474
520,29.476,29.38,2.5,0.3928824703290588,0.6349097098760381,0.21515740165700709,0.2651894891082717,0.11034075164362997,0.30397183309070597
521,29.539,29.43,2.55,0.39315872328853363,0.6352711578782545,0.21322904098803774,0.2629440626550144,0.10982997717263991,0.30257226460624465
522,29.56,29.49,2.54,0.3934259355821111,0.6355708713357345,0.21124133612488005,0.2606372309476855,0.10931670702341663,0.3011224260952512
523,29.622,29.54,2.52,0.3936846860257446,0.6358082307552915,0.20919532623226567,0.2582703059058637,0.10880155626618902,0.2996234644862111
524,29.704,29.6,2.57,0.3939355650450554,0.6359826492178066,0.2070921041305643,0.2558446482037321,0.10828515008856261,0.29807656517786074
525,29.746,29.65,2.54,0.39417917394982205,0.6360935728144185,0.2049328154907297,0.25336166628662316,0.10776812311094869,0.2964829507477396
526,29.807,29.71,2.51,0.3944161241927155,0.6361404810460196,0.20271865796776758,0.2508228153368009,0.10725111868868405,0.294843879617513
527,29.87,29.76,2.51,0.3946470366132012,0.6361228871867809,0.2004508802737805,0.24822959618960966,0.10673478820179923,0.2931606446769917
528,29.912,29.82,2.49,0.394872540667645,0.6360403386124283,0.19813078119170455,0.2455835542011543,0.10621979033343046,0.29143457186880384
529,29.972,29.87,2.45,0.39509327364677066,0.6358924170940194,0.1957597085309143,0.24288627806869212,0.10570679033789714,0.2896670187357526
530,30.096,29.93,2.38,0.39530987988171074,0.6356787390580935,0.19333905802592694,0.240139398604939,0.10519645929948757,0.28785937293300284
531,30.117,29.98,2.39,0.39552300993995404,0.6353989558143175,0.19087027217949296,0.23734458746753023,0.10468947338300952,0.2860130507073523
532,30.138,30.04,2.32,0.39573331981253396,0.6350527537520342,0.1883548390514166,0.2345035558449255,0.10418651307716653,0.28412949534596554
533,30.179,30.09,2.25,0.3959414700938112,0.6346398545073867,0.18579429099451453,0.23161805310009784,0.10368826243181535,0.2822101755970732
534,30.241,30.15,2.29,0.39614812515519837,0.634160015102875,0.18319020333918357,0.22868986537339428,0.10319540829014659,0.28025658406524556
535,30.303,30.2,2.26,0.3963539523141459,0.6336130280612242,0.18054419302811736,0.2257208141459922,0.10270863951681328,0.27827023558391434
536,30.365,30.26,2.25,0.39655962099968,0.6329987214953318,0.17785791720278588,0.22271275476540842,0.10222864622301582,0.27625266556785266
537,30.427,30.31,2.27,0.39676580191573757,0.6323169591758808,0.17513307174338075,0.2196675749345607,0.10175611898954215,0.27420542834834166
538,30.447,30.37,2.26,0.39697316620351486,0.6315676405780358,0.17237138976404248,0.21658719316595262,0.101291748088765,0.2721300954937548
539,30.51,30.42,2.23,0.3971823846040413,0.6307507009085082,0.16957464006531892,0.21347355720265795,0.10083622270661127,0.2700282541183352
540,30.571,30.48,2.22,0.397394126622202,0.6298661111142686,0.16674462554595135,0.21032864240792978,0.1003902301655365,0.26790150518205436
541,30.613,30.53,2.25,0.3976090596934597,0.6289138778742943,0.16388318157622653,0.20715445012543815,0.09995445514955575,0.2657514617846138
542,30.696,30.59,2.21,0.3978278483545514,0.6278940435758922,0.16099217433526297,0.2039530060123234,0.0995295789323982,0.2635797474568383
543,30.717,30.64,2.15,0.3980511534194582,0.6268066862773108,0.15807349911471155,0.20072635834741706,0.09911627860986714,0.26138799445284283
544,30.799,30.7,2.17,0.39827963116195064,0.6256519196584701,0.15512907859143524,0.19747657631712223,0.09871522633750225,0.25917784204638444
545,30.84,30.75,2.11,0.39851393250601796,0.6244298929616582,0.1521608610717941,0.19420574828154538,0.0983270885746505,0.2569509348347328
546,30.902,30.81,2.04,0.39875470222548315,0.6231407909239509,0.14917081871018928,0.19091598002352123,0.09795252533605524,0.25470892105325793
547,30.943,30.86,2.0,0.399002578154102,0.6217848337029429,0.14616094570451313,0.18760939298318408,0.09759218945206172,0.2524534509037499
548,31.005,30.92,1.95,0.39925819040743066,0.6203622767971523,0.14313325647111233,0.18428812248070844,0.09724672583852,0.25018617489926337
549,31.068,30.97,1.87,0.3995221606177294,0.6188734109621746,0.1400897838018092,0.1809543159297738,0.09691677077743453,0.24790874222806142
550,31.172,31.03,1.83,0.3997951011831462,0.617318562123379,0.13703257700544483,0.17761013104420675,0.09660295120936743,0.24562279913904658
551,31.194,31.08,1.85,0.40007761453238105,0.6156980912856735,0.1339637000363108,0.17425773404013853,0.0963058840385522,0.24332998735091346
552,31.214,31.14,1.83,0.40037029240597766,0.6140123944406406,0.13088522961173332,0.1708992978358691,0.09602617545162298,0.24103194248712886
553,31.277,31.19,1.8,0.40067371515532024,0.6122619024711736,0.1277992533209766,0.16753700025147605,0.0957644202508176,0.23873029253874262
554,31.337,31.25,1.85,0.4009884510603368,0.6104470810536725,0.12470786772755456,0.1641730222100609,0.09552120120247963,0.23642665635693444
555,31.398,31.3,1.8,0.40131505566684644,0.6085684305577957,0.12161317646699234,0.1608095459424126,0.09529708840166634,0.23412264217709866
556,31.46,31.36,1.78,0.40165407114444923,0.6066264859436746,0.1185172883420621,0.1574487531967835,0.09509263865366148,0.23181984617617832
557,31.543,31.41,1.78,0.4020060256658478,0.6046218166563467,0.11542231541751982,0.15409282345541206,0.09490839487318704,0.2295198510648998
558,31.564,31.47,1.76,0.40237143280850557,0.6025550265169414,0.11233037111637673,0.150743932159368,0.09474488550210261,0.22722422471652742
559,31.624,31.52,1.73,0.4027507909795741,0.6004267536099281,0.10924356831973767,0.1474042489432231,0.09460262394636909,0.22493451883374987
560,31.666,31.58,1.7,0.4031445828650477,0.5982376701655716,0.10616401747222408,0.14407593588097078,0.09448210803303926,0.2226522676552992
561,31.727,31.63,1.71,0.4035532749041138,0.5959884824366466,0.1030938246949668,0.14076114574454426,0.09438381948801877,0.22037898670383113
562,31.789,31.69,1.63,0.4039773167896711,0.593679930568422,0.10003508990811466,0.13746202027622315,0.09430822343532118,0.21811617157644886
563,31.83,31.74,1.56,0.4044171409959612,0.5913127884608923,0.09698990496475288,0.13418068847616935,0.09425576791851399,0.21586529677904037
564,31.913,31.8,1.55,0.40487316233422743,0.588887863622191,0.09396035179807113,0.13091926490628608,0.09422688344501977,0.21362781460535543
565,31.934,31.85,1.48,0.40534577753726025,0.5864059970120049,0.0909485005835547,0.12767984801152663,0.09422198255389186,0.2114051540614979
566,31.995,31.91,1.43,0.40583536487362887,0.583868062873563,0.08795640791789958,0.1244645184596826,0.09424145940762588,0.209198719836267
567,32.036,31.96,1.45,0.40634228379232284,0.5812749685524677,0.0849861150162646,0.12127533750056343,0.09428568940850336,0.2070098913175372
568,32.098,32.02,1.45,0.40686687459844706,0.5786276543002746,0.08203964592938744,0.11811434534534537,0.0943550288398961,0.2048400216546425
569,32.161,32.07,1.43,0.4074094581605238,0.5759270930604466,0.07911900578201603,0.11498355956674156,0.09444981453289941,0.2026904368665733
570,32.265,32.13,1.41,0.40797033564986995,0.5731742902342003,0.07622617903405086,0.11188497352054158,0.09457036355861007,0.200562434995708
571,32.285,32.18,1.44,0.40854978831244615,0.5703702834238429,0.07336312776575439,0.10882055478899955,0.09471697294632775,0.19845728530674703
572,32.327,32.24,1.4,0.4091480772735178,0.5675161421514583,0.07053178998836239,0.10579224364650629,0.09488991942792847,0.19637622753049686
573,32.388,32.29,1.37,0.40976544337541215,0.5646129675511719,0.0677340779814198,0.10280195154796341,0.09508945920863231,0.19432047115216358
574,32.43,32.35,1.41,0.4104021070485998,0.5616618920336082,0.06497187665815672,0.09985155964029285,0.0953158277643601,0.19229119474381987
575,32.494,32.4,1.34,0.41105826821626745,0.5586640789214512,0.06224704196021028,0.09694291729756754,0.09556923966584469,0.1902895453406667
576,32.555,32.46,1.31,0.4117341062324811,0.5556207220552073,0.05956139928297305,0.09407784068034135,0.09584988842962623,0.18831663786061448
577,32.659,32.51,1.3,0.4124297798539619,0.5525330453683954,0.056916741932801364,0.09125811131989231,0.09615794639602264,0.1863735545665528
578,32.679,32.57,1.26,0.4131454272454068,0.5494023024314538,0.054314829617247644,0.08848547472825993,0.0964935646341208,0.18446134457048852
579,32.7,32.62,1.22,0.4138811660181804,0.5462297759636906,0.05175738696939771,0.0857616390351064,0.09685687287378161,0.1825810233785501
580,32.762,32.68,1.2,0.4146370933021011,0.5430167773126562,0.04924610210730826,0.08308827365252348,0.09724797946459157,0.18073357247571115
581,32.846,32.73,1.24,0.4154132858499339,0.5397646459003618,0.04678262522946148,0.08046700796893139,0.09766697136162966,0.17891993894897915
582,32.866,32.79,1.23,0.41620980017411363,0.5364747486358057,0.04436856724708996,0.07789943007319727,0.09811391413785338,0.17714103514773719
583,32.929,32.84,1.22,0.4170266727151358,0.5331484792933193,0.04200549845418307,0.07538708551007425,0.0985888520228489,0.17539773837991393
584,32.992,32.9,1.29,0.41786392004098094,0.5297872578563476,0.039694947235968316,0.07293147606804384,0.09909180796764348,0.17369089064264664
585,33.033,32.95,1.28,0.4187215390768774,0.5263925298263754,0.03743839881666297,0.07053405860063854,0.09962278373524412,0.1720212983860775
586,33.095,33.01,1.27,0.4195995073646679,0.5229657654967985,0.03523729404730462,0.06819624388232828,0.1001817600165401,0.17038973230890297
587,33.136,33.06,1.31,0.4204977833510151,0.5195084591915846,0.03309302823448572,0.06591939550007576,0.10076869657118918,0.16879692718429862
588,33.198,33.12,1.33,0.42141630670366403,0.5160221284685735,0.031006950010837652,0.06370482878168293,0.10138353239308923,0.1672435817148816
589,33.26,33.17,1.32,0.42235499865496834,0.5125083132872215,0.028980360248132546,0.06155380976205451,0.10202618590001954,0.16573035841545047
590,33.321,33.23,1.32,0.4233137623718615,0.5089685751406241,0.027014511013890193,0.05946755418848948,0.10269655514701793,0.16425788352233384
591,33.383,33.28,1.35,0.4242924833514215,0.5054044961517672,0.025110604572391095,0.05744722656608961,0.10339451806304127,0.16282674692822163
592,33.466,33.34,1.32,0.42529102984112377,0.5018176781341822,0.023269792431000972,0.055493939244347444,0.10411993271043858,0.1614375021413608
593,33.487,33.39,1.27,0.4263092532828105,0.4982097416175203,0.02149317443270572,0.05360875154596647,0.10487263756674169,0.16009066626798285
594,33.528,33.45,1.32,0.4273469887793207,0.49458232483892184,0.019781797895745953,0.05179266893897657,0.10565245182824926,0.15878672001681127
595,33.591,33.5,1.27,0.4284040555826395,0.4909370827013289,0.018136656801236013,0.05004664225320891,0.10645917573484208,0.15752610772448977
596,33.633,33.56,1.26,0.4294802576023397,0.4872756856999985,0.0165586910296557,0.04837156694216701,0.10729259091542064,0.1563092374007973
597,33.735,33.61,1.31,0.43057538393300276,0.4835998188184749,0.015048785647101706,0.04676828239128921,0.10815246075330545,0.15513648079256875
598,33.756,33.67,1.35,0.4316892093992176,0.4799111803952209,0.013607770242176928,0.04523757127357171,0.10903853077089148,0.15400817346534068
599,33.798,33.72,1.36,0.4328214951166894,0.47621148096206334,0.01223641831437753,0.04378015895352298,0.10995052903280436,0.1529246149019301
600,33.861,33.78,1.4,0.4339719890679443,0.4725024420556576,0.010935446714816001,0.04239671294045389,0.11088816656677294,0.15188606861741763
601,33.924,33.83,1.45,0.43514042669109443,0.46878579500330403,0.00970551514009768,0.0410878423921575,0.11185113780141485,0.15089276229027584
602,33.966,33.89,1.44,0.43632653148013534,0.4650632796846265,0.008547225680148372,0.03985409767007834,0.11283912102012555,0.1499448879096263
603,34.029,33.94,1.44,0.4375300155952729,0.46133664327081253,0.007461122420771307,0.03869596994711014,0.11385177883026044,0.1490426019388354
604,34.092,34.0,1.53,0.43875058048179916,0.4576076389433028,0.006447691101687371,0.037613890869189745,0.1148887586467973,0.14818602549587498
605,34.155,34.05,1.52,0.43998791749606586,0.4538780245939478,0.005507358830786734,0.036608232271859255,0.11594969318966131,0.14737524455106274
606,34.218,34.11,1.52,0.44124170853712824,0.45014956150870955,0.004640493855291014,0.03567930595293732,0.11703420099388663,0.14661031014293305
607,34.26,34.16,1.56,0.44251162668264393,0.44642401303697526,0.003847405390490628,0.03482736350238191,0.11814188693178056,0.14589123861302172
608,34.3,34.22,1.57,0.4437973368276166,0.44270314324846366,0.003128343506679868,0.034052596190344765,0.11927234274625015,0.1452180118602866
609,34.342,34.27,1.57,0.44509849632456705,0.43898871557959335,0.0024834990748606204,0.033355134914324874,0.1204251475944429,0.14459057761580213
610,34.403,34.33,1.6,0.44641475562368876,0.4352824914711271,0.0019130037717221566,0.032735050206238424,0.12159986860084027,0.14400884973829742
611,34.464,34.38,1.68,0.44774575891150686,0.43158622899892,0.0014169301443276666,0.03219235230013878,0.12279606141892792,0.14347270853102234
612,34.547,34.44,1.74,0.44909114474652534,0.427901681499656,0.0009952917348562368,0.031726991261233954,0.12401327080055148,0.1429820010803154
613,34.589,34.49,1.77,0.45045054669032275,0.42423059619353154,0.0006480432656718244,0.03133885717675956,0.12525103117206102,0.14253654161612941
614,34.651,34.55,1.88,0.45182359393255284,0.42057471280591985,0.0003750808849276826,0.031027780409182932,0.12650886721635562,0.14213611189466901
615,34.692,34.6,1.88,0.4532099119083399,0.41693576219009143,0.00017624247287007476,0.030793531912140588,0.12778629445996825,0.14178046160321947
616,34.775,34.66,1.91,0.4546091229066189,0.4133154649530877,5.130800897268925e-05,0.03063582360944431,0.12908281986436904,0.14146930878721292
617,34.815,34.71,2.0,0.4560208466680409,0.40971553008682887,0.0,0.03055430883741475,0.13039794242070787,0.14120234029957707
618,34.857,34.77,2.03,0.45744470097115925,0.4061376536064826,2.1983969055540093e-05,0.030548582850705944,0.13173115374725394,0.14097921227243113
619,34.897,34.82,2.03,0.458880302205706,0.4025835171980398,0.00011686900561170681,0.030618183391676764,0.13308193868882512,0.1407995506112284
620,34.958,34.88,2.05,0.46032726593186696,0.39905478687701446,0.00028420837643959617,0.030762591323264653,0.13444977591753146,0.1406629515114542
621,35.02,34.93,2.1,0.4617852074245587,0.39555311166021895,0.0005235001972662873,0.03098123132523111,0.13583413853418955,0.14056898199796666
622,35.061,34.99,2.08,0.46325374220180193,0.3920801222526446,0.0008341881648971356,0.03127347265356179,0.13723449466978876,0.1405171804870602
623,35.123,35.04,2.05,0.4647324865363683,0.3886374297515851,0.0012156623494558071,0.031638629962715534,0.13865030808640313,0.14050705737136093
624,35.226,35.1,2.11,0.46622105794994034,0.3852266243702486,0.0016672600463147134,0.03207596419032023,0.1400810387769482,0.14053809562769312
625,35.247,35.15,2.09,0.46771907568907967,0.3818492741831624,0.002188266687207009,0.03258468350380487,0.14152614356317833,0.14060975144805518
626,35.289,35.21,2.11,0.4692261611823239,0.37850692389565793,0.002777916809918693,0.03316394430833482,0.1429850766913096,0.14072145489382246
627,35.351,35.26,2.19,0.4707419384777418,0.37520109363965987,0.003435395085855775,0.033812852315284726,0.14445729042463967,0.1408726105732351
628,35.392,35.32,2.23,0.47226603466026823,0.3719332777978758,0.004159837404677607,0.03453046367035044,0.1459422356325262,0.14106259834215182
629,35.454,35.37,2.28,0.4737980802481394,0.3687049438583617,0.0049503320150966045,0.03531578614028479,0.147439362375086,0.14129077402801246
630,35.516,35.43,2.35,0.4753377095677689,0.36551753130138026,0.005805920720870855,0.03616778035716274,0.1489481204829914,0.14155647017698528
631,35.578,35.48,2.35,0.47688456110645455,0.36237245052050093,0.0067256001309561626,0.03708536111904376,0.15046796013176977,0.14185899682434722
632,35.62,35.54,2.36,0.4784382778424007,0.3592710817799723,0.00770832296272892,0.03806739874589102,0.15199833241005495,0.14219764228822548
633,35.681,35.59,2.35,0.4799985075516546,0.35621477421051595,0.008752999397125592,0.03911272048961462,0.1535386898812767,0.1425716739868882
634,35.742,35.65,2.43,0.48156490309168,0.35320484484578535,0.0098584984844584,0.040220111997109925,0.1550884871383077,0.14298033927980894
635,35.824,35.7,2.41,0.4831371226614182,0.35024257770174094,0.011023649599557176,0.04138831882512228,0.15664718135060013,0.14342286633274623
636,35.845,35.76,2.41,0.484714830037794,0.3473292229010771,0.012247243944759076,0.04261604800566826,0.1582142328033497,0.1438984650070612
637,35.948,35.81,2.46,0.48629769478871965,0.34446599584462834,0.013528036099132498,0.0439019696605866,0.15978910542822825,0.1444063277734
638,35.968,35.87,2.46,0.48788539246272394,0.34165407643139795,0.014864745612190021,0.04524471866360902,0.16137126732523221,0.1449456306497137
639,36.009,35.92,2.44,0.48947760475538565,0.338894608328562,0.01625605864021871,0.04664289634815991,0.16296019127519687,0.1455155341634251
640,36.072,35.98,2.45,0.49107401965278413,0.3361886982925593,0.017700629623232187,0.04809507225894327,0.16455535524252685,0.14611518433740833
641,36.134,36.03,2.48,0.49267433155219625,0.33353741554214483,0.019197083000418474,0.0495997859452639,0.1661562428676904,0.14674371369929892
642,36.177,36.09,2.48,0.49427824136028364,0.33094179118398753,0.02074401496182011,0.05115554879393644,0.16776234394901451,0.1474002423135027
643,36.239,36.14,2.5,0.49588545656902117,0.32840281769107127,0.022339995233843096,0.0527608458995403,0.16937315491330487,0.14808387883509877
644,36.321,36.2,2.62,0.4974956913096114,0.32592144843388804,0.023983568896060868,0.054414137969669284,0.17098817927480056,0.14879372158462786
645,36.342,36.25,2.65,0.4991086663846243,0.323498597264215,0.0256732582266774,0.056113863262706204,0.17260692808196884,0.14952885964256005
646,36.384,36.31,2.69,0.5007241092786165,0.32113513815109546,0.027407564573948086,0.05785843955554755,0.1742289203516519,0.15028837396207828
647,36.466,36.36,2.79,0.5023417541475328,0.31883190486844,0.029184970250826673,0.0596462661386308,0.17585368349010505,0.15107133849870147
648,36.508,36.42,2.82,0.5039613417872764,0.31658969073340165,0.031003940450106453,0.06147572583557042,0.17748075370050695,0.1518768213551916
649,36.569,36.47,2.85,0.5055826195819412,0.31440924839441153,0.03286292517734299,0.06334518704467748,0.1791096763765737,0.1527038859401774
650,36.631,36.53,2.89,0.5072053414322897,0.31229128966758674,0.03476036119887109,0.06525300579962852,0.18074000648196178,0.15355159213896785
651,36.673,36.58,2.93,0.508829267665157,0.3102364854201657,0.036694674002253146,0.06719752784656458,0.18237130891519604,0.154418997495093
652,36.735,36.64,2.93,0.510454164924538,0.30824546549965254,0.038664279766515666,0.06917709073493201,0.184003158859903,0.15530515840118705
653,36.775,36.69,2.92,0.5120798060451882,0.30631881870744,0.04066758733954243,0.07119002591940822,0.18563514212016696,0.15620913129791592
654,36.837,36.75,2.99,0.513705969909619,0.30445709281578553,0.04270300021999988,0.07323466087027322,0.18726685544085206,0.15712997387973995
655,36.878,36.8,2.96,0.5153324412894137,0.30266079462707596,0.04476891854117629,0.07530932118958074,0.1888979068127551,0.15806674630637266
656,36.94,36.86,2.95,0.5169590106718087,0.30093039007431255,0.04686374105412228,0.07741233273045367,0.19052791576246253,0.15901851241882764
657,37.044,36.91,3.01,0.5185854740724836,0.2992663043616862,0.04898586710748733,0.07954202371679406,0.19215651362679456,0.15998434095889844
658,37.065,36.97,3.03,0.5202116328354724,0.2976689221440109,0.051133698621456135,0.08169672686066004,0.1937833438117203,0.16096330679078966
659,37.147,37.02,3.07,0.5218372934210678,0.29613858774368024,0.05330564205320319,0.0838747814745224,0.19540806203563,0.1619544921234696
660,37.168,37.08,3.12,0.5234622671825221,0.2946756054037816,0.05550011035130688,0.08607453557558764,0.19703033655685243,0.16295698773217496
661,37.21,37.13,3.19,0.525086370132294,0.2932802395760422,0.05771552489660659,0.0882943479793748,0.198649848385321,0.1639698941774024
662,37.272,37.19,3.22,0.5267094226985489,0.29195271524238386,0.0599503174270542,0.09053259037976939,0.2002662914783161,0.16499232301970998
663,37.313,37.24,3.24,0.5283312494726176,0.2906932182690364,0.0622029319442027,0.09278764941285575,0.20187937292024855,0.16602339802873237
664,37.418,37.3,3.33,0.5299516789481334,0.28950189579234886,0.06447182659908018,0.09505792870194225,0.2034888130864914,0.16706225638493982
665,37.439,37.35,3.32,0.5315705432526157,0.28837885663558743,0.06675547555531287,0.09734185088131585,0.2050943457913134,0.168108049872791
666,37.481,37.41,3.31,0.5331876778723001,0.28732417175607977,0.06905237082747655,0.09963785959637907,0.20669571842000964,0.16915994606402937
667,37.544,37.46,3.37,0.5348029213710631,0.2863378747220865,0.07136102409276354,0.10194442147793328,0.2082926920453662,0.1702171294899339
668,37.604,37.52,3.37,0.5364161151043022,0.2854199622187411,0.07367996847415166,0.1042600280884684,0.20988504152862913,0.1712788028013747
669,37.665,37.57,3.36,0.5380271029286516,0.28457039458232486,0.07600776029334529,0.10658319783840106,0.21147255560517214,0.17234418791557682
670,37.788,37.63,3.35,0.5396357309084038,0.2837890963620871,0.07834298079182969,0.10891247787027836,0.21305503695507197,0.17341252714855585
671,37.807,37.68,3.35,0.5412418470194879,0.2830759569087875,0.08068423781843127,0.11124644590903505,0.21463230225880903,0.17448308433224047
672,37.828,37.74,3.31,0.542845300851835,0.2824308309891354,0.08303016748181702,0.11358371207644637,0.2162041822383117,0.1755551459153425
673,37.869,37.79,3.3,0.5444459433109166,0.2818535394253325,0.08537943576639656,0.11592292066794811,0.21777052168355115,0.17662802204708908
674,37.931,37.85,3.35,0.5460436263191945,0.281343869758966,0.08773074011011207,0.1182627518900024,0.2193311794648724,0.1777010476429721
675,37.994,37.9,3.35,0.5476382025181797,0.28090157693846735,0.09008281094261794,0.12060192355617212,0.22088602853121797,0.17877358343168415
676,38.057,37.96,3.36,0.5492295249717626,0.2805263840292565,0.09243441318237094,0.12293919274005592,0.22243495589437426,0.17984501698240896
677,38.159,38.01,3.5,0.5508174468714601,0.28021798294555655,0.09478434769117637,0.1252733573832449,0.22397786259935104,0.1809147637116275
678,38.18,38.07,3.52,0.5524018212442148,0.27997603520272096,0.09713145268477245,0.1276032578565064,0.2255146636810014,0.18198226786859464
679,38.223,38.12,3.53,0.5539825006633674,0.27980017268881313,0.09947460509808441,0.1299277784724651,0.22704528810700153,0.18304700349864236
680,38.265,38.18,3.56,0.5555593369634171,0.27968999845416315,0.10181272190383307,0.13224584894814156,0.22856967870734216,0.18410847538345088
681,38.327,38.23,3.6,0.5571321809591772,0.27964508751768363,0.10414476138324215,0.1345564458158131,0.23008779209052596,0.18516621995740756
682,38.388,38.29,3.59,0.5587008821699453,0.2796649876888036,0.10646972434764772,0.13685859378076434,0.23159959854670295,0.186219806199191
683,38.471,38.34,3.6,0.5602652885493197,0.27974922040396144,0.1087866553098729,0.13915136702458566,0.23310508193800342,0.18726883649779014
684,38.513,38.4,3.68,0.5618252462213077,0.2798972815766683,0.1110946436042853,0.14143389045274363,0.2346042395763426,0.18831294749224348
685,38.533,38.45,3.64,0.5633805992233818,0.2801086424601655,0.1133928244545058,0.14370534088519113,0.23609708208898333,0.18935181088440445
686,38.594,38.51,3.61,0.5649311892571319,0.2803827505216568,0.11568037998777977,0.1459649481888077,0.23758363327215123,0.19038513422397738
687,38.637,38.56,3.66,0.5664768554471421,0.28071903032699547,0.11795654019505225,0.14821199635047927,0.2390639299330053,0.19141266166491872
688,38.717,38.62,3.63,0.568017434108675,0.28111688443454075,0.12022058383580753,0.1504458244896425,0.24053802172026442,0.19243417469209337
689,38.759,38.67,3.63,0.5695527585246847,0.28157569429670326,0.12247183928674155,0.15266582780913499,0.24200597094378223,0.1934494928168768
690,38.8,38.73,3.67,0.5710826587325876,0.282094821167542,0.1247096853333355,0.1548714584832092,0.2434678523833431,0.19445847424021465
691,38.883,38.78,3.73,0.57260696132112,0.2826736070146698,0.12693355190339797,0.15706222648158968,0.24492375308693629,0.19546101648148403
692,38.924,38.84,3.74,0.5741254892375159,0.28331137543368695,0.1291429207416566,0.15923770032846818,0.24637377215875098,0.19645705697137938
693,38.965,38.89,3.76,0.5756380616051605,0.28400743256340144,0.1313373260245139,0.16139750779535403,0.24781802053713012,0.1974465736069807
694,39.028,38.95,3.85,0.5771444935518298,0.2847610680002009,0.1335163549141454,0.1635413365267291,0.24925662076272986,0.19842958526715004
695,39.09,39.0,3.85,0.5786445960486329,0.28557155571005066,0.13567964805120597,0.16566893459749832,0.2506897067371465,0.19940615228644684
696,39.132,39.06,3.86,0.5801381757597847,0.28643815493668184,0.1378268999855167,0.16778011100127407,0.2521174234722963,0.20037637688585141
697,39.194,39.11,3.93,0.5816250349033785,0.2873601111045961,0.13995785954421605,0.16987473606859038,0.2535399268308582,0.20134040355870336
698,39.237,39.17,3.94,0.583104971123355,0.2883366567155512,0.14207233013697013,0.1719527418142085,0.25495738325811346,0.20229841941037047
699,39.3,39.22,3.94,0.5845777773728876,0.28936701223724653,0.1441701699979403,0.17401412221275164,0.2563699695055403,0.20325065445027607
700,39.381,39.28,3.94,0.5860432418094098,0.29045038698304737,0.14625129236430132,0.1760589334020069,0.25777787234653543,0.20419738183502933
701,39.422,39.33,3.97,0.5875011477015101,0.2915859799817639,0.1483156655911965,0.1780872938133476,0.2591812882846535,0.20513891806153164
702,39.485,39.39,3.95,0.5889512733479131,0.29277298083668796,0.1503633132031041,0.18009938422884,0.26058042325475933,0.206075623109098
703,39.547,39.44,3.91,0.5903933920087557,0.2940105705732708,0.15239431388168,0.18209544776469863,0.2619754923174896,0.20700790052983895
704,39.63,39.5,3.94,0.5918272718493442,0.2952979224749995,0.15440880139021745,0.1840757897808403,0.2633667193474092,0.20793619748674105
705,39.65,39.55,3.92,0.5932526758965377,0.29663420290715486,0.15640696443493038,0.18604077771636388,0.26475433671523174,0.2088610047390279
706,39.692,39.61,3.92,0.5946693620078364,0.29801857212821564,0.15838904646331636,0.18799084085083467,0.26613858496444937,0.20978285657448587
707,39.754,39.66,3.99,0.5960770828531752,0.29945018508869886,0.16035534539989418,0.18992646999128765,0.26751971248268264,0.2107023306885101
708,39.794,39.72,4.02,0.5974755859093297,0.3009281922171793,0.16230621331965328,0.19184821708488026,0.2688979751680362,0.21162004800967413
709,39.855,39.77,4.03,0.5988646134667679,0.30245174019315235,0.16424205605960376,0.19375669475714719,0.2702736360907226,0.21253667247168834
710,39.916,39.83,4.07,0.6002439026487316,0.3040199727063574,0.16616333276888212,0.19565257577585476,0.2716469651502123,0.21345291073170633
711,39.978,39.88,4.13,0.6016131854423205,0.30563203120221333,0.16807055539795093,0.19753659244052788,0.2730182387281732,0.21436951183508007
712,40.039,39.94,4.14,0.6029721887413704,0.30728705561311426,0.16996428812752692,0.1994095358978231,0.2743877393374737,0.2152872668268742
713,40.101,39.99,4.13,0.6043206344009615,0.3089841850755054,0.17184514673797113,0.20127225538304874,0.27575575526753987,0.21620700831070347
714,40.143,40.05,4.28,0.6056582393034409,0.3107225586328528,0.1737137979199688,0.20312565738827765,0.2771225802263733,0.21712960995567826
715,40.205,40.1,4.25,0.6069847154359137,0.3125013159247579,0.1755709585274061,0.20497070475763415,0.2784885129795531,0.21805598595236853
716,40.269,40.16,4.24,0.608299769979208,0.3143195978625113,0.17741739477341373,0.20680841571044728,0.27985385698656867,0.21898709041865239
717,40.289,40.21,4.28,0.6096031054083716,0.31617654729135114,0.1792539213705871,0.20863986279304667,0.2812189200348519,0.21992391675607617
718,40.352,40.27,4.25,0.6108944196047812,0.3180713096396022,0.18108140061641997,0.21046617176003257,0.28258401387190346,0.22086749695698885
719,40.414,40.32,4.23,0.6121734059799518,0.3200030335547789,0.1829007414250066,0.21228852038589285,0.2839494538359153,0.22181890086241948
720,40.476,40.38,4.22,0.6134397536111028,0.3219708715266872,0.184712898306072,0.21410813720788163,0.2853155584852881,0.22277923537052657
721,40.517,40.43,4.21,0.6146931473884875,0.3239739804975483,0.18651887029237957,0.21592630020112957,0.2866826492274191,0.2237496435954154
722,40.579,40.49,4.17,0.6159332681744282,0.3260115224591612,0.18831969981654162,0.21774433538701451,0.2880510499471086,0.22473130397612617
723,40.661,40.54,4.15,0.6171597929739141,0.328082665037098,0.19011647153821357,0.21956361537588223,0.2894210866348889,0.22572542933561293
724,40.724,40.6,4.23,0.6183723951165292,0.3301865820618867,0.1919103111226051,0.22138555784526842,0.2907930870155371,0.22673326588955467
725,40.743,40.65,4.22,0.6195707444493948,0.3323224541270426,0.19370238397119544,0.22321162395481603,0.29216738017698524,0.22775609220489088
726,40.786,40.71,4.25,0.6207545075407352,0.3344894691336798,0.19549389390551683,0.22504331669910638,0.29354429619979616,0.22879521810807815
727,40.847,40.76,4.33,0.6219233478936298,0.3366868228212939,0.19728608180487067,0.22688217919964637,0.29492416578734465,0.22985198354319897
728,40.908,40.82,4.37,0.6230769261694923,0.3389137192841443,0.19908022419886548,0.22872979293728077,0.29630731989683123,0.23092775738019414
729,40.951,40.87,4.39,0.6242149004208379,0.341169371472548,0.20087763181570692,0.2305877759263477,0.29769408937125574,0.23202393617362685
730,41.012,40.93,4.44,0.6253369263329037,0.3434530016783902,0.2026796480872145,0.23245778083196855,0.29908480457249004,0.23314194287250697
731,41.093,40.98,4.49,0.6264426574737141,0.34576384200427107,0.20448764761159116,0.23434149303195362,0.3004797950156099,0.2342832254817978
732,41.114,41.04,4.5,0.6275317455522115,0.34810113481587285,0.20630303457502416,0.23624062862489223,0.30187938900466554,0.23544925567632707
733,41.175,41.09,4.5,0.6286038406840971,0.350464133177318,0.20812724113325662,0.23815693238607827,0.3032839132700908,0.2366415273679395
734,41.237,41.15,4.56,0.6296585916650635,0.3528521012694673,0.2099617257543304,0.2400921756729927,0.304693692607967,0.23786155522683458
735,41.279,41.2,4.53,0.6306956462511168,0.3552643147912338,0.2118079715237645,0.24204815428212845,0.3061090495213707,0.23911087315810303
736,41.362,41.26,4.51,0.6317146514457024,0.3577000613440184,0.2136674844134892,0.2440266862589972,0.30753030386403774,0.24039103273450096
737,41.443,41.31,4.53,0.6327152537933372,0.36015864079930715,0.21554179151589797,0.24602960966321286,0.3089577724865757,0.24170360158647541
738,41.464,41.37,4.51,0.6336970996794318,0.36263936564930566,0.21743243924440778,0.2480587802905804,0.3103917688854411,0.24305016175040736
739,41.505,41.42,4.51,0.6346598356359361,0.36514156134029985,0.2193409915019372,0.25011606935413505,0.31183260285487874,0.24443230797601354
740,41.586,41.48,4.53,0.6356031086523843,0.36766456658828556,0.22126902781871585,0.2522033611260746,0.3132805801419828,0.24585164599385406
741,41.627,41.53,4.58,0.6365265664918234,0.37020773367632703,0.2232181414608392,0.25432255054254077,0.3147360021050064,0.24730979074390524
742,41.689,41.59,4.61,0.6374298580110467,0.37277042873306404,0.2251899375109815,0.2564755407732242,0.3161991653750114,0.24880836456617003
743,41.732,41.64,4.64,0.6383126334844983,0.3753520319918083,0.22718603092269676,0.2586642407577994,0.31767036152092737,0.25034899535433536
744,41.816,41.7,4.74,0.6391745449312106,0.37795193802971916,0.2292080445497761,0.260890562711228,0.3191498767180817,0.25193331467354857
745,41.835,41.75,4.75,0.6400152464441664,0.38056955598658093,0.23125760715219504,0.2631564195999971,0.3206379914202643,0.25356295584346333
746,41.897,41.81,4.77,0.6408343945215416,0.3832043097627159,0.23333635138026246,0.26546372259139,0.3221349800354116,0.25523955198779724
747,41.959,41.86,4.84,0.641631648399362,0.3858556381955444,0.23544591173866916,0.2678143784779325,0.32364111060501316,0.2569647340517354
748,42.022,41.92,4.87,0.6424066703851905,0.38852299521424355,0.23758792253222247,0.27021028707920314,0.32515664448737386,0.25874012878862035
749,42.063,41.97,4.91,0.6431591261925349,0.39120584997191976,0.2397640157951375,0.27265333862326163,0.32668183604488066,0.2605673567175099
750,42.104,42.03,4.93,0.6438886852757347,0.39390368695478295,0.2419758192058303,0.2751454111100464,0.3282169323354516,0.26244803005335926
751,42.225,42.08,4.98,0.6445950211651217,0.3966160060679888,0.2442249539892186,0.277688367659236,0.3297621728083576,0.26438375061174874
752,42.246,42.14,4.98,0.6452778118023006,0.39934232269803827,0.2465130328085923,0.28028405384522415,0.3313177890046355,0.2663761076902277
753,42.287,42.19,4.94,0.6459367398754325,0.40208216775184463,0.2488416576491648,0.2829342950220007,0.33288400426232434,0.26842667592845904
754,42.351,42.25,4.98,0.6465714931544282,0.4048350876727731,0.2512124176954557,0.2856408936408358,0.3344610334267741,0.27053701314943224
755,42.392,42.3,4.93,0.6471817648259739,0.4076006444340788,0.2536268872046866,0.28840562656373503,0.33604908256627053,0.27270865818406254
756,42.434,42.36,4.92,0.6477672538282836,0.4103784155102218,0.2560866233783897,0.29123024237565553,0.33764834869321203,0.27494312868155074
757,42.497,42.41,4.96,0.64832766518542,0.41316799382653135,0.25859316423442624,0.2941164586984796,0.33925901949104276,0.2772419189079372
758,42.558,42.47,4.98,0.6488627103409534,0.41596898768760826,0.2611480264816016,0.297065959509723,0.34088127304711396,0.2796064975353359
759,42.641,42.52,5.0,0.6493721074906398,0.418781020684739,0.2637527033990468,0.3000803924689332,0.34251527759160644,0.28203830542437736
760,42.662,42.58,5.01,0.6498555819137259,0.4216037315825307,0.2664086627225263,0.30316136625472623,0.3441611912426171,0.28453875340244467
761,42.725,42.63,5.1,0.6503128663024381,0.42443677418500886,0.26911734453984654,0.30631044791542805,0.34581916175749533,0.2871092200403831
762,42.767,42.69,5.13,0.6507437010892083,0.4272798171815113,0.2718801591975725,0.3095291602363285,0.3474893262905046,0.28975104943053226
763,42.849,42.74,5.16,0.6511478347712403,0.4301325439728555,0.2746984852213174,0.31281897912661477,0.3491718111568883,0.2924655489691586
764,42.913,42.8,5.27,0.6515250242320858,0.4329946524784213,0.27757366725192956,0.31618133102912654,0.3508667316034235,0.29525398714658946
765,42.934,42.85,5.29,0.6518750350599761,0.4358658549249529,0.28050701399996686,0.31961759035614623,0.35257419158557113,0.29811759134852883
766,42.994,42.91,5.31,0.6521976418627295,0.4387458776179889,0.28349979622090277,0.32312907695449994,0.3542942835513578,0.3010575456721381
767,43.035,42.96,5.38,0.6524926285791394,0.4416344606968342,0.2865532447135562,0.32671705360330355,0.3560270882321611,0.30407498876050093
768,43.096,43.02,5.4,0.6527597887868377,0.444531357873881,0.2896685483442746,0.3303827235477432,0.3577726744406043,0.3071710116590654
769,43.156,43.07,5.41,0.652998926006703,0.447436336158968,0.2928468520994291,0.33412722807232786,0.35953109887579726,0.31034665569763403
770,43.219,43.13,5.43,0.6532098540039053,0.45034917556948123,0.29608925516879864,0.33795164411708983,0.361302405936183,0.31360291040146804
771,43.301,43.18,5.46,0.6533923970856834,0.4532696688270384,0.29939680906242205,0.3418569819402528,0.36308662754026744,0.31694071143507146
772,43.321,43.24,5.44,0.6535463903959217,0.4561976210417924,0.3027705157634846,0.34584418283091434,0.3648837829555202,0.3203609385822097
773,43.363,43.29,5.42,0.6536716802065602,0.45913284938557486,0.3062113259197693,0.3499141168753064,0.3666938786357401,0.3238644137656978
774,43.425,43.35,5.47,0.6537681242058269,0.4620751827552449,0.3097201370761538,0.3540675807801959,0.3685169080671735,0.3274518991104416
775,43.508,43.4,5.46,0.6538355917832149,0.4650244614276557,0.31329779195056534,0.3583052957569581,0.37035285162366016,0.33112409505311485
776,43.55,43.46,5.49,0.6538739643110596,0.4679805367075747,0.3169450767557248,0.3626279054698014,0.3722016764310628,0.33488163850169816
777,43.613,43.51,5.57,0.6538831354224728,0.4709432705697252,0.32066271956893583,0.36703597405154204,0.3740633362412132,0.338725101047909
778,43.675,43.57,5.63,0.6538630112853169,0.47391253529585226,0.3244513887521105,0.3715299841902246,0.3759377713155946,0.3426549872353621
779,43.696,43.62,5.67,0.6538135108718499,0.4768882131074991,0.32831169142419864,0.37611033528977805,0.37782490831897614,0.34667173288618264
780,43.758,43.68,5.73,0.6537345662236429,0.47987019579507856,0.3322441719881829,0.380777341707816,0.3797246602232312,0.35077570348875897
781,43.821,43.73,5.81,0.6536261227113909,0.4828583843438769,0.33624931071480935,0.38553123107365594,0.3816369262215984,0.35496719264932497
782,43.864,43.79,5.82,0.6534881392892814,0.485852688557776,0.34032752238523667,0.3903721426896452,0.38356159165368453,0.35924642061007744
783,43.925,43.84,5.85,0.6533205887436421,0.48885302668167124,0.3444791549947939,0.3953001260189176,0.38549852794155426,0.3636135328365506
784,44.028,43.9,5.94,0.6531234579356546,0.49185932502374097,0.34870448852004066,0.40031513926276063,0.38744759253728744,0.3680685986769705
785,44.049,43.95,5.93,0.6528967480379831,0.494871517578782,0.3530037337513203,0.4054170480308065,0.3894086288824288,0.3726116100962842
786,44.09,44.01,5.93,0.652640474765223,0.4978895456537716,0.35737703119299297,0.4106056241072549,0.39138146637978183,0.37724248048748943
787,44.133,44.06,5.95,0.6523546685981202,0.5009133574966856,0.3618244500335245,0.41588054431628363,0.3933659203780316,0.38196104356277744
788,44.193,44.12,5.95,0.6520393750015387,0.5039429079294415,0.3663459871875909,0.42124138948972195,0.3953617921696934,0.3867670523268637
789,44.254,44.17,5.94,0.6516946546361695,0.5069781579856519,0.37094156641233456,0.42668764353995803,0.3973688690029004,0.39166017813480164
790,44.296,44.23,5.92,0.6513205835639747,0.5100190745537655,0.3756110374998673,0.4322186926409572,0.39938692410753035,0.3966400098365365
791,44.398,44.28,5.92,0.6509172534473435,0.5130656300260967,0.3803541755480608,0.43783382452017106,0.4014157167361605,0.40170605301042767
792,44.419,44.34,5.88,0.6504847717419054,0.516117801954219,0.38517068031159724,0.44353222786401514,0.403454992220313,0.4068577292879034
793,44.48,44.39,5.87,0.6500232618828955,0.5191755727112032,0.3900601756351625,0.44931299183947637,0.4055044820424227,0.4120943757713283
794,44.541,44.45,5.95,0.6495328634648787,0.5222389291612008,0.3950222089705614,0.4551751057342836,0.40756390392391345,0.41741524454703893
795,44.604,44.5,5.95,0.6490137324145422,0.5253078623368357,0.400056250979415,0.46111745871791543,0.40963296192972437,0.42281950229534565
796,44.644,44.56,5.98,0.648466041156158,0.5283823671247767,0.4051616952229868,0.4671388397255415,0.41171134658958347,0.42830622999909973
797,44.707,44.61,6.04,0.6478899787692444,0.5314624419597255,0.4103378579405803,0.4732379374668274,0.41379873503630193,0.43387442275222304
798,44.789,44.67,6.08,0.6472857511379262,0.5345480885268568,0.41558397791786883,0.47941334056137896,0.41589479116134664,0.4395229896694308
799,44.81,44.72,6.1,0.6466535810915214,0.5376393114725236,0.4208992164464481,0.48566353780246163,0.417999165787947,0.4452507538982854
800,44.852,44.78,6.13,0.6459937085359239,0.5407361181229049,0.4262826573758504,0.49198691855050275,0.42011149686199983,0.45105645273470246
801,44.915,44.83,6.2,0.645306390575411,0.5438385182102611,0.4317333072592042,0.498381773257756,0.4222314096610387,0.45693873784302463
802,44.979,44.89,6.19,0.6445919016245498,0.5469465236065614,0.43725009559367145,0.5048462941253795,0.4243585170215461,0.46289617558175594
803,45.019,44.94,6.19,0.6438505335099145,0.5500601480644118,0.44283187515673084,0.5113785758940474,0.4264924195848906,0.4689272474359899
804,45.081,45.0,6.25,0.6430825955613558,0.5531794069653911,0.4484774224393112,0.5179766167690812,0.42863270606217996,0.4750303505574535
805,45.123,45.05,6.22,0.64228841469258,0.5563043170759913,0.45418543817671514,0.5246383194809353,0.43077895351831547,0.48120379841295685
806,45.186,45.11,6.21,0.6414683354708088,0.5594348963113307,0.459954547978226,0.5313614924817159,0.4329307276755285,0.48744582154191685
807,45.248,45.16,6.22,0.640622720175301,0.5625711635066838,0.46578330305622995,0.5381438512782645,0.43508758323665847,0.4937545684235177
808,45.311,45.22,6.2,0.639751948844526,0.565713138196695,0.4716701810556186,0.5449830199021966,0.4372490642284089,0.5001281064539687
809,45.372,45.27,6.15,0.63885641931179,0.5688608404019454,0.4776135869841365,0.5518765325171506,0.4394147043647766,0.5065644230342204
810,45.413,45.33,6.13,0.6379365472291071,0.5720142904223909,0.4836118542442186,0.5588218351633467,0.4415840274308046,0.5130614267684124
811,45.494,45.38,6.19,0.6369927660790923,0.5751735086370935,0.48966324576671,0.565816287639383,0.44375654768675016,0.5196169487732405
812,45.515,45.44,6.16,0.636025527174613,0.5783385153095677,0.4957659552466854,0.5728571655210054,0.44593177029268827,0.5262287440983794
813,45.577,45.49,6.17,0.6350352996458883,0.5815093303979538,0.5019181084814061,0.5799416623163582,0.4481091917535037,0.5328944932580177
814,45.619,45.55,6.27,0.6340225704146648,0.5846859733691013,0.5081177648102642,0.5870668917569764,0.4502883003841575,0.5396118038734504
815,45.681,45.6,6.28,0.6329878441550721,0.5878684630154992,0.5143629186564018,0.5942298902235281,0.45246857679506386,0.5463782124264933
816,45.743,45.66,6.3,0.6319316432407442,0.5910568172738562,0.5206515011695327,0.6014276193050646,0.45464949439737284,0.5531911861233249
817,45.805,45.71,6.36,0.630854507677826,0.5942510530440732,0.5269813819693528,0.6086569684903025,0.456830519927927,0.5600481248681954
818,45.886,45.77,6.39,0.6297569950235187,0.59745118600745,0.5333503709887635,0.6159147579892424,0.45901111399364186,0.5669463633462876
819,45.906,45.82,6.4,0.628639680289876,0.6006572304432818,0.5397562204159908,0.6231977416832011,0.46119073163504487,0.5738831732148814
820,45.967,45.88,6.4,0.6275031558325942,0.6038691990435219,0.5461966267345263,0.6305026102010987,0.46336882290869513,0.5808557654018998
821,46.008,45.93,6.47,0.626348031224585,0.6070871027257018,0.5526692328596792,0.6378259941196064,0.46554483348818587,0.587861292510849
822,46.07,45.99,6.41,0.6251749331141808,0.6103109504446709,0.559171630370386,0.6451644672845224,0.46771820528340735,0.5948968513311266
823,46.131,46.04,6.39,0.6239845050678626,0.61354074900394,0.5657013618347733,0.6525145502505267,0.4698883770777184,0.601959485452612
824,46.172,46.1,6.45,0.622777407397452,0.6167765028675435,0.5722559232277988,0.6598727138362486,0.47205478518262955,0.6090461879833367
825,46.234,46.15,6.43,0.621554316971728,0.6200182139733449,0.5788327664391256,0.6672353827913375,0.4742168641095519,0.6161539043688504
826,46.296,46.21,6.38,0.6203159270124454,0.6232658815486345,0.5854293018691908,0.6745989395719716,0.47637404725810106,0.6232795353116483
827,46.338,46.26,6.35,0.6190629468747312,0.6265195019287535,0.5920429011112507,0.6819597282209596,0.47852576762038224,0.630419939788708
828,46.4,46.32,6.3,0.6177961018118246,0.6297790683793633,0.5986708997169781,0.6893140583483363,0.4806714585006082,0.6375719381648154
829,46.442,46.37,6.25,0.6165161327241163,0.6330445709228582,0.6053106000429618,0.6966582092080801,0.4828105542493182,0.6447323153989651
830,46.504,46.43,6.21,0.6152237958923978,0.6363159961693488,0.6119592741751768,0.7039884338662955,0.4849424910113577,0.6518978243407202
831,46.608,46.48,6.3,0.6139198626951973,0.6395933271525671,0.6186141669281501,0.7113009634558662,0.48706670748665937,0.6590651891129233
832,46.628,46.54,6.29,0.6126051193100441,0.642876543170895,0.625272498915165,0.7185920115121903,0.48918264570273556,0.6662311085765451
833,46.69,46.59,6.3,0.6112803663985126,0.6461656196334339,0.6319314696854259,0.7258577783841728,0.4912897517976735,0.6733922598727208
834,46.73,46.65,6.5,0.6099464187749275,0.6494605279106844,0.6385882609236823,0.7330944557142005,0.4933874768123268,0.6805453020361781
835,46.791,46.7,6.55,0.608604105058699,0.65276123518903,0.6452400397073891,0.7402982309803608,0.4954752774903229,0.6876868796733722
836,46.833,46.76,6.59,0.6072542673103503,0.6560677043279067,0.6518839618160684,0.7474652920936927,0.49755261708446147,0.6948136266978362
837,46.894,46.81,6.66,0.6058977606514079,0.6593798937183775,0.6585171750871505,0.7545918320428112,0.4996189661680604,0.7019221701146255
838,46.976,46.87,6.74,0.6045354528684478,0.6626977571418091,0.6651368228122098,0.7616740535778699,0.5016738034498087,0.7090091338452478
839,47.017,46.92,6.76,0.603168224001696,0.6660212436274798,0.6717400471672009,0.7687081739255293,0.5037166165906946,0.7160711425842154
840,47.079,46.98,6.8,0.6017969659187015,0.6693502973081518,0.6783239926700317,0.7756904295263823,0.505746903021575,0.7231048256782582
841,47.162,47.03,6.87,0.6004225818736898,0.6726848572728579,0.6848858096586015,0.7826170807861506,0.5077641707599476,0.7301068210192538
842,47.182,47.09,6.86,0.5990459860532987,0.6760248574162605,0.6914226577822852,0.7894844168318478,0.5097679392244695,0.7370737789419841
843,47.223,47.14,6.88,0.5976681031094515,0.6793702262839791,0.6979317094997274,0.7962887602640271,0.5117577400457515,0.7440023661178867
844,47.286,47.2,6.92,0.59628986768016,0.6827208869132335,0.7044101535757252,0.8030264718961413,0.5137331178719301,0.7508892694360455
845,47.368,47.25,6.95,0.5949122238990606,0.6860767566680308,0.7108551985699028,0.8096939554719416,0.5156936311674861,0.7577311998627067
846,47.389,47.31,6.95,0.5935361248944592,0.6894377470679475,0.7172640763098141,0.8162876623517341,0.5176388530037356,0.7645248962706778
847,47.451,47.36,6.99,0.5921625322785927,0.6928037636094245,0.7236340453410337,0.8228040961582138,0.5195683718393741,0.7712671292300466
848,47.493,47.42,7.07,0.5907924156277272,0.6961747055784298,0.7299623943467406,0.8292398173725067,0.521481792289408,0.7779547047517535
849,47.556,47.47,7.08,0.5894267519535827,0.6995504658533496,0.736246445529273,0.8355914478710103,0.5233787358807588,0.7845844679756689
850,47.617,47.53,7.15,0.5880665251664557,0.7029309306970523,0.742483557946152,0.8418556753936037,0.5252588417927863,0.7911533067949913
851,47.7,47.58,7.3,0.5867127255302842,0.706315979537198,0.7486711307931733,0.8480292579338666,0.5271217675809429,0.7976581554090248
852,47.72,47.64,7.34,0.5853663491098126,0.7097054847339986,0.7548066066273327,0.8541090280420616,0.5289671898817493,0.8040959977967407
853,47.782,47.69,7.42,0.5840283972099551,0.7130993113347494,0.7608874745225991,0.8600918970317988,0.5307948050972806,0.8104638711039976
854,47.825,47.75,7.55,0.582699875807434,0.7164973168145754,0.7669112731518721,0.8659748590814418,0.5326043300573642,0.8167588689377692
855,47.908,47.8,7.64,0.5813817949747744,0.7198993508029481,0.7728755937888818,0.8717549952213566,0.5343955026577218,0.8229781445611719
856,47.97,47.86,7.71,0.5800751682967578,0.7233052547956706,0.7787780832242721,0.8774294771981122,0.5361680824723289,0.8291189139835402
857,47.991,47.91,7.8,0.578781012279443,0.726714861852252,0.784616446590636,0.8829955712068587,0.5379218513383094,0.8351784589402398
858,48.073,47.97,7.93,0.5775003457518663,0.73012799627888,0.7903884500917222,0.8884506414834017,0.5396566139117438,0.8411541297573774
859,48.114,48.02,8.0,0.5762341892605307,0.733544473297522,0.7960919236314039,0.8937921537478897,0.5413721981928237,0.8470433480970428
860,48.176,48.08,8.05,0.5749835644568082,0.7369640987019952,0.8017247633382488,0.8990176784924756,0.5430684560188476,0.8528436095792087
861,48.238,48.13,8.2,0.5737494934773829,0.7403866685021118,0.8072849339817114,0.9041248941057323,0.5447452635236185,0.85855248627685
862,48.28,48.19,8.23,0.5725329983178945,0.7438119685572006,0.8127704712761354,0.9091115898270093,0.5464025215618757,0.8641676290812197
863,48.342,48.24,8.35,0.5713351001999477,0.7472397742004175,0.818179484068928,0.9139756685242955,0.5480401560974588,0.8696867699345107
864,48.466,48.3,8.44,0.5701568189316579,0.7506698498553155,0.8235101564094481,0.9187151492895362,0.549658118553975,0.8751077239273464
865,48.486,48.35,8.49,0.5689991722619047,0.7541019486461095,0.8287607494953373,0.9233281698457203,0.5512563861268149,0.8804283912586404
866,48.506,48.41,8.52,0.5678631752284496,0.7575358120030061,0.8339296034932135,0.9278129887604335,0.55283496205544,0.8856467590554209
867,48.548,48.46,8.59,0.5667498395000369,0.7609711692639367,0.8390151392308424,0.9321679874610015,0.5543938758549427,0.8907609030502602
868,48.609,48.52,8.74,0.5656601727125357,0.7644077372740515,0.8440158597580585,0.9363916720468125,0.5559331835059564,0.8957689891140427
