,Time_Host,Time_Arduino,easingdata,CH1_Oxy,CH1_Deoxy,CH2_Oxy,CH2_Deoxy,CH3_Oxy,CH3_Deoxy
0,1.197,0.04,0.0,0.16754479427126165,0.9143152432344811,0.4355714485930644,0.5598317546058882,0.37736361489311215,0.0
1,1.217,0.1,0.0,0.16579586853735453,0.9155659507867288,0.42768979245355726,0.5652875921770876,0.3727332901672751,0.02157232567739525
2,1.238,0.15,0.0,0.1640638636811752,0.9167878683041736,0.4198671282790568,0.5707233888501774,0.3681210587895374,0.04304214828665659
3,1.259,0.21,0.0,0.16234902222396735,0.9179805381297357,0.4121057966497352,0.5761370910910799,0.36352796117694913,0.06440125629001814
4,1.28,0.26,0.0,0.16065156140330528,0.9191435281360975,0.40440806661463535,0.5815266643230378,0.35895500053390134,0.08564154027687486
5,1.301,0.32,0.0,0.15897167315320565,0.9202764320022913,0.39677613399304495,0.5868900946646702,0.3544031421291716,0.10675499990332453
6,1.322,1.06,0.0,0.15730952413122593,0.9213788694536688,0.38921211980365217,0.5922253906471394,0.3498733126534472,0.12773375065721107
7,1.343,1.12,0.0,0.15566525579170157,0.9224504864658524,0.38171806882203174,0.5975305849090143,0.34536639965792776,0.1485700304418883
8,1.364,1.17,0.0,0.15403898450412956,0.9234909554333726,0.3742959482666675,0.6028037358674204,0.34088325107439027,0.16925620597236676
9,1.467,1.23,0.0,0.15243080171556697,0.9244999753037908,0.3669476466133769,0.6080429293640568,0.3364246748168839,0.18978477897793497
10,1.488,1.28,0.27,0.15084077415577182,0.925477271678215,0.3596749725376735,0.6132462802846663,0.33199143846501217,0.21014839220574774
11,1.529,1.34,0.04,0.14926894408368635,0.9264225968791946,0.3524796539842748,0.6184119341505843,0.32758426902857674,0.23033983522021756
12,1.591,1.39,-0.14,0.14771532957376018,0.92733572998705,0.34536333736266744,0.6235380686810839,0.3232038527932154,0.25035204999328514
13,1.651,1.45,0.28,0.1461799248405643,0.9282164768456739,0.3383275868674525,0.6286228953252144,0.3188508352465626,0.2701781362808093
14,1.733,1.5,0.07,0.14466270060014924,0.9290646700387644,0.3313738839221132,0.6336646607615718,0.3145258210843182,0.2898113567805677
15,1.754,1.56,-0.11,0.14316360446662463,0.9298801688373605,0.32450362674476,0.638661648364235,0.3102293742954164,0.30924514206779186
16,1.816,1.61,0.08,0.14168256138247512,0.9306628591194719,0.31771813003422994,0.6436121796332409,0.3059620183252942,0.32847309530465163
17,1.858,1.67,0.14,0.1402194740811957,0.931412653262502,0.31101862477478587,0.6485146155881544,0.3017242363160821,0.3474889967205475
18,1.922,1.72,0.0,0.13877422358089514,0.9321294900090736,0.304406258157613,0.6533673581231739,0.297516471422349,0.3662868078605107
19,1.963,1.78,-0.1,0.13734666970753545,0.932813334306832,0.2978820936172263,0.6581688513219892,0.2933391272008283,0.3848606755994723
20,2.025,1.83,0.22,0.13593665164645438,0.9334641771228416,0.2914471109807557,0.6629175827304686,0.2891925680723841,0.40320493592055817
21,2.086,1.89,-0.01,0.1345439885208049,0.934082035233226,0.28510220672796516,0.6676120845850172,0.2850771198543228,0.4213141174558961
22,2.168,1.94,-0.26,0.13316847999553477,0.9346669509887237,0.2788481943597541,0.6722509349941657,0.2809930703609827,0.43918294478874825
23,2.189,2.0,0.16,0.13180990690551178,0.9352189920568464,0.27268580487275845,0.6768327590707833,0.27694067007035966,0.4568063415160865
24,2.249,2.05,0.04,0.13046803190637454,0.9357382511413428,0.26661568733752494,0.681356230012236,0.2729201328543415,0.47417943307103155
25,2.311,2.11,-0.08,0.12914260014664783,0.9362248456796728,0.2606384095775819,0.6858200701258684,0.26893163676991555,0.4912975493049358
26,2.372,2.16,0.1,0.12783333995962093,0.936678917519238,0.2547544589465001,0.6902230517976017,0.2649753249085306,0.5081562268292286
27,2.413,2.22,0.29,0.12653996357348712,0.9371006325730951,0.2489642431998575,0.6945639984019347,0.26105130630068685,0.5247512111173795
28,2.475,2.27,0.2,0.1252621678382959,0.937490180455816,0.24326809145897996,0.6988417851517841,0.2571596568727577,0.5410784583675377
29,2.535,2.33,0.15,0.12399963496833154,0.9378477741000888,0.23766625526333565,0.703055339886559,0.25330042045301787,0.5571341371266426
30,2.598,2.38,0.55,0.12275203329858861,0.9381736493546373,0.2321589097084461,0.7072036437968754,0.2494736098238869,0.5729146296770318
31,2.639,2.44,0.35,0.12151901805408401,0.9384680645640082,0.22674615466620376,0.7112857320842861,0.24567920781746716,0.5884165331867649
32,2.702,2.49,0.14,0.12030023213081929,0.9387313001307446,0.22142801608452414,0.7153006945543732,0.24191716845153335,0.6036366606251373
33,2.764,2.55,0.52,0.11909530688727935,0.9389636580604221,0.21620444736328745,0.719247676141659,0.23818741810320176,0.6185720414451066
34,2.807,2.6,0.48,0.11790386294541673,0.9391654614899786,0.2110753308035957,0.7231258773649325,0.23448985671755565,0.6332199220346614
35,2.847,2.66,0.32,0.11672551100010524,0.9393370541997567,0.20604047912743517,0.7269345547117865,0.23082435904849422,0.6475777659395378
36,2.908,2.71,0.37,0.11555985263603122,0.9394788001097292,0.20109963706474465,0.730673020951696,0.22719077592905895,0.6616432538600717
37,2.968,2.77,0.6,0.11440648115095889,0.939591082760443,0.19625248300471107,0.7343406453776973,0.2235889355685081,0.6754142834252267
38,3.03,2.82,0.43,0.1132649823842793,0.9396743047792473,0.19149863070797818,0.7379368539771662,0.22001864487342918,0.6888889687470168
39,3.092,2.88,0.29,0.11213493554970791,0.939728887332415,0.1868376310763268,0.7414611295324043,0.21647969079017523,0.7020656397587546
40,3.153,2.93,0.73,0.11101591407093153,0.9397552695638526,0.1822689739762177,0.7449130116519859,0.21297184166592026,0.7149428413407558
41,3.194,2.99,0.51,0.10990748641895137,0.9397539080211899,0.1777920901124623,0.7482920967340374,0.20949484862565426,0.7275193322373248
42,3.278,3.04,0.31,0.10880921694983817,0.9397252760701259,0.17340635294819792,0.7515980378628565,0.20604844696245336,0.7397940837690812
43,3.299,3.1,0.59,0.10772066674161174,0.9396698632979639,0.1691110806672895,0.7548305446406725,0.20263235753839362,0.7517662783449125
44,3.361,3.15,0.63,0.10664139442897802,0.9395881749073055,0.16490553817533496,0.7579893829566928,0.19924628819351595,0.7634353077780527
45,3.403,3.21,0.51,0.10557095703467675,0.9394807311009159,0.16078893913558326,0.7610743746957231,0.19588993516025385,0.7748007714110617
46,3.464,3.26,0.47,0.10450891079617261,0.9393480664588522,0.15676044803612052,0.7640853973888674,0.19256298448074477,0.7858624740547829
47,3.506,3.32,0.76,0.1034548119863948,0.939190729309066,0.15281918228463937,0.7670223838091482,0.1892651134244967,0.7966204237465786
48,3.568,3.37,0.53,0.1024082177272289,0.9390092810927222,0.14896421432711415,0.7698853215150026,0.18599599190395694,0.8070748293332946
49,3.67,3.43,0.32,0.10136868679448285,0.9388042957254603,0.1451945737867491,0.7726742523444935,0.18275528388558426,0.8172260978845903
50,3.691,3.48,0.72,0.1003357804130672,0.938576358955781,0.14150924961959482,0.7753892718629416,0.17954264879407272,0.8270748319424296
51,3.732,3.54,0.52,0.09930906304113699,0.9383260677216737,0.13790719228327816,0.7780305287665203,0.17635774290739634,0.8366218266126847
52,3.794,3.59,0.35,0.09828810314193558,0.9380540295065553,0.1343873159153271,0.7805982242442491,0.17320022074032373,0.845868066504999
53,3.857,3.65,0.56,0.0972724739420618,0.9377608616955457,0.1309485005175639,0.7830926113009689,0.17006973641403655,0.854814722527223
54,3.898,3.7,0.69,0.0962617541748968,0.9374471909330505,0.12758959414310295,0.7855139940439841,0.16696594500948733,0.8634631485408308
55,3.961,3.76,0.59,0.09525552880798199,0.9371136524825063,0.12430941508266787,0.7878627269357842,0.16388850390214757,0.8718148778837891
56,4.003,3.81,0.52,0.09425338975321207,0.9367608895890399,0.12110675404711918,0.7901392140148127,0.1608370740758318,0.8798716197674248
57,4.065,3.87,0.89,0.0932549365587969,0.9363895528457103,0.11798037634322368,0.792343908085865,0.1578113214133982,0.8876352555538262
58,4.128,3.92,0.66,0.09225977708207383,0.9360002995639042,0.11492902403987988,0.7944773098812464,0.15481091796228064,0.8951078349202403
59,4.189,3.98,0.44,0.09126752814239113,0.9355937931483633,0.11195141812220619,0.7965399671933949,0.1518355431729608,0.9022915719168658
60,4.251,4.03,0.85,0.09027781615340351,0.9351707024772431,0.10904626063105488,0.7985324739794395,0.14888488510863673,0.9091888409243706
61,4.292,4.09,0.74,0.08929027773422145,0.9347317012875427,0.10621223678569854,0.8004554694380107,0.1459586416244638,0.9158021725174254
62,4.375,4.14,0.57,0.08830456029891863,0.9342774675662198,0.10344801708761164,0.8023096370585419,0.1430565215148208,0.9221342492405625
63,4.396,4.2,0.64,0.08732032262394045,0.9338086829473016,0.10075225940333293,0.8040957036435616,0.140178245627129,0.9281879013026886
64,4.459,4.25,0.79,0.08633723539300565,0.9333260321152913,0.09812361102441244,0.8058144383048722,0.13732354794085927,0.9339661021964687
65,4.501,4.31,0.57,0.0853549817191628,0.9328302022151095,0.09556071070251862,0.8074666514345872,0.13449217661045612,0.9394719642486584
66,4.564,4.36,0.42,0.08437325764370182,0.9323218822687681,0.09306219065782871,0.8090531936518888,0.13168389497096555,0.9447087341073416
67,4.627,4.42,0.82,0.08339177261161251,0.9318017625990037,0.09062667855878755,0.8105749547263267,0.12889848250520397,0.9496797881719152
68,4.668,4.47,0.57,0.08241024992325278,0.9312705342601286,0.08825279947126506,0.8120328624784736,0.12613573577134518,0.9543886279715137
69,4.752,4.53,0.35,0.08142842716185804,0.9307288884763911,0.08593917777508242,0.8134278816587923,0.12339546928982015,0.9588388754974754
70,4.773,4.58,0.65,0.08044605659650403,0.9301775160881599,0.08368443904582314,0.8147610128057992,0.120677516388461,0.9630342684953411
71,4.837,4.64,0.66,0.07946290556014894,0.9296171070062519,0.08148721189988672,0.816033291084823,0.11798173000487086,0.9669786557217853
72,4.942,4.69,0.52,0.0784787568024048,0.9290483496747396,0.07934612980084586,0.8172457851087779,0.1153079834450345,0.9706759921718499
73,4.963,4.75,0.48,0.07749340881669062,0.928471930542662,0.07725983282517407,0.8183995957426862,0.11265617109723007,0.9741303342818568
74,5.005,4.8,0.76,0.0765066761414186,0.9278885335451817,0.07522696938535209,0.8194958548941672,0.11002620910040714,0.9773458351132804
75,5.068,4.86,0.51,0.075518389634889,0.927298839594824,0.07324619790837576,0.820535724292308,0.10741803596631998,0.9803267395227095
76,5.129,4.91,0.31,0.07452839672360335,0.9267035260834773,0.07131618846775946,0.8215203942572528,0.10483161315480806,0.9830773793229444
77,5.171,4.97,0.72,0.07353656162374607,0.9261032663958664,0.06943562436720317,0.8224510824627285,0.10226692560170503,0.9856021684401808
78,5.234,5.02,0.47,0.07254276553563546,0.9254987294351802,0.0676032036742016,0.8233290326935374,0.09972398219892324,0.9879055980721712
79,5.295,5.08,0.24,0.07154690681099948,0.9248905791614925,0.0658176407019772,0.8241555135999167,0.09720281622629176,0.9899922318522232
80,5.378,5.13,0.39,0.07054890109298004,0.924279474143559,0.06407766743816687,0.8249318174507598,0.09470348573475042,0.9918667010238539
81,5.4,5.19,0.44,0.06954868142883529,0.9236660671244608,0.062382034918784975,0.8256592588877751,0.0922260738805272,0.9935336996308229
82,5.482,5.24,0.29,0.06854619835537719,0.9230510046014153,0.06072951454616501,0.8263391736823366,0.08977068920990745,0.9949979797271791
83,5.502,5.3,0.19,0.0675414199572085,0.9224349264199391,0.059118899349721796,0.8269729174963272,0.08733746589416262,0.9962643466119103
84,5.565,5.35,0.56,0.06653433189781677,0.9218184653824627,0.05754900518844606,0.8275618646478546,0.08492656391420694,0.9973376540926622
85,5.625,5.41,0.33,0.06552493742358649,0.9212022468714435,0.056018671894143016,0.8281074068822565,0.08253816919458656,0.9982227997828005
86,5.668,5.46,0.11,0.06451325734081655,0.9205868884869539,0.054526764354556265,0.8286109521483483,0.08017249368645978,0.9989247204359195
87,5.728,5.52,0.52,0.06349932996588224,0.9199729996986953,0.05307217353564947,0.8290739233796041,0.07782977539930996,0.9994483873217148
88,5.789,5.57,0.44,0.06248321104876435,0.9193611815123255,0.05165381744250975,0.8294977572797946,0.07551027838123052,0.9997988016469861
89,5.851,5.63,0.31,0.061464973670255996,0.9187520261499698,0.05027064201854082,0.8298839031125815,0.07321429264770275,0.999980990025455
90,5.871,5.68,0.38,0.06044470811323668,0.9181461167447692,0.0489216219827198,0.8302338214948959,0.07094213405889549,1.0
91,5.934,5.74,0.58,0.05942252170849923,0.9175440270493128,0.04760576160477779,0.8305489831943886,0.06869414414567755,0.9998608956207362
92,5.994,5.79,0.37,0.05839853865573596,0.9169463211577039,0.046322095418335665,0.8308308679313541,0.06647068988470357,0.9995687530821413
93,6.056,5.85,0.19,0.05737289982038334,0.9163535532409584,0.04506968887219193,0.8310809631854085,0.06427216342308055,0.9991286564222568
94,6.119,5.9,0.57,0.05634576250706801,0.9157662672954333,0.043847638920042634,0.8313007630071763,0.0620989817532646,0.9985456932868316
95,6.242,5.96,0.32,0.05531730021041721,0.9151849969040088,0.04265507454897241,0.8314917668352368,0.05995158633895278,0.9978249507611168
96,6.284,6.01,0.07,0.05428770234401017,0.9146102650097303,0.041491157247092875,0.8316554783186259,0.057830442692802506,0.9969715112719388
97,6.303,6.07,0.28,0.05325717394825071,0.9140425837015903,0.040355081410700794,0.8317934041454187,0.0557360399068612,0.9959904485626017
98,6.323,6.12,0.27,0.05222593537793359,0.9134824540120738,0.039246074691367025,0.8319070528781493,0.05366889013662296,0.9948868237430734
99,6.384,6.18,0.13,0.05119422197023211,0.9129303657260979,0.038163398283439426,0.8319979337968728,0.05162952803961558,0.9936656814178852
100,6.426,6.23,0.06,0.05016228369373677,0.912386797201037,0.03710634715242118,0.8320675557507863,0.04961851016938853,0.9923320458941646
101,6.487,6.29,0.35,0.04913038477907266,0.9118522151976313,0.036074250204609054,0.8321174260195321,0.04763641432578147,0.9908909174721642
102,6.589,6.34,0.11,0.04809880333157297,0.9113270747216203,0.03506647039838771,0.832149049185279,0.04568383886239485,0.9893472688205271
103,6.61,6.4,-0.1,0.04706783092648667,0.9108118188759425,0.03408240479767078,0.8321639260164062,0.04376140195223211,0.9877060414384461
104,6.671,6.45,0.31,0.04603777218722693,0.9103068787233264,0.033121484568097055,0.8321635523633605,0.04186974081254588,0.9859721422067661
105,6.692,6.51,0.1,0.04500894434721879,0.9098126731590508,0.03218317491674581,0.832149418066998,0.040009510889979075,0.984150440029983
106,6.753,6.56,-0.08,0.04398167679595649,0.909329608793627,0.03126697497627457,0.8321230058796094,0.038181385007125354,0.9822457625710204
107,6.837,6.62,0.06,0.042956310609929646,0.9088580798451366,0.03037241763444775,0.8320857903990596,0.036386052471675735,0.9802628930805858
108,6.858,6.67,0.16,0.04193319806914436,0.908398468040918,0.029499069310126618,0.8320392370167287,0.034624218149382394,0.9782065673227265
109,6.984,6.73,-0.04,0.040912702160050295,0.907951142528209,0.028646529676997275,0.8319848008798181,0.03289660150211499,0.9760814705980159
110,7.004,6.78,-0.2,0.039895196065747984,0.9075164597932721,0.027814431336500058,0.8319239258682583,0.031203935592312868,0.9738922348656295
111,7.067,6.84,0.14,0.03888106264438958,0.9070947635885046,0.02700243944153097,0.8318580435861963,0.029546966055183192,0.9716434359653741
112,7.088,6.89,-0.04,0.03787069389671447,0.906686384867027,0.026210251272576576,0.8317885723677736,0.02792645004003608,0.9693395909405335
113,7.151,6.95,-0.29,0.036864490423663895,0.9062916417242615,0.02543759576799822,0.8317169162966385,0.026343155122159186,0.9669851554622259
114,7.193,7.0,0.05,0.035862860874989126,0.9059108393460477,0.02468423301017328,0.8316444642385828,0.024797858186653705,0.9645845213557812
115,7.256,7.06,0.01,0.03486622138972719,0.9055442699628549,0.02394995366920831,0.8315725888866757,0.0232913442856925,0.9621420142294185
116,7.319,7.11,-0.14,0.033874995029370185,0.9051922128096689,0.023234578405941144,0.8315026458183317,0.021824405470692518,0.9596618912053192
117,7.382,7.17,-0.16,0.032889611204494996,0.9048549340911882,0.022537957235836358,0.8314359725641406,0.020397839600942155,0.9571483387530452
118,7.443,7.22,0.08,0.03191050509558189,0.9045326869520441,0.02185996885521896,0.8313738876888801,0.019012449130317396,0.9546054706250539
119,7.485,7.28,-0.16,0.03093811706875101,0.9042257114517908,0.021200519931220057,0.8313176898854284,0.017669039873816846,0.952037325893876
120,7.547,7.33,-0.34,0.029972892087153213,0.9039342345444593,0.020559544356791793,0.8312686570823331,0.01636841975571339,0.949447867090426
121,7.608,7.39,0.05,0.029015279118742975,0.9036584700625505,0.01993700247212882,0.8312280455658583,0.015111397541179449,0.9468409784428423
122,7.69,7.44,-0.16,0.028065730541147586,0.9033986187054401,0.01933288025385075,0.8311970891173879,0.013898781553286554,0.9442204642152133
123,7.71,7.5,-0.4,0.027124701544331605,0.9031548680322555,0.018747188473326112,0.8311769981671765,0.012731378377300503,0.9415900471455269
124,7.752,7.55,-0.25,0.02619264953174277,0.9029273924593414,0.018179961825516077,0.8311689589657442,0.011609991554219132,0.938953366982181
125,7.815,7.61,-0.19,0.02527003352063362,0.90271635326243,0.01763125802977659,0.8311741327744432,0.010535420265530955,0.9363139791183329
126,7.875,7.66,-0.38,0.02435731354226327,0.9025218985835747,0.017101156904196564,0.8311936550765794,0.009508458011157487,0.9336753533233565
127,7.957,7.72,-0.57,0.023454950042662036,0.9023441634428493,0.016589759415123733,0.8312286348101925,0.008529891282494165,0.9310408725707163
128,7.978,7.77,-0.26,0.02256340328460097,0.9021832697547851,0.016097186703518573,0.8312801536233645,0.007600498232431678,0.9284138319615308
129,8.06,7.83,-0.46,0.021683132751380594,0.9020393263494579,0.015623579089782652,0.8313492651525725,0.0067210473442026455,0.9257974377430357
130,8.08,7.88,-0.68,0.02081459655303164,0.9019124289980608,0.015169095058720597,0.8314369943241879,0.005892296100829091,0.9231948064211268
131,8.141,7.94,-0.28,0.019958250835499947,0.9018026604427416,0.014733910226280858,0.83154433667894,0.005114989656879848,0.9206089639661567
132,8.183,7.99,-0.39,0.01911454919337728,0.9017100904304184,0.01431821628974426,0.8316722577189476,0.004389859514212439,0.9180428451111249
133,8.244,8.05,-0.54,0.018283942086730565,0.9016347757502772,0.01392221996306459,0.8318216922768343,0.003717622203360812,0.9154992927413983
134,8.326,8.1,-0.49,0.017466876262574024,0.9015767602746931,0.013546141899023142,0.8319935439067251,0.0030989779722623476,0.912981057375079
135,8.346,8.16,-0.31,0.016663794181558056,0.9015360750033401,0.01319021559981647,0.8321886842973555,0.0025346094840958326,0.910490796733029
136,8.427,8.21,-0.51,0.015875133450521238,0.9015127381102234,0.012854686317749305,0.8324079527076589,0.002025180526071192,0.9080310753974571
137,8.469,8.27,-0.7,0.015101326261612438,0.9015067549933438,0.012539809947759974,0.8326521554251325,0.0015713347310473743,0.9056043645579103
138,8.531,8.32,-0.33,0.014342798838707928,0.9015181183267437,0.012245851913490442,0.8329220652473396,0.0011736943138887569,0.9032130418434556
139,8.571,8.38,-0.51,0.013599970891839501,0.9015468081147594,0.011973086048582323,0.8332184209869764,0.000832858824487123,0.9008593912397632
140,8.632,8.43,-0.77,0.012873255080323255,0.9015927917483925,0.011721793474829458,0.8335419270010657,0.0005494039193589523,0.8985456030897757
141,8.693,8.49,-0.6,0.012163056485244215,0.9016560240637992,0.011492261478726964,0.8338932527451677,0.0003238801537129616,0.8962737741766232
142,8.815,8.54,-0.63,0.011469772091924658,0.9017364474029547,0.011284782387913856,0.8342730323538362,0.00015681179587286384,0.8940459078873758
143,8.836,8.6,-0.84,0.010793790282960904,0.9018339916766003,0.011099652449008986,0.8346818642486383,4.869566588134802e-05,0.8918639144562199
144,8.856,8.65,-0.97,0.010135490342321599,0.9019485744296646,0.010937170708252073,0.8351203107751728,0.0,0.8897296112856997
145,8.916,8.71,-0.67,0.00949524197088633,0.9020801009094676,0.010797637896201877,0.8355888978706444,1.1163342694626906e-05,0.8876447233446715
146,8.98,8.76,-0.84,0.008873404813715345,0.9022284641370636,0.010681355317649495,0.836088114763376,8.259346755243873e-05,0.885610883641588
147,9.02,8.82,-1.06,0.008270327999285136,0.902393544982073,0.010588623747877106,0.8366184137051709,0.00021466632842613188,0.883629633771695
148,9.062,8.87,-0.63,0.0076863496908974385,0.9025752122413052,0.010519742336395287,0.8371802097369633,0.0004077250419936894,0.8817024245366546
149,9.162,8.93,-0.77,0.007121796650475497,0.9027733227214056,0.01047500751935887,0.8377738804877698,0.0006620789028725476,0.8798306166350273
150,9.183,8.98,-0.93,0.006576983814982499,0.902987721325711,0.010454711941932862,0.8383997660067413,0.000978002432402939,0.8780154814219912
151,9.267,9.04,-0.81,0.0060522138857225264,0.9032182411454791,0.010459143391863993,0.8390581686283403,0.0013557344622259484,0.8762582017366367
152,9.288,9.09,-0.64,0.00554777693084093,0.9034647035556403,0.010488583745499819,0.8397493528710301,0.0017954772538261777,0.8745598727950341
153,9.352,9.15,-0.83,0.005063950001428445,0.9037269183151461,0.010543307927581095,0.8404735453698765,0.002297395655236816,0.8729215031471315
154,9.415,9.2,-1.0,0.004600996761707975,0.9040046836719363,0.010623582886215246,0.8412309348432528,0.0028616162961141328,0.8713440156954387
155,9.477,9.26,-0.63,0.004159167133827276,0.9042977864725354,0.01072966658445302,0.8420216720937137,0.003488226822410335,0.8698282487733723
156,9.519,9.31,-0.79,0.003738696957806467,0.9046060022763037,0.010861807009891053,0.8428458700429526,0.004177275171882436,0.8683749572810469
157,9.581,9.37,-1.08,0.003339807667188527,0.9049290954743873,0.011020241203697533,0.8437036038006284,0.004928768891646034,0.8669848138762859
158,9.644,9.42,-0.87,0.002962705980912957,0.9052668194134472,0.011205194310386258,0.8445949107668542,0.005742674498951616,0.8656584102185955
159,9.665,9.48,-0.94,0.002607583611895294,0.9056189165242512,0.011416878649628225,0.8455197907681352,0.006618916886328668,0.8643962582638155
160,9.726,9.53,-1.15,0.002274616992733802,0.9059851184552353,0.011655492811366026,0.8464782062264721,0.00755737877215329,0.8631987916071817
161,9.789,9.59,-1.23,0.001963967018856217,0.9063651462112081,0.011921220775349814,0.8474700823615032,0.008557900197544967,0.8620663668726517
162,9.892,9.64,-0.97,0.001675778809291954,0.9067587102974786,0.012214231055982232,0.848495307425892,0.0096202780703257,0.8609992651464073
163,9.914,9.7,-1.13,0.0014101814851486508,0.9071655108697532,0.012534675873191686,0.8495537329742424,0.010744265756581727,0.8599976934525038
164,9.975,9.75,-1.32,0.001167287965789847,0.9075852378901738,0.01288269034995323,0.8506451741656174,0.01192957272016954,0.8590617862687143
165,10.036,9.81,-0.88,0.0009471947826582825,0.9080175712898647,0.013258391737016496,0.8517694100994577,0.013175864210358032,0.8581916070806785
166,10.056,9.86,-1.02,0.0007499819106782424,0.9084621811383308,0.013661878665421396,0.8529261841843909,0.014482760997708748,0.857387149972485
167,10.119,9.92,-1.18,0.0005757126171797605,0.9089187278200042,0.014093230427437091,0.8541152045392156,0.015849839158238125,0.8566483412518422
168,10.18,9.97,-1.02,0.0004244333283014887,0.9093868622182233,0.014552506286567245,0.8553361444255028,0.017276629905892467,0.8559750411079942
169,10.282,10.03,-0.86,0.0002961735128697704,0.9098662259069049,0.01503974481730117,0.8565886427114868,0.018762619473389103,0.8553670453004223
170,10.324,10.08,-1.03,0.00019094558381583602,0.910356451350078,0.01555496327541084,0.8578723043668123,0.020307249041483875,0.854824086876269
171,10.345,10.14,-1.17,0.0001087448172386601,0.9108571621093948,0.01609815699968481,0.859186700987409,0.02190991471671509,0.8543458379143494
172,10.406,10.19,-0.79,4.954928924083608e-05,0.9113679730596955,0.016669298846006476,0.8605313713495564,0.023569967557679643,0.8539319112935233
173,10.466,10.25,-0.95,1.3319830681494252e-05,0.9118884906126927,0.017268338654701905,0.8619058219919629,0.0252867136498961,0.8535818624831265
174,10.548,10.3,-1.22,0.0,0.9124183129487932,0.017895202752083898,0.8633095278244717,0.027059414229275363,0.8532951913531196
175,10.568,10.36,-0.94,9.51607425719618e-06,0.9129570302570521,0.018549793487063832,0.8647419327619668,0.028887285854184232,0.8530713440015937
176,10.628,10.41,-0.95,4.177705851519865e-05,0.9135042249832023,0.019231988803651474,0.8662024503820593,0.030769500626052392,0.8529097145972367
177,10.69,10.47,-1.09,9.667471360605057e-05,0.9140594720856937,0.019941641850090012,0.867690464605168,0.032705186458395985,0.8528096472344086
178,10.711,10.52,-1.13,0.00017408360221259016,0.9146223392997612,0.020678580625172006,0.8692053303959028,0.03469342739403132,0.8527704377985691
179,10.772,10.58,-0.83,0.0002738611530571069,0.9151923874096344,0.02144260766202625,0.8707463744851593,0.03673326397017923,0.8527913358398271
180,10.833,10.63,-1.01,0.0003958477429166629,0.9157691705290699,0.022233499749511432,0.8723128961125164,0.0388236936311006,0.8528715464523987
181,10.896,10.69,-1.2,0.0005398667961476496,0.916352236390402,0.02305100769128115,0.8739041677884378,0.04096367118784033,0.8530102321578185
182,10.978,10.74,-0.76,0.0007057249013862397,0.9169411266423254,0.02389485610253796,0.8755194360756406,0.04315210932461566,0.8532065147898247
183,10.999,10.8,-0.92,0.0008932119450946104,0.9175353771566066,0.024764743244493542,0.8771579223887944,0.04538787915135791,0.8534594773788876
184,11.061,10.85,-1.1,0.001102101261629515,0.9181345183438999,0.025660340896547885,0.8788188238116307,0.04766981080187613,0.8537681660344549
185,11.103,10.91,-0.93,0.001332149799516438,0.9187380754788113,0.026581294266135147,0.8805013139307888,0.0499966940770844,0.8541315918230574
186,11.164,10.96,-0.8,0.001583098303645246,0.9193455690342989,0.027527221936164182,0.8822045436860265,0.05236727913272315,0.8545487326403968
187,11.227,11.02,-0.97,0.0018546715131520677,0.9199565150253713,0.028497715850066725,0.8839276422363448,0.05478027721096763,0.8550185350755156
188,11.288,11.07,-1.11,0.0021465783747716414,0.9205704253619603,0.02949234133452534,0.8856697178413369,0.057234361415258804,0.8555399162651544
189,11.369,11.13,-0.74,0.0024585122714307853,0.9211868082107891,0.03051063715993263,0.8874298587569078,0.05972816752765036,0.8561117657363909
190,11.389,11.18,-0.92,0.0027901512658322527,0.9218051683660302,0.03155211563860768,0.889207134144355,0.062260294867922734,0.8567329472356449
191,11.43,11.24,-1.13,0.003141158358743263,0.9224250076285072,0.03261626276074953,0.8910005949916271,0.06482930719363965,0.8574023005421526
192,11.492,11.29,-0.77,0.0035111817616492458,0.9230458251931708,0.03370253836801187,0.8928092750455733,0.06743373364025004,0.8581186432640535
193,11.553,11.35,-0.75,0.0038998551833802127,0.9236671180445367,0.03481037636451231,0.8946321917539962,0.07007206970028071,0.8588807726152524
194,11.635,11.4,-0.87,0.004306798130263603,0.9242883813597496,0.03593918496502409,0.8964683472163691,0.07274277824060306,0.8596874671713028
195,11.656,11.46,-0.87,0.004731616219298304,0.9249091089189643,0.03708834697992659,0.8983167291424587,0.0754442905567246,0.8605374886026671
196,11.737,11.51,-0.57,0.005173901503811422,0.9255287935227813,0.0382572201362811,0.9001763118186636,0.07817500746308424,0.8614295833837299
197,11.758,11.57,-0.77,0.005633232811069075,0.9261469274164825,0.03944513743428396,0.902046057082166,0.08093330041837264,0.8623624844759489
198,11.84,11.62,-0.94,0.00610917609133137,0.9267630027208079,0.04065140753829857,0.9039249153030002,0.0837175126849162,0.8633349129836142
199,11.881,11.68,-0.49,0.006601284777851888,0.9273765118690406,0.041875315201629945,0.9058118263740846,0.08652596052117574,0.8643455797807855
200,11.923,11.73,-0.68,0.007109100157336873,0.9279869480501709,0.04311612172422436,0.9077057207091336,0.08935693440640649,0.8653931871081093
201,11.986,11.79,-0.85,0.00763215175039484,0.9285938056579034,0.04437306544250525,0.9096055202482483,0.09220870029649753,0.8664764301383805
202,12.046,11.84,-0.68,0.008169957701521114,0.9291965807452556,0.04564536225052812,0.9115101394711358,0.0950795009099841,0.8675939985098748
203,12.108,11.9,-0.57,0.008722025178195411,0.92979477148442,0.04693220615164376,0.9134184864180157,0.09796755704321508,0.868744577826542
204,12.171,11.95,-0.74,0.00928785077871217,0.9303878786314481,0.04823276983995476,0.9153294637179781,0.1008710689136102,0.869926851124208
205,12.193,12.01,-0.87,0.009866920948368519,0.9309754059952048,0.04954620531091164,0.9172419696240779,0.10378821752986683,0.8711395003020118
206,12.273,12.06,-0.45,0.010458712403604848,0.9315568609100109,0.05087164450037817,0.9191548990540975,0.10671716608791589,0.8723812075183339
207,12.335,12.12,-0.66,0.011062692563660373,0.9321317547113397,0.0522081999514862,0.9210671446355608,0.10965606139136866,0.8736506565504797
208,12.376,12.17,-0.85,0.011678319989279257,0.9326996032139018,0.053554965508590915,0.9229775977532931,0.11260303529511845,0.874946534117426
209,12.46,12.23,-0.46,0.01230504482798918,0.9332599271914094,0.0549110170376083,0.9248851495977055,0.11555620617070426,0.8762675311649788
210,12.482,12.28,-0.43,0.012942309265490542,0.9338122528572482,0.05627541317203727,0.9267886922119355,0.11851368039201075,0.877612344112744
211,12.542,12.34,-0.54,0.013589547982718553,0.9343561123452541,0.05764719608399942,0.9286871195359965,0.12147355383984566,0.8789796760624231
212,12.604,12.39,-0.53,0.014246188618143066,0.9348910441898135,0.05902539227953763,0.9305793284464857,0.12443391342393688,0.8803682379670822
213,12.667,12.45,-0.23,0.014911652234873202,0.93541659380457,0.060409013417260335,0.9324642197910136,0.12739283862095765,0.8817767497610516
214,12.729,12.5,-0.44,0.015585353792155946,0.9359323139590577,0.06179705714933608,0.934340699416879,0.13034840302726702,0.8832039414501098
215,12.749,12.56,-0.62,0.016266702620876764,0.9364377652526239,0.0631885079838071,0.9362076791936185,0.13329867592509567,0.8846485541616386
216,12.831,12.61,-0.18,0.016955102902674213,0.9369325165850704,0.06458233816715388,0.9380640780291389,0.13624172386093408,0.8861093411545297
217,12.872,12.67,-0.38,0.017649954152283005,0.9374161456235099,0.0659775085860545,0.9399088228791251,0.13917561223487876,0.8875850687887132
218,12.913,12.72,-0.57,0.01835065170272049,0.9378882392649486,0.06737296968730307,0.941740849749368,0.14209840689965353,0.8890745174543275
219,12.996,12.78,-0.4,0.01905658719293679,0.9383483940940996,0.06876766241481766,0.9435591046908215,0.1450081757679783,0.8905764824606973
220,13.037,12.83,-0.29,0.019767149057586805,0.9387962168358346,0.07016051916266988,0.9453625447873151,0.14790299042691754,0.8920897748853314
221,13.078,12.89,-0.42,0.02048172301863842,0.939231324801491,0.07155046474315158,0.9471501391355911,0.15078092775775967,0.8936132223831967
222,13.138,12.94,-0.51,0.0211996925785573,0.9396533463281078,0.07293641736893901,0.9489208698169258,0.15364007155987805,0.8951456699565866
223,13.198,13.0,-0.1,0.02192043951480762,0.94006192120954,0.07431728964838867,0.9506737328592466,0.15647851417696007,0.89668598068589
224,13.239,13.05,-0.3,0.022643344375417856,0.9404567011183196,0.07569198959299647,0.952407739188273,0.15929435812395498,0.8982330364215033
225,13.301,13.11,-0.48,0.02336778697538575,0.9408373500170502,0.07705942163606594,0.9541219155658606,0.16208571771306635,0.8997857384370821
226,13.362,13.16,-0.09,0.02409314689373399,0.941203544558068,0.07841848766164725,0.95581530551357,0.1648507206771129,0.9013430080442981
227,13.425,13.22,-0.07,0.024818803971082114,0.9415549744700473,0.07976808804288886,0.9574869702194039,0.1675875097885954,0.9029037871692568
228,13.487,13.27,-0.17,0.02554413880764592,0.9418913429302036,0.0811071226890276,0.9591359894256649,0.17029424447280045,0.9044670388908091
229,13.589,13.33,-0.16,0.0262685332615857,0.9422123669207948,0.08243449210016941,0.9607614622963044,0.17296910241329172,0.9060317479410863
230,13.63,13.38,0.11,0.02699137094762065,0.9425177775687172,0.08374909842883034,0.9623625082628134,0.17561028114821603,0.9075969211685663
231,13.651,13.44,-0.09,0.02771203773583272,0.9428073204670754,0.08504984654707617,0.9639382678481138,0.17821599965593704,0.9091615879639372
232,13.692,13.49,-0.26,0.028429922250578263,0.9430807559776963,0.08633564511802329,0.9654879034680318,0.18078449992855752,0.9107248006490385
233,13.753,13.55,0.19,0.029144416369400718,0.943337859513683,0.08760540767040281,0.9670106002099954,0.18331404853191752,0.9122856348292268
234,13.815,13.6,-0.02,0.029854915721807682,0.9435784218012283,0.08885805367487808,0.9685055665885651,0.18580293815065071,0.9138431897095995
235,13.939,13.66,-0.22,0.03056082018773618,0.9438022491200038,0.09009250962079249,0.9699720352774248,0.1882494891168456,0.9153965883756392
236,13.96,13.71,-0.03,0.03126153439547941,0.9440091635215567,0.09130771009196847,0.9714092638176444,0.1906520509208219,0.9169449780389657
237,13.98,13.77,0.11,0.03195646821880879,0.9441990030251969,0.09250259884018981,0.9728165353021505,0.19300900370250176,0.9184875302489135
238,14.021,13.82,0.02,0.032645037272988287,0.9443716217908855,0.09367612985511442,0.9741931590360338,0.19531875972179086,0.9200234410706972
239,14.084,13.88,-0.05,0.033326663409316976,0.9445268902686639,0.094827268429451,0.9755384711718555,0.19757976480631229,0.9215519312309786
240,14.147,13.93,0.37,0.034000775207776765,0.9446646953242183,0.09595499221826098,0.9768518353187581,0.19979049977482843,0.9230722462316341
241,14.189,13.99,0.17,0.034666808467352005,0.944784940340196,0.09705829229130375,0.9781326431238317,0.20194948183473235,0.9245836564324224
242,14.313,14.04,-0.02,0.0353242066936185,0.9448875452928974,0.09813617417740679,0.9793803148239946,0.20405526595205498,0.9260854571031952
243,14.355,14.1,0.37,0.03597242158324886,0.9449724468039797,0.0991876588998814,0.980594299766677,0.2061064461925128,0.9275769684462414
244,14.376,14.15,0.38,0.036610913505135456,0.9450395981668168,0.10021178400208917,0.9817740768976975,0.20810165703218803,0.9290575355893542
245,14.418,14.21,0.26,0.03723915197786411,0.9450889693471861,0.10120760456235632,0.9829191552147869,0.21003957463646256,0.9305265285503074
246,14.459,14.26,0.28,0.03785661614325792,0.9451205469580559,0.10217419419738877,0.9840290741856514,0.2119189181058726,0.9319833421735098
247,14.523,14.32,0.53,0.038462795235680046,0.9451343342083808,0.10311064605321353,0.9851034041300942,0.2137384506876417,0.9334273960396003
248,14.583,14.37,0.31,0.03905718904676147,0.9451303508259165,0.10401607378259999,0.9861417465661088,0.21549698095175057,0.9348581343486672
249,14.645,14.43,0.13,0.03963930838517888,0.9451086329541885,0.10488961250786523,0.987143734519994,0.21719336393045433,0.9362750257777777
250,14.686,14.48,0.55,0.04020867553103438,0.9450692330239031,0.1057304197678995,0.98810903280068,0.21882650222017686,0.9376775633135631
251,14.726,14.54,0.35,0.0407648246843,0.9450122195992495,0.10653767644820394,0.9890373382385446,0.22039534704469993,0.9390652640606634
252,14.788,14.59,0.19,0.041307302406695084,0.9449376771996946,0.1073105876926857,0.9899283798891206,0.22189889927850778,0.9404376690269667
253,14.85,14.65,0.41,0.041835668056277385,0.9448457060979848,0.10804838379585778,0.9907819192024184,0.22333621042910165,0.9417943428866771
254,14.931,14.7,0.55,0.042349494213980064,0.9447364220951434,0.10875032107405767,0.9915977501588676,0.22470638357707148,0.943134873722259
255,14.951,14.76,0.47,0.04284836710131248,0.944609956273246,0.10941568271438365,0.9923756993727427,0.22600857427268828,0.9444588727463192
256,15.033,14.81,0.4,0.043331886988433856,0.9444664547267786,0.11004377960014489,0.993115626163581,0.22724199138777817,0.9457659740045153
257,15.053,14.87,0.8,0.043799668591824666,0.9443060782734085,0.11063395111171294,0.9938174225957555,0.22840589792171204,0.9470558340605291
258,15.116,14.92,0.6,0.044251341460844376,0.9441290021450008,0.11118556590182535,0.9944810134858943,0.22949961176046388,0.9483281316640172
259,15.177,14.98,0.4,0.04468655035254778,0.9439354156597072,0.11169802264458228,0.9951063563773701,0.23052250638780616,0.9495825674023644
260,15.239,15.03,0.78,0.04510495559420417,0.9437255218759653,0.1121707507575322,0.9956934414808244,0.2314740115478223,0.950818863336983
261,15.28,15.09,0.74,0.04550623343302496,0.9434995372292663,0.11260321109641103,0.9962422915795605,0.2323536138580037,0.952036762624862
262,15.34,15.14,0.6,0.04589007637264356,0.943257691152575,0.11299489662222387,0.9967529618986488,0.2331608573722459,0.9532360291261239
263,15.402,15.2,0.61,0.04625619349589437,0.9430002256813595,0.11334533304031283,0.9972255399370475,0.23389534409309715,0.9544164469984066
264,15.465,15.25,0.83,0.046604310773435006,0.9427273950442576,0.11365407941091406,0.9976601452627362,0.23455673443269232,0.9555778202788556
265,15.526,15.31,0.6,0.0469341713577593,0.9424394652404323,0.11392072873061773,0.9980569292712334,0.23514474762186466,0.9567199724544445
266,15.567,15.36,0.43,0.04724553586212681,0.9421367136047297,0.11414490848406907,0.998416074907961,0.2356591620669435,0.9578427460213512
267,15.629,15.42,0.87,0.04753818262387487,0.9418194283618312,0.1143262811651319,0.9987377963549807,0.23609981565373972,0.9589460020341315
268,15.669,15.47,0.68,0.04781190795150732,0.9414879081706898,0.11446454476664057,0.9990223386826483,0.23646660599819266,0.9600296196454658
269,15.73,15.53,0.51,0.04806652635489253,0.9411424616605987,0.11455943323778349,0.9992699774667751,0.23675949064310456,0.9610934956373314
270,15.812,15.58,0.74,0.04830187075786723,0.9407834069602704,0.11461071690809127,0.9994810183721401,0.23697848720037246,0.9621375439445217
271,15.833,15.64,0.85,0.048517792692559625,0.940411071221293,0.11461820287705647,0.9996557967034015,0.2371236734381546,0.9631616951714562
272,15.895,15.69,0.77,0.04871416247479657,0.9400257901372655,0.11458173536858944,0.9997946769243707,0.23719518731243144,0.9641658961032747
273,15.937,15.75,0.7,0.04889086936001018,0.9396279074598634,0.11450119604964998,0.9998980521464915,0.23719322694245804,0.9651501092123094
274,15.997,15.8,1.08,0.049047821679121265,0.9392177745130338,0.11437650431245791,0.9999663435873638,0.23711805052969884,0.9661143121610397
275,16.059,15.86,0.87,0.04918494695397355,0.9387957497064366,0.11420761751978828,1.0,0.23696997621996685,0.9670584973025749
276,16.141,15.91,0.65,0.049302191991998534,0.9383621980491645,0.11399453121298496,0.9999994970732159,0.23674938190861577,0.9679826711796361
277,16.161,15.97,1.05,0.049399522959884444,0.9379174906646915,0.11373727928243871,0.9999653368033896,0.23645670498875743,0.9688868540229391
278,16.243,16.02,0.96,0.049476925436102714,0.9374620043079359,0.11343593410042743,0.9998980468376665,0.23609244204257332,0.969771079249805
279,16.284,16.08,0.81,0.049534404442204465,0.9369961208852533,0.11309060661635494,0.9997981797886578,0.23565714847583563,0.9706353929638565
280,16.345,16.13,0.85,0.04957198445283542,0.9365202269781266,0.11270144641442485,0.9996663125210296,0.23515143809579298,0.9714798534566751
281,16.387,16.19,1.07,0.04958970938446473,0.9360347133712364,0.11226864173371603,0.9995030454108993,0.23457598263264712,0.9723045307122291
282,16.449,16.24,0.89,0.04958764256288271,0.9355399745854578,0.11179241945060805,0.9993090015791588,0.23393151120490988,0.9731095059147611
283,16.51,16.3,0.75,0.04956586666954213,0.935036408416244,0.11127304502348206,0.999084826099796,0.2332188097289648,0.9738948709607657
284,16.573,16.35,1.18,0.049524483666784844,0.9345244154778933,0.11071082239954406,0.998831185184314,0.23243872027320728,0.9746607279756117
285,16.632,16.41,0.96,0.04946361470195259,0.9340043987542694,0.11010609388355982,0.9985487653433643,0.23159214035719422,0.9754071888353174
286,16.653,16.46,0.76,0.04938339999036054,0.9334767631566303,0.10945923996826139,0.998238272526801,0.23068002219628517,0.976134374693951
287,16.715,16.52,0.99,0.04928399867712482,0.9329419150892762,0.10877067912616892,0.9979004312436481,0.22970337189232548,0.9768424155171397
288,16.775,16.57,1.05,0.049165588677886285,0.9324002620237365,0.10804086756265699,0.9975359836637264,0.2286632485709917,0.9775314496221436
289,16.856,16.63,0.95,0.04902836649852916,0.9318522120822165,0.10727029893026399,0.9971456887026792,0.22756076346645243,0.978201623225023
290,16.876,16.68,0.89,0.04887254703401594,0.9312981736310534,0.10645950400434377,0.9967303210921392,0.22639707895402014,0.9788530899955267
291,16.938,16.74,1.22,0.048698363346471416,0.9307385548849874,0.1056090503201852,0.9962906704368585,0.2251734075315427,0.9794860106203593
292,17.019,16.79,0.99,0.04850606642268897,0.9301737635230359,0.1047195417717999,0.9958275402605089,0.22389101075038736,0.98010055237543
293,17.039,16.85,0.75,0.0482959249112913,0.9296042063167074,0.10379161817268691,0.9953417470415236,0.22255119809697316,0.9806968887076115
294,17.102,16.9,1.15,0.04806822483983613,0.9290302887711819,0.10282595477897606,0.9948341192400317,0.22115532582589936,0.9812751988264689
295,17.164,16.96,1.02,0.04782326931220566,0.9284524147799785,0.10182326177546891,0.9943054963166039,0.21970479574578972,0.9818356673063545
296,17.246,17.01,0.87,0.047561378186641474,0.9278709862935273,0.10078428372518541,0.9937567277433399,0.2182010539589857,0.9823784836992981
297,17.266,17.07,0.96,0.047282887734781474,0.9272864030019968,0.09970979898300945,0.9931886720080199,0.21664558955624239,0.9829038421591492
298,17.327,17.12,1.16,0.04698815028206671,0.9266990620326551,0.09860061907401092,0.992602195612304,0.21503993326763596,0.9834119410773275
299,17.368,17.18,0.99,0.04667753382992929,0.9261093576619007,0.09745758803709696,0.9919981720648945,0.21338565607095414,0.9839029827304154
300,17.431,17.23,0.86,0.04635142166021689,0.9255176810419657,0.09628158173471733,0.9913774808702903,0.2116843677589028,0.9843771729397004
301,17.513,17.29,1.27,0.04601021192234548,0.9249244199422183,0.09507350712935422,0.9907410065136633,0.20993771546655918,0.9848347207426926
302,17.533,17.34,1.03,0.04565431720371483,0.9243299585049298,0.09383430152753817,0.9900896374423283,0.2081473821606134,0.9852758380765286
303,17.614,17.4,0.79,0.04528416408396633,0.9237346770153434,0.09256493179214044,0.9894242650443572,0.20631508509203764,0.9857007394731154
304,17.655,17.45,1.04,0.04490019267370525,0.9231389516858652,0.09126639352367974,0.988745782625186,0.2044425742139176,0.9861096417658335
305,17.716,17.51,1.06,0.04450285613835989,0.9225431544541774,0.0899397102114276,0.9880550843833916,0.2025316305662534,0.9865027638075654
306,17.758,17.56,0.9,0.044092620207883494,0.9219476527950469,0.08858593235518586,0.9873530643870165,0.20058406462955386,0.9868803261998579
307,17.82,17.62,0.82,0.04366996267299298,0.9213528095456361,0.08720613655859369,0.9866406155521346,0.1986017146490413,0.9872425510331312
308,17.861,17.67,1.08,0.043235372868610566,0.9207589827441732,0.08580142459473168,0.9859186286257963,0.19658644493131647,0.9875896616378506
309,17.923,17.73,0.81,0.04278935114517308,0.9201665254818355,0.08437292244476705,0.9851879911756254,0.19454014411537948,0.987921882346551
310,17.985,17.78,0.57,0.04233240832848786,0.9195757857676403,0.0829217793104177,0.9844495865881536,0.19246472341991502,0.9882394382666047
311,18.027,17.84,0.95,0.04186506516882039,0.918987106406045,0.08144916660104622,0.9837042930776968,0.1903621148687443,0.9885425550636456
312,18.089,17.89,0.77,0.041387851779896005,0.9184008248868577,0.07995627689624864,0.9829529827072733,0.188234269496307,0.988831458755592
313,18.148,17.95,0.61,0.04090130706847905,0.9178172732869654,0.07844432288482346,0.9821965204228841,0.18608315553496335,0.9891063755172572
314,18.21,18.0,0.75,0.04040597815516644,0.9172367781833349,0.0769145362809315,0.9814357631026865,0.18391075658585057,0.9893675314955562
315,18.291,18.06,0.89,0.039902419787038,0.9166596605766874,0.07536816671821318,0.9806715586228865,0.18171906977502297,0.9896151526351893
316,18.393,18.11,0.74,0.039391193742847934,0.9160862358251487,0.07380648062270707,0.9799047449420846,0.17951010389661795,0.9898494645145498
317,18.414,18.17,0.62,0.038872868231484656,0.9155168135871339,0.0722307600655219,0.9791361492055273,0.17728587754482023,0.9900706921915085
318,18.435,18.22,0.99,0.0383480172844663,0.9149516977727165,0.07064230159629982,0.9783665868704441,0.17504841723646863,0.9902790600586295
319,18.475,18.28,0.75,0.03781722014329765,0.9143911865027399,0.06904241505863043,0.9775968608533718,0.17279975552624444,0.9904747917072956
320,18.538,18.33,0.5,0.03728106064257874,0.9138355720749386,0.06743242238869983,0.9768277607000717,0.1705419291164542,0.9906581098001678
321,18.598,18.39,0.81,0.03674012658981074,0.9132851409363391,0.06581365639854725,0.9760600617785568,0.16827697696349267,0.9908292359513671
322,18.639,18.44,0.77,0.03619500914288732,0.9127401736612281,0.06418745954542067,0.9752945244956772,0.1660069383831178,0.9909883906137251
323,18.722,18.5,0.58,0.035646302186262385,0.9122009449340195,0.06255518268883503,0.9745318935376687,0.1637338511566692,0.9911357929724905
324,18.742,18.55,0.51,0.03509460170672614,0.9116677235364883,0.06091818383690162,0.9737728971353534,0.16145974964034457,0.9912716608449612
325,18.824,18.61,0.72,0.034540505169636936,0.9111407723390049,0.059277826883353556,0.9730182463551936,0.1591866628796684,0.9913962105854914
326,18.866,18.66,0.44,0.03398461089638329,0.9106203482955291,0.05763548033657697,0.9722686344176859,0.15691661273129115,0.9915096569952899
327,18.928,18.72,0.21,0.03342751744376981,0.910106702442225,0.05599251604185561,0.9715247360446235,0.1546516119942138,0.9916122132364519
328,19.01,18.77,0.61,0.03286982298591793,0.9096000798996754,0.05435030789791229,0.9707872068367825,0.15239366255246084,0.9917040907497269
329,19.031,18.83,0.38,0.032312124699162385,0.9091007198787687,0.05271023056873461,0.9700566826835425,0.15014475353112441,0.9917854991755968
330,19.092,18.88,0.19,0.031755018150321626,0.9086088556903845,0.051073658191588905,0.9693337792059351,0.14790685946758256,0.9918566462783556
331,19.134,18.94,0.37,0.031199096688657,0.9081247147590159,0.04944196308203586,0.9686190912347484,0.14568193849959915,0.9919177378729831
332,19.195,18.99,0.46,0.03064495084184922,0.9076485186403794,0.04781651443678665,0.9679131923253246,0.14347193057196236,0.9919689777546377
333,19.257,19.05,0.32,0.03009316771638705,0.9071804830429078,0.046198677035418474,0.9672166343101972,0.1412787556632703,0.9920105676306352
334,19.318,19.1,0.22,0.029544330402817173,0.9067208178529096,0.044589809942152746,0.9665299468900475,0.1391043120344397,0.9920427070548573
335,19.379,19.16,0.57,0.02899901738634746,0.9062697271631147,0.04299126520902382,0.9658536372629172,0.13695047450053474,0.9920655933645365
336,19.44,19.21,0.31,0.02845780196336268,0.9058274093042789,0.0414043865819053,0.9651881897911285,0.13481909272756604,0.9920794216193147
337,19.462,19.27,0.06,0.02792125166449402,0.9053940568794553,0.039830508210994396,0.9645340657049422,0.13271198955595165,0.9920843845424334
338,19.523,19.32,0.43,0.027389927684954598,0.9049698568005118,0.03827095336745067,0.9638917028417452,0.13063095935236818,0.9920806724638663
339,19.606,19.38,0.31,0.026864384322904628,0.9045549903264328,0.036727033167997775,0.9632615154193914,0.12857776639173016,0.992068473265195
340,19.666,19.43,0.12,0.026345168426631056,0.9041496331029466,0.03520004530937865,0.9626438938422355,0.12655414327099665,0.9920479723260911
341,19.688,19.49,0.12,0.025832818851319873,0.9037539552030217,0.03369127281449528,0.9620392045386755,0.12456178935646167,0.9920193524723326
342,19.748,19.54,0.28,0.025327865926203202,0.9033681211677471,0.032201982791936354,0.9614477898294591,0.12260236926617384,0.9919827939252386
343,19.811,19.6,0.04,0.024830830932878866,0.9029922900470071,0.030733425210517622,0.9608699678261337,0.12067751138910066,0.9919384742523302
344,19.852,19.65,-0.14,0.024342225595572267,0.9026266154392862,0.02928683169036899,0.9603060323589678,0.11878880644257785,0.9918865683190125
345,19.914,19.71,0.26,0.02386255158402105,0.902271245529968,0.027863414311943575,0.9597562529336725,0.11693780606949852,0.9918272482410858
346,19.956,19.76,0.02,0.023392300029552577,0.9019263231275815,0.026464364444172366,0.9592208747163009,0.1151260214766088,0.9917606833379224
347,20.017,19.82,-0.19,0.02293195105482968,0.9015919856975675,0.0250908515928636,0.9587001185457983,0.1133549221151825,0.991687040086223
348,20.08,19.87,0.03,0.02248197331767505,0.9012683653932634,0.023744022270342762,0.9581941809739613,0.11162593440528538,0.9916064820743575
349,20.204,19.93,0.07,0.022042823569351576,0.9009555890839351,0.022424998887329795,0.9577032343328168,0.10994044050479959,0.9915191699573368
350,20.224,19.98,-0.09,0.02161494622763853,0.9006537783798524,0.021134878668138676,0.9572274268294284,0.10829977712431806,0.9914252614125764
351,20.245,20.04,-0.19,0.021198772964970906,0.9003630496546258,0.019874732590315268,0.9567668826681301,0.10670523438895739,0.9913249110967215
352,20.287,20.09,0.11,0.020794722311836874,0.9000835140652482,0.018645604349802405,0.9563217022002471,0.10515805474811724,0.9912182706038487
353,20.348,20.15,-0.12,0.020403199275599113,0.8998152775703943,0.01744850935274533,0.9558919621012193,0.10365943193420703,0.991105488425319
354,20.409,20.2,-0.38,0.02002459497491147,0.8995584409475424,0.016284433735102882,0.9554777155747168,0.10221050997132784,0.9909867099115341
355,20.471,20.26,-0.01,0.019659286289923607,0.8993130998094316,0.015154333411258101,0.9550789925830405,0.10081238223485749,0.9908620772358093
356,20.553,20.31,-0.21,0.01930763552849319,0.8990793446202808,0.014059133152857289,0.9546958001028447,0.0994660905628286,0.9907317293605217
357,20.575,20.37,-0.42,0.01896999010862805,0.8988572607121383,0.012999725699098134,0.954328122405139,0.09817262441988868,0.9905958020057043
358,20.618,20.42,-0.32,0.01864668225734691,0.8986469283017117,0.011976970899555605,0.9539759213588391,0.09693292011451653,0.990454427620267
359,20.678,20.48,-0.16,0.018338028726115087,0.8984484225080086,0.010991694890481546,0.9536391367575495,0.09574786007006716,0.9903077353559451
360,20.74,20.53,-0.33,0.018044330523001244,0.8982618133710355,0.010044689305450901,0.9533176866692972,0.09461827215009981,0.9901558510439822
361,20.803,20.59,-0.45,0.01776587266168861,0.8980871658717117,0.00913671052118421,0.9530114678087155,0.09354492903833009,0.9899988971744784
362,20.863,20.64,-0.06,0.017502923927460747,0.8979245399531078,0.00826847893930849,0.9527203559309897,0.09252854767348795,0.9898369928782479
363,20.968,20.7,-0.28,0.01725573666028626,0.8977739905430856,0.007440678304786087,0.9524442062466958,0.09156978873934726,0.9896702539109197
364,20.988,20.75,-0.5,0.017024546555136796,0.8976355675783952,0.00665395506172148,0.95218285385653,0.09066925621018303,0.9894987926389519
365,21.029,20.81,-0.23,0.016809572479671492,0.8975093160303036,0.005908917747217959,0.9519361142050216,0.08982749695191616,0.9893227180271801
366,21.05,20.86,-0.24,0.016611016309415166,0.8973952759318562,0.005206136423964774,0.9517037835524609,0.08904500037920653,0.9891421356274609
367,21.111,20.92,-0.4,0.016429062780533153,0.897293482406916,0.004546142152247051,0.951485639464393,0.08832219816871123,0.9889571475680142
368,21.171,20.97,-0.48,0.01626387936024586,0.897203965701222,0.0039294265019382615,0.951281441318382,0.08765946402866748,0.9887678525431363
369,21.274,21.03,-0.24,0.016115616134862964,0.8971267512158217,0.0033564411048043834,0.9510909308282648,0.08705711352492826,0.9885743458029621
370,21.294,21.08,-0.46,0.01598440571537802,0.897061859543275,0.0028275972472840026,0.9509138325863238,0.08651540396353859,0.9883767191429402
371,21.355,21.14,-0.7,0.015870363160530226,0.897009306507043,0.002343265503814508,0.9507498546236822,0.08603453432985902,0.9881750608927142
372,21.396,21.19,-0.28,0.015773585917197054,0.896969103204469,0.001903775410702295,0.9505986889889938,0.08561464528414642,0.9879694559041742
373,21.457,21.25,-0.48,0.01569415377794242,0.8969412560537312,0.0015094151805028968,0.950460012345167,0.08525581921339453,0.9877599855384838
374,21.539,21.3,-0.64,0.015632128855510817,0.896925766845101,0.001160431456837687,0.9503334865836223,0.08495808033911102,0.9875467276520058
375,21.559,21.36,-0.46,0.015587555574038799,0.8969226327967841,0.0008570291094823652,0.9502187594556231,0.08472139488060788,0.9873297565811006
376,21.66,21.41,-0.33,0.01556046067678282,0.8969318466155242,0.0005993710695369152,0.95011546522034,0.08454567127332165,0.9871091431257778
377,21.681,21.47,-0.45,0.015550853250226808,0.8969533965619988,0.000387578204591422,0.9500232253090944,0.08443076044163075,0.986884954532154
378,21.723,21.52,-0.57,0.015558724764490802,0.8969872665209252,0.00022172923391750854,0.9499416490048693,0.0843764561256014,0.9866572544737008
379,21.787,21.58,-0.19,0.015584049130016552,0.897033436075718,0.00010186068379232645,0.9498703341358885,0.08438249526111331,0.9864261030312365
380,21.827,21.63,-0.41,0.015626782770584147,0.8970918805874655,2.7966883167629757e-05,0.9498088677817323,0.08444855841285691,0.9861915566715476
381,21.888,21.69,-0.66,0.015686864712798867,0.8971625712779077,0.0,0.9497568269901275,0.08457427025971874,0.9859536682244857
382,21.952,21.74,-0.33,0.01576421669225399,0.8972454753160259,1.7870118614358824e-05,0.9497137795023991,0.08475920013208729,0.9857124868583549
383,22.033,21.8,-0.4,0.015858743276620443,0.8973405559078005,8.144535853548062e-05,0.949679284485472,0.08500286260060415,0.9854680580533838
384,22.053,21.85,-0.58,0.01597033200592084,0.8974477723886616,0.00019055203525181056,0.9496528932682684,0.08530471811582309,0.985220423573156
385,22.095,21.91,-0.61,0.016098853550200264,0.8975670803182021,0.0003449748632522923,0.9496341500806265,0.08566417369815942,0.9849696214339541
386,22.156,21.96,-0.38,0.01624416188473916,0.8976984315767644,0.0005444572014522015,0.9496225927933709,0.08608058367744943,0.98471568587198
387,22.239,22.02,-0.61,0.016406094482888305,0.8978417744635387,0.0007887013409208529,0.9496177536584427,0.08655325048136282,0.9844586473083851
388,22.26,22.07,-0.77,0.016584472526523317,0.8979970537958202,0.0010773688346151966,0.9496191600481043,0.0870814254717977,0.9841985323120724
389,22.321,22.13,-0.33,0.016779101134019998,0.8981642110091441,0.0014100808685930722,0.9496263351923814,0.08766430982828076,0.983935363560292
390,22.404,22.18,-0.54,0.016989769605575158,0.8983431842580796,0.0017864186740154503,0.9496387989140099,0.08830105547730206,0.9836691597971077
391,22.425,22.24,-0.72,0.017216251685647808,0.8985339085175378,0.002205923979148481,0.9496560683602387,0.08899076606642858,0.9833999357899147
392,22.487,22.29,-0.51,0.017458305842270823,0.8987363156845106,0.00266809950049925,0.9496776587311206,0.08973249798199291,0.9831277022842839
393,22.549,22.35,-0.42,0.017715675562994266,0.8989503346801817,0.0031724094722339912,0.9497030840041238,0.09052526140913213,0.9828524659574519
394,22.612,22.4,-0.54,0.017988089667250958,0.8991758915523148,0.0037182802131421914,0.9497318576547692,0.09136802143290737,0.9825742293708557
395,22.653,22.46,-0.63,0.0182752626349475,0.8994129095777912,0.004305100730493718,0.9497634933727154,0.09225969917918418,0.9822929909222196
396,22.756,22.51,-0.29,0.018576894951088493,0.8996613093651229,0.004932223360164632,0.9497975057724605,0.09319917299394646,0.9820087447977114
397,22.777,22.57,-0.51,0.018892673466256685,0.8999210089567274,0.005598964442460787,0.9498334110974962,0.09418527965973149,0.981721480924628
398,22.84,22.62,-0.75,0.01922227177277628,0.9001919239307057,0.00630460503311469,0.949870727916402,0.09521681564787184,0.9814311849249968
399,22.881,22.68,-0.34,0.01956535059636665,0.9004739675018412,0.007048391648932791,0.9499089778091726,0.09629253840521676,0.9811378380704322
400,22.921,22.73,-0.42,0.019921558203065334,0.900767050621513,0.00782953704758669,0.9499476860419211,0.09741116767397262,0.9808414172385397
401,22.982,22.79,-0.55,0.0202905308211637,0.9010710820761904,0.008647221041042888,0.9499863822280374,0.09857138684323095,0.9805418948712179
402,23.044,22.84,-0.46,0.020671893077863338,0.9013859685841742,0.009500591342031517,0.9500246009741472,0.099771844330699,0.9802392389352452
403,23.127,22.9,-0.24,0.021065258450364006,0.9017116148902351,0.010388764442858361,0.9500618825096127,0.1010111549931496,0.9799334128854816
404,23.148,22.95,-0.41,0.021470229731135798,0.9020479238577439,0.011310826525868465,0.9500977732983925,0.10228790156413059,0.9796243756309101
405,23.211,23.01,-0.55,0.02188639950715632,0.9023947965578679,0.012265834404881265,0.9501318266319962,0.10360063611749143,0.9793120815036906
406,23.253,23.06,-0.14,0.022313350652881536,0.9027521323554684,0.013252816496863128,0.9501636032022819,0.1049478815553203,0.9789964802313513
407,23.314,23.12,-0.36,0.02275065683668643,0.9031198289914258,0.014270773823038842,0.9501926716528931,0.10632813311891842,0.9786775169121981
408,23.375,23.17,-0.59,0.023197883040468048,0.903497782661199,0.015318681038564836,0.9502186091082342,0.10773985992144208,0.9783551319940224
409,23.436,23.23,-0.35,0.02365458609205465,0.9038858880894929,0.016395487489775318,0.9502410016791848,0.10918150650084142,0.9780292612561854
410,23.539,23.28,-0.35,0.024120315210018995,0.9042840386009541,0.017500118297953445,0.9502594449450809,0.11065149439170494,0.9776998357951541
411,23.559,23.34,-0.5,0.02459461256042319,0.9046921261868552,0.018631475468560574,0.9502735444116338,0.11214822371454145,0.9773667820136224
412,23.6,23.39,-0.54,0.02507701382489842,0.9051100415678622,0.019788439024738223,0.9502829159447066,0.11367007478092164,0.977030021613464
413,23.663,23.45,-0.21,0.02556704877932293,0.9055376742531214,0.020969868163699758,0.9502871861802101,0.11521540971281949,0.9766894715928109
414,23.746,23.5,-0.42,0.026064241882265984,0.9059749125960022,0.022174602434494227,0.9502859929104822,0.11678257407442834,0.9763450442475324
415,23.767,23.56,-0.6,0.0265681128723208,0.906421643846839,0.023401462935564537,0.9502789854473367,0.11836989851467121,0.9759966471774073
416,23.828,23.61,-0.15,0.027078177373440173,0.9068777542029727,0.024649253530503415,0.9502658249617761,0.11997570041859831,0.9756441832972802
417,23.869,23.67,-0.28,0.027593947507403106,0.9073431288563432,0.025916762080456363,0.9502461848001542,0.12159828556585812,0.9752875508534958
418,23.91,23.72,-0.43,0.028114932512555313,0.9078176520388263,0.02720276169166354,0.9502197507765245,0.12323594979441015,0.9749266434459575
419,23.972,23.78,-0.28,0.028640639367975423,0.9083012070655018,0.028506011976593273,0.9501862214412247,0.12488698066765676,0.9745613500561785
420,24.034,23.83,-0.11,0.029170573422254716,0.9087936763759802,0.029825260327099885,0.9501453083261285,0.1265496591432141,0.974191555081614
421,24.095,23.89,-0.27,0.029704239026137298,0.9092949415738195,0.031159243198117786,0.9500967361670021,0.12822226124157476,0.9738171383764459
422,24.177,23.94,-0.41,0.03024114016830411,0.9098048834639668,0.032506687400473605,0.950040243103197,0.1299030597129277,0.9734379752989227
423,24.24,24.0,-0.02,0.0307807811135849,0.9103233820881285,0.033866311401398966,0.9499755808547627,0.13159032570043028,0.9730539367652689
424,24.26,24.05,-0.24,0.03132266704287215,0.9108503167579606,0.035236826631322854,0.9499025148768936,0.13328233039824974,0.9726648893100603
425,24.301,24.11,-0.43,0.031866304693990974,0.9113855660859512,0.036616938795499994,0.9498208244914713,0.13497734670267944,0.9722706951529215
426,24.363,24.16,-0.08,0.03241120300275018,0.9119290080138576,0.038005349188974205,0.9497303029954808,0.1366736508546148,0.9718712122713434
427,24.425,24.22,-0.06,0.03295687374337729,0.9124805198385254,0.039400756013364395,0.9496307577461139,0.13836952407165382,0.9714662944794071
428,24.467,24.27,-0.17,0.03350283216751107,0.9130399782349075,0.04080185569397394,0.949522010222391,0.14006325416805743,0.9710557915122447
429,24.589,24.33,-0.17,0.034048597640875804,0.9136072592761352,0.042207344195634926,0.9494038960634171,0.14175313716080362,0.9706395491161443
430,24.609,24.38,0.12,0.034593694276724575,0.9141822384505593,0.04361591833555732,0.949276265083881,0.1434374788600343,0.9702174091442055
431,24.629,24.44,-0.09,0.03513765156514185,0.9147647906756944,0.045026277091393466,0.9491389812676257,0.14511459644227553,0.969789209657415
432,24.692,24.49,-0.27,0.03568000499731001,0.9153547903090101,0.046437122902727904,0.9489919227400948,0.14678282000486353,0.969354785031051
433,24.796,24.55,0.19,0.03622029668384996,0.9159521111555541,0.047847162964208975,0.9488349817203946,0.14844049410004853,0.9689139660663697
434,24.817,24.6,-0.02,0.036758075966349696,0.9165566264724213,0.0492551105085845,0.9486680644536075,0.15008597924726894,0.968466580107589
435,24.858,24.66,-0.21,0.03729290002119067,0.9171682089701007,0.05065968607794882,0.9484910911239179,0.15171765342207919,0.9680124511642857
436,24.96,24.71,-0.02,0.03782433445476828,0.9177867308107485,0.05205961878150419,0.9483039957492652,0.15333391352021505,0.9675514000394027
437,24.98,24.77,0.12,0.03835195388919286,0.9184120636034354,0.053453647538187016,0.9481067260583366,0.15493317679528998,0.9670832444630738
438,25.043,24.82,0.04,0.03887534253753668,0.9190440783964261,0.054840522302651434,0.9478992433504205,0.1565138822685943,0.9666077992324706
439,25.104,24.88,-0.02,0.03939409476763894,0.9196826456666389,0.05621900527321622,0.9476815223382126,0.15807449210944227,0.966124876357915
440,25.124,24.93,0.38,0.03990781565343998,0.9203276353065167,0.05758787208044626,0.947453550973317,0.1596134929845491,0.9656342852154435
441,25.185,24.99,0.19,0.04041612151284434,0.9209789166085665,0.058945912955155215,0.9472153302538061,0.1611293973750138,0.96513583270589
442,25.247,25.04,-0.0,0.0409186404311962,0.9216363582477757,0.060291933874766994,0.9469668740128437,0.162620744859598,0.964629323420442
443,25.331,25.1,0.41,0.041415012769554505,0.9222998282620565,0.06162475768711722,0.9467082086872255,0.16408610336311225,0.9641145598125335
444,25.351,25.15,0.36,0.04190489165706469,0.9229691940308061,0.06294322521095669,0.9464393730646328,0.1655240703688366,0.9635913423758953
445,25.415,25.21,0.21,0.042387943466815424,0.9236443222516489,0.06424619631257582,0.9461604180084613,0.16693327409396927,0.9630594698286279
446,25.477,25.26,0.26,0.042863848274627206,0.924325078915436,0.06553255095797418,0.9458714061595556,0.16831237462717444,0.962518739303244
447,25.519,25.32,0.49,0.043332300300274816,0.9250113292796203,0.0668011902399231,0.9455724116148602,0.16966006502740338,0.9619689465426168
448,25.56,25.37,0.27,0.04379300833070983,0.9257029378401068,0.06805103737925355,0.9452635195833711,0.17097507238325274,0.961409886101768
449,25.623,25.43,0.11,0.04424569612488315,0.9263997683016943,0.06928103869969793,0.9449448260198696,0.1722561588321734,0.9608413515554797
450,25.705,25.48,0.52,0.04469010279975364,0.9271016835472817,0.07049016457556273,0.9446164372370234,0.17350212253887978,0.96026313571177
451,25.726,25.54,0.29,0.04512598319702356,0.9278085456061119,0.07167741035145692,0.9442784694965197,0.17471179863233133,0.9596750308312897
452,25.786,25.59,0.11,0.0455531082300821,0.9285202156214001,0.07284179723323665,0.9439310485800133,0.17588406010064414,0.9590768288527382
453,25.849,25.65,0.37,0.04597126521058586,0.9292365538177592,0.07398237314923081,0.9435743093409896,0.1770178186432768,0.9584683216244243
454,25.909,25.7,0.46,0.04638025815409127,0.9299574194688436,0.0750982135807822,0.9432083952389134,0.17811202547982874,0.9578493011420949
455,25.971,25.76,0.38,0.04677990806416496,0.93068267086562,0.07618842236119716,0.9428334578570474,0.17916567211476886,0.9572195597932047
456,26.134,25.81,0.33,0.04717005319440313,0.9314121652856917,0.07725213244222796,0.9424496564053015,0.1801777910574176,0.956578890607877
457,26.154,25.87,0.69,0.047550549287809635,0.9321457589641596,0.07828850662722382,0.9420571572095352,0.18114745649658728,0.9559270875168006
458,26.174,25.92,0.5,0.04792126979304854,0.932883307066503,0.07929673827018191,0.9416561331886242,0.18207378492941337,0.9552639456162288
459,26.194,25.98,0.3,0.048282106057182035,0.933624663663934,0.08027605194007432,0.9412467633203352,0.18295593574404123,0.9545892614401883
460,26.235,26.03,0.73,0.04863296749460807,0.934369681711623,0.08122570404997262,0.9408292320968376,0.18379311175595958,0.953902833239922
461,26.295,26.09,0.59,0.048973781732010974,0.9351182130301199,0.08214498345067418,0.9404037289704762,0.18458455969788595,0.953204461270538
462,26.337,26.14,0.45,0.04930449472921362,0.935870108290231,0.08303321198870173,0.9399704477903256,0.18532957066317726,0.952493948084818
463,26.461,26.2,0.56,0.04962507087586126,0.9366252170016057,0.08388974502860798,0.9395295862302863,0.1860274805028102,0.9517710988341409
464,26.481,26.25,0.71,0.04993549306391309,0.9373833875052451,0.08471397193956055,0.9390813452097984,0.18667767017606596,0.9510357215763694
465,26.521,26.31,0.55,0.0502357627359766,0.9381444669700739,0.08550531654629455,0.938625928308192,0.18727956605512605,0.9502876275904016
466,26.562,26.36,0.42,0.050525899909556825,0.938908301393645,0.08626323754460638,0.9381635411734226,0.1878326401838316,0.949526631697003
467,26.603,26.42,0.82,0.05080594317730152,0.9396747356070112,0.08698722888155838,0.9376943909257601,0.18833641049091251,0.948752552585415
468,26.687,26.47,0.6,0.0510759496833291,0.940443613283765,0.08767682010054458,0.9372186855568378,0.18879044095804864,0.9479652131451306
469,26.811,26.53,0.39,0.05133599507573297,0.9412147769532166,0.08833157665133604,0.936736633324387,0.18919434174316516,0.9471644408021781
470,26.831,26.58,0.71,0.051586173435366346,0.9419880680176572,0.08895110016517398,0.936248442143136,0.18954776925941197,0.9463500678592293
471,26.852,26.64,0.72,0.0518265971810358,0.9427633267736312,0.08953502869499663,0.935754318972557,0.1898504262103301,0.9455219318388371
472,26.892,26.69,0.6,0.052057396951250966,0.9435403924371459,0.09008303692093966,0.9352544692022994,0.19010206158173265,0.9446798758291838
473,26.954,26.75,0.56,0.05227872146265893,0.9443191031728175,0.0905948363212036,0.9347490960365324,0.1903024705908563,0.9438237488318144
474,26.996,26.8,0.82,0.05249073734526592,0.9450992961270468,0.091070175308269,0.9342383998789581,0.19045149459342192,0.9429534061108276
475,27.057,26.86,0.59,0.052693628954547204,0.9458808074653816,0.09150883933039491,0.9337225777205136,0.19054902094933165,0.9420687095429428
476,27.158,26.91,0.39,0.0528875981605562,0.94666347241425,0.09191065093832855,0.9332018225317975,0.1905949828477911,0.9411695279678549
477,27.18,26.97,0.79,0.05307286411415292,0.9474471253072578,0.09227546981713519,0.9326763226622095,0.1905893590926809,0.9402557375383153
478,27.24,27.02,0.55,0.05324966299048929,0.9482315996362268,0.09260319278306048,0.9321462612477356,0.19053217384901108,0.9393272220694149
479,27.281,27.08,0.34,0.05341824770990322,0.949016728107087,0.09289375374533826,0.9316118156292559,0.19042349635125944,0.938383873386647
480,27.322,27.13,0.53,0.05357888763638568,0.9498023427006705,0.09314712363281268,0.9310731567834193,0.19026344057435635,0.9374255916724054
481,27.384,27.19,0.63,0.0537318682538231,0.950588274738322,0.09336331028525738,0.9305304487682446,0.19005216486804466,0.9364522858105806
482,27.444,27.24,0.53,0.0538774908202786,0.951374354952066,0.09354235830939028,0.9299838481853229,0.18978987155528126,0.9354638737289332
483,27.548,27.3,0.45,0.05401607200062907,0.9521604135589049,0.0936843488996978,0.9294335036600471,0.18947680649529747,0.9344602827389298
484,27.569,27.35,0.81,0.054147943477932954,0.9529462803387053,0.09378939962426983,0.9288795553408675,0.18911325861195558,0.9334414498726878
485,27.611,27.41,0.58,0.05427345154399854,0.9537317847150094,0.09385766417599566,0.9283221344180699,0.18869955938811162,0.9324073222165395
486,27.674,27.46,0.37,0.05439295666973796,0.9545167558379941,0.09388933208963894,0.927761362662065,0.18823608232677597,0.9313578572406237
487,27.736,27.52,0.75,0.05450683305600423,0.9553010226687025,0.09388462842545209,0.9271973519808918,0.1877232423799467,0.9302930231238237
488,27.777,27.57,0.65,0.05461546816571242,0.9560844140635854,0.09384381342014295,0.9266302039964576,0.18716149534605198,0.9292127990733002
489,27.839,27.63,0.49,0.0547192622381266,0.9568667588583263,0.09376718210612485,0.9260600096390421,0.18655133723695833,0.9281171756378874
490,27.901,27.68,0.54,0.05481862778624649,0.9576478859499036,0.0936550638999568,0.9254868487600099,0.18589330361552112,0.9270061550146559
491,27.942,27.74,0.71,0.054913989078284084,0.958427624375809,0.09350782216081482,0.9249107897632403,0.18518796890470124,0.9258797513478922
492,27.985,27.79,0.49,0.055005781604281316,0.9592058033892767,0.09332585371985129,0.9243318892559582,0.1844359456693096,0.9247379910196789
493,28.046,27.85,0.32,0.055094451528934905,0.959982252529364,0.09310958838132075,0.9237501917195485,0.18363788387144167,0.9235809129312483
494,28.129,27.9,0.72,0.05518045513163872,0.9607568016847926,0.09285948839629804,0.9231657292008538,0.18279447010066077,0.9224085687742732
495,28.15,27.96,0.48,0.05526425823465694,0.9615292811505814,0.09257604790973792,0.9225785210244,0.18190642677996685,0.9212210232912327
496,28.211,28.01,0.27,0.05534633562023117,0.9622995216766238,0.0922597923815409,0.9219885735259509,0.18097451134854362,0.9200183545239945
497,28.272,28.07,0.54,0.05542717043732546,0.9630673545074908,0.09191127798220201,0.92139587980794,0.17999951542224513,0.9188006540497672
498,28.314,28.12,0.56,0.055507253598652544,0.9638326114128402,0.0915310909636225,0.9208004195174616,0.1789822639327633,0.9175680272035598
499,28.376,28.18,0.42,0.05558708316858003,0.9645951247079325,0.09111984700573494,0.9202021586475256,0.1779236142463835,0.9163205932863759
500,28.438,28.23,0.37,0.05566716374246162,0.9653547272639247,0.09067819053958881,0.9196010493624486,0.17682445526320317,0.9150584857584747
501,28.499,28.29,0.66,0.0557480058179107,0.9661112525077848,0.09020679404747764,0.9189970298485397,0.175685706497713,0.9137818524170813
502,28.561,28.34,0.42,0.05583012515857467,0.9668645344117692,0.0897063573406792,0.9183900241913197,0.1745083171416823,0.9124908555579296
503,28.686,28.4,0.2,0.055914042151048504,0.9676144074724253,0.08917760681538553,0.9177799422803742,0.17329326511031468,0.9111856721200606
504,28.706,28.45,0.6,0.056000281155637155,0.9683607066790824,0.08862129468738165,0.9171666797428278,0.1720415560726556,0.9098664938133625
505,28.727,28.51,0.37,0.056089369851715545,0.9691032674717904,0.0880381982060352,0.916550117906278,0.17075422246722657,0.9085335272284044
506,28.768,28.56,0.16,0.05618183857843351,0.9698419256886756,0.08742911884816935,0.9159301237919154,0.16943232250381032,0.9071869939282552
507,28.828,28.62,0.29,0.05627821967148283,0.9705765175027232,0.08679488149234879,0.9153065501386842,0.16807693915225577,0.905827130522095
508,28.889,28.67,0.38,0.05637904679662481,0.9713068793480021,0.0861363335741045,0.9146792354594667,0.1666891791191156,0.9044541887204718
509,28.951,28.73,0.26,0.056484854280675505,0.9720328478352886,0.08545434422271067,0.9140480041300159,0.16527017181284634,0.9030684353720818
510,28.992,28.78,0.16,0.056596176440629246,0.9727542596569866,0.0847498033801969,0.913412666510892,0.16382106829820084,0.9016701524819954
511,29.032,28.84,0.55,0.056713546911582334,0.9734709514811962,0.0840236209033071,0.9127730191022004,0.1623430402403962,0.9002596372112274
512,29.114,28.89,0.33,0.05683749797413524,0.9741827598347306,0.0832767256491917,0.9121288447303953,0.16083727883964066,0.8988372018574756
513,29.134,28.95,0.11,0.05696855988199991,0.9748895209748202,0.08251006454573033,0.9114799127659008,0.159304993756627,0.897403173816776
514,29.196,29.0,0.5,0.05710726019060273,0.9755910707492169,0.08172460164749355,0.9108259793699797,0.15774741202965306,0.8959578955257557
515,29.258,29.06,0.41,0.05725412308754826,0.9762872444443997,0.08092131717851024,0.9101667877690566,0.15616577698408468,0.894501724384128
516,29.319,29.11,0.26,0.05740966872586913,0.976977876621612,0.08010120656316247,0.9095020685546025,0.1545613471348986,0.893035032657131
517,29.381,29.17,0.32,0.05757441256101583,0.9776628009405521,0.07926527944656653,0.9088315400069578,0.15293539508306686,0.8915582073576929
518,29.422,29.22,0.5,0.057748864692572975,0.9783418499706277,0.07841455870578676,0.9081549084418993,0.15128920640660576,0.8900716501080902
519,29.483,29.28,0.3,0.05793352921173687,0.9790148549897127,0.07755007945327376,0.9074718685788882,0.14962407854716595,0.888575776980816
520,29.544,29.33,0.13,0.05812890355560923,0.9796816457704062,0.07667288803394115,0.9067821039298729,0.1479413196930679,0.887071018318366
521,29.606,29.39,0.5,0.05833547786933239,0.9803420503538846,0.0757840410172273,0.9060852872075713,0.14624224765971,0.8855578185316682
522,29.667,29.44,0.25,0.05855373437703115,0.9809958948115716,0.07488460418539125,0.9053810807522118,0.14452818876828283,0.8840366358768741
523,29.728,29.5,0.02,0.05878414676244487,0.9816430029949759,0.07397565151917758,0.9046691369757885,0.14280047672369248,0.882507942210289
524,29.748,29.55,0.28,0.05902717956003919,0.9822831962741777,0.07305826418184402,0.9039490988230864,0.1410604514925586,0.8809722227212461
525,29.81,29.61,0.29,0.05928328755730228,0.9829162932655441,0.07213352950246044,0.9032206002489072,0.13930945818211254,0.8794299756427709
526,29.893,29.66,0.17,0.05955291520884463,0.983542109549347,0.07120253995934168,0.9024832667109922,0.1375488459207505,0.8778817119399767
527,29.934,29.72,0.13,0.05983649606281986,0.9841604573780828,0.07026639216435031,0.9017367156783612,0.13577996674093776,0.8763279549762588
528,29.975,29.77,0.4,0.060134452200094564,0.9847711453764391,0.0693261858486348,0.900980557155154,0.13400417446515844,0.8747692401574357
529,30.016,29.83,0.18,0.060447193686546455,0.9853739782339606,0.06838302285028657,0.9002143942202143,0.13222282359563672,0.8732061145540022
530,30.1,29.88,-0.02,0.060775118038844916,0.9859687563915561,0.06743800610438537,0.8994378235825473,0.13043726820858043,0.8716391365017665
531,30.141,29.94,0.41,0.06111860970406253,0.9865552757230357,0.06649223863591043,0.8986504361526237,0.12864886085372146,0.8700688751812509
532,30.183,29.99,0.19,0.06147803955349629,0.987133327212841,0.06554682255604774,0.8978518176292792,0.12685895145994042,0.8684959101763693
533,30.244,30.05,-0.01,0.06185376439112111,0.9877026966310533,0.06460285806247668,0.8970415491017929,0.1250688862477508,0.8669208310130795
534,30.305,30.1,0.18,0.062246126477128357,0.9882631642066984,0.06366144244421522,0.8962192076668365,0.12328000664941412,0.8653442366788755
535,30.366,30.16,0.26,0.06265545306703109,0.9888145043003215,0.0627236690916365,0.8953843670601205,0.12149364823746935,0.8637667351240842
536,30.427,30.21,0.12,0.06308205596683866,0.9893564850767294,0.06179062651238443,0.8945365983023252,0.11971113966244358,0.8621889427460073
537,30.489,30.27,0.03,0.0635262311047847,0.9898888681787624,0.06086339735399559,0.8936754703585083,0.11793380160048804,0.86061148385703
538,30.53,30.32,0.39,0.06398825812005114,0.990411408402931,0.059943057434053655,0.8928005508098087,0.11616294571170438,0.8590349901378124
539,30.592,30.38,0.17,0.06446839996891372,0.990923853377697,0.05903067477874714,0.8919114065358456,0.11439987360997196,0.8574601000766207
540,30.653,30.43,-0.04,0.0649669025487447,0.991425943245109,0.05812730867075499,0.8910076044058048,0.11264587584513397,0.8558874583958326
541,30.714,30.49,0.39,0.06548399434033333,0.991917410346429,0.05723400870742475,0.8900887119759887,0.11090223089845708,0.8543177154666565
542,30.754,30.54,0.29,0.06601988606901907,0.9923979789123504,0.056351813870293706,0.889154298191441,0.10917020419234091,0.8527515267131381
543,30.816,30.6,0.13,0.0665747703851569,0.9928673647583997,0.05548175160710097,0.8882039340892086,0.10745104711529675,0.8511895520066401
544,30.858,30.65,0.22,0.06714882156444212,0.9933252749861318,0.05462483692745499,0.8872371935010663,0.10574599606328143,0.8496324550520882
545,30.898,30.71,0.37,0.06774219522864634,0.9937714076907449,0.05378207151333456,0.8862536537538804,0.10405627149858138,0.8480809027672623
546,30.959,30.76,0.13,0.06835502808736696,0.9942054516756711,0.05295444284569741,0.8852528963657885,0.10238307702753943,0.8465355646563565
547,31.021,30.82,-0.07,0.06898743770142378,0.9946270861746289,0.05214292334854644,0.8842345077361873,0.10072759849847557,0.8449971121790087
548,31.082,30.87,0.27,0.06963952226852155,0.9950359805816087,0.051348469551789566,0.8831980798274507,0.09909100312118971,0.8434662181159518
549,31.205,30.93,0.03,0.0703113604317493,0.9954317941892556,0.05057202127417996,0.8821432108362915,0.09747443860942584,0.8419435559323706
550,31.225,30.98,-0.24,0.07100301111140823,0.9958141759361311,0.04981450082753678,0.881069505852734,0.09587903234760521,0.8404297991400125
551,31.266,31.04,0.03,0.07171451336055787,0.9961827641633495,0.04907681224330184,0.8799765775049145,0.09430589058304481,0.8389256206590714
552,31.287,31.09,-0.0,0.07244588624457185,0.9965371863810878,0.04835984052236573,0.8788640465882273,0.09275609764478512,0.8374316921808437
553,31.348,31.15,-0.17,0.07319712874489598,0.9968770590454723,0.047664450908990644,0.8777315426775473,0.09123071519003771,0.8359486835322126
554,31.409,31.2,-0.21,0.07396821968709295,0.9972019873464063,0.046991488189471034,0.8765787047216822,0.08973078147915872,0.8344772620430954
555,31.451,31.26,0.03,0.07475911769317152,0.9975115650069757,0.04634177601596455,0.8754051816197198,0.08825731068000046,0.8330180919179788
556,31.513,31.31,-0.19,0.07556976115815556,0.9978053740951067,0.045716116255814294,0.8742106327792141,0.08681129220245733,0.8315718336126088
557,31.575,31.37,-0.36,0.07640006825081821,0.998082984848193,0.045115288366628765,0.872994728656202,0.08539369006397488,0.8301391432168935
558,31.636,31.42,0.02,0.07724993693846936,0.998343955511469,0.044540048797332525,0.871757151277085,0.08400544228675333,0.8287206718450771
559,31.696,31.48,-0.17,0.07811924503565114,0.9985878321909749,0.043991130415386645,0.8704975947424023,0.08264746032734406,0.8273170650342231
560,31.756,31.53,-0.42,0.07900785027656683,0.9988141487219903,0.04346924196036659,0.8692157657125429,0.08132062853929618,0.8259289621520657
561,31.818,31.59,-0.27,0.07991559041104186,0.999022426553847,0.042975067524028715,0.8679113838757069,0.08002580366948155,0.8245569958152845
562,31.839,31.64,-0.27,0.08084228332380534,0.9992121746520051,0.04250926605698884,0.866584182398673,0.0787638143887001,0.8232017913192109
563,31.944,31.7,-0.43,0.08178772717687294,0.999382889418215,0.042072470902203556,0.8652339083608506,0.07753546085708696,0.8218639660799785
564,31.965,31.75,-0.53,0.08275170057477192,0.9995340546295557,0.0416652893554574,0.8638603231718874,0.07634151432471638,0.820544129090182
565,32.007,31.81,-0.2,0.0837339627522941,0.999665141397118,0.04128830225299756,0.8624632029729582,0.07518271676767893,0.8192428803891122
566,32.068,31.86,-0.41,0.0847342537844265,0.9997756081450679,0.0409420635864297,0.8610423390215909,0.07405978055980465,0.8179608105485864
567,32.13,31.92,-0.58,0.08575229481809259,0.9998649006107689,0.040627100144998374,0.8595975380595203,0.072973388180117,0.8166985001753309
568,32.191,31.97,-0.16,0.08678778832533313,0.9999324518665854,0.04034391118540178,0.8581286226627544,0.07192419195605801,0.8154565194307842
569,32.232,32.03,-0.33,0.08784041837756806,0.9999776823639216,0.0400929681293708,0.8566354315727754,0.07091281384251494,0.8142354275690882
570,32.314,32.08,-0.5,0.08890985094059337,1.0,0.03987471428933358,0.8551178200076731,0.06993984523667539,0.8130357724939821
571,32.335,32.14,-0.38,0.0899957341899778,0.9999988002078446,0.03968956462251443,0.8535756599522198,0.06900584682875453,0.8118580903352343
572,32.395,32.19,-0.26,0.09109769884656176,0.9999734660698633,0.03953790551386462,0.8520088404261988,0.0681113484886732,0.8107029050450884
573,32.437,32.25,-0.46,0.09221535853181825,0.9999233684552981,0.03942009458835258,0.8504172677302341,0.06725684918876638,0.8095707280150283
574,32.499,32.3,-0.63,0.0933483101428729,0.9998478661817145,0.039336460553239076,0.8488008656681386,0.0664428169625687,0.8084620577130536
575,32.561,32.36,-0.29,0.09449613424698938,0.9997463062006494,0.03928730307096914,0.8471595757446905,0.06566968889969393,0.8073773793415541
576,32.624,32.41,-0.47,0.09565839549533948,0.9996180238074892,0.039272892663288136,0.8454933573377128,0.06493787117678007,0.8063171645157551
577,32.663,32.47,-0.72,0.09683464305588663,0.9994623428755842,0.03929347064712382,0.8438021878434387,0.06424773912438948,0.8052818709626499
578,32.725,32.52,-0.38,0.09802441106521129,0.9992785761145281,0.039349249102669216,0.8420860627944339,0.06359963732967436,0.8042719422402704
579,32.785,32.58,-0.45,0.09922721909910694,0.9990660253524584,0.03944041087404689,0.8403449959495957,0.06299387977455466,0.8032878074770758
580,32.847,32.63,-0.62,0.10044257266176433,0.9988239818421735,0.039567109602913625,0.8385790193558986,0.06243075000908822,0.80232988113122
581,32.908,32.69,-0.6,0.10166996369333203,0.9985517265908609,0.03972946979525337,0.8367881833818979,0.06191050135965373,0.8013985627694673
582,32.97,32.74,-0.39,0.10290887109562251,0.9982485307132396,0.0399275869214546,0.8349725567234841,0.06143335717153946,0.8004942368654695
583,32.991,32.8,-0.58,0.10415876127574174,0.9979136558078844,0.04016152754969051,0.8331322263825692,0.06099951108549837,0.7996172726170356
584,33.073,32.85,-0.78,0.10541908870741602,0.9975463543564812,0.040431329512563195,0.8312672976193967,0.06060912734777779,0.7987680237820072
585,33.113,32.91,-0.4,0.10668929650974442,0.997145870145812,0.040737002106873185,0.8293778938792501,0.06026234115308684,0.7979468285323197
586,33.154,32.96,-0.56,0.10796881704303647,0.9967114387123468,0.04107852632627859,0.8274641566944394,0.059959259019917166,0.7971540093258103
587,33.215,33.02,-0.83,0.10925707252131407,0.9962422878094004,0.041455855126503544,0.8255262455625891,0.05969995919756127,0.796389872795342
588,33.276,33.07,-0.61,0.11055347564097226,0.9957376378968757,0.041868913722617335,0.823564337802591,0.05948449210410901,0.7956547096548297
589,33.358,33.13,-0.62,0.11185743022502219,0.9951967026536466,0.04231759991780842,0.8215786283899001,0.05931288079464934,0.7949487946217164
590,33.422,33.18,-0.76,0.11316833188225683,0.9946186895126432,0.042801784463017065,0.8195693297729925,0.059185121458813446,0.79427238635547
591,33.442,33.24,-0.81,0.11448556868056298,0.9940028002187697,0.043321311446644035,0.8175366716729601,0.05910118394667696,0.7936257274117221
592,33.483,33.29,-0.51,0.1158085218334829,0.9933482314098597,0.04387599871334887,0.8154809008684795,0.05906101232193926,0.7930090442117064
593,33.544,33.35,-0.7,0.11713656639905802,0.9926541752209154,0.04446563831082293,0.8134022809683814,0.05906452544121705,0.7924225470266524
594,33.606,33.4,-0.88,0.11846907198995718,0.9919198199118634,0.04508999696336966,0.8113010921738119,0.05911161755821883,0.7918664299768365
595,33.647,33.46,-0.45,0.11980540349389208,0.9911443505190235,0.045748816571108734,0.8091776310316564,0.05920215895152968,0.7913408710450229
596,33.728,33.51,-0.61,0.12114492180334001,0.9903269495304114,0.04644181473366132,0.8070322101805619,0.059335996574719704,0.7908460321040466
597,33.769,33.57,-0.81,0.12248698455360768,0.9894667975849234,0.047168685297211146,0.8048651580906651,0.05951295472746991,0.7903820589583476
598,33.852,33.62,-0.62,0.12383094686827183,0.9885630741953809,0.047929098923809074,0.8026768187982463,0.059732835746407635,0.7899490813993097
599,33.872,33.68,-0.56,0.12517616211105043,0.9876149584953149,0.048722703681795806,0.8004675516366739,0.05999542071435781,0.7895472132742175
600,33.933,33.73,-0.71,0.1265219826431916,0.9866216300092104,0.04954912565631184,0.798237730964791,0.06030047018669767,0.7891765525686328
601,33.974,33.79,-0.79,0.12786776058547172,0.9855822694457945,0.05040796957893041,0.7959877458934839,0.06064772493345169,0.7888371815020032
602,34.036,33.84,-0.43,0.12921284858387166,0.9844960595138512,0.05129881947545491,0.7937180000107937,0.06103690669572655,0.7885291666362978
603,34.097,33.9,-0.62,0.13055660057798402,0.9833621857599326,0.05222123933095042,0.7914289111054796,0.0614677189550561,0.788252558997405
604,34.161,33.95,-0.81,0.13189837257120343,0.9821798374272187,0.0531747737711211,0.7891209108884846,0.06193984771419504,0.7880073942089652
605,34.201,34.01,-0.38,0.1332375234017643,0.9809482083346448,0.05415894875917401,0.786794444711465,0.06245296228789747,0.7877936926382488
606,34.262,34.06,-0.49,0.13457341551372187,0.9796664977752909,0.0551732723073788,0.7844499712813312,0.06300671610223758,0.7876114595536097
607,34.323,34.12,-0.62,0.13590541572701073,0.9783339114329352,0.0562172352025972,0.7820879623696874,0.06360074750104566,0.787460685293058
608,34.365,34.17,-0.49,0.13723289600574184,0.9769496623156131,0.057290311745032664,0.7797089025163909,0.06423468055806848,0.7873413454434889
609,34.427,34.23,-0.32,0.13855523422394622,0.9755129717049721,0.05839196049942049,0.7773132887268821,0.06490812589353417,0.7872534010300283
610,34.511,34.28,-0.49,0.13987181492804235,0.9740230701200896,0.05952162505793582,0.7749016301630259,0.06562068149386407,0.787196798714845
611,34.531,34.34,-0.62,0.14118203009536373,0.9724791982943151,0.060678734814154735,0.7724744478270575,0.06637193353331802,0.787171471004707
612,34.594,34.39,-0.25,0.1424852798881212,0.9708806081636194,0.061862705747407924,0.770032274238094,0.0671614571964117,0.7871773364664935
613,34.635,34.45,-0.45,0.1437809734022133,0.9692265638648676,0.06307294121686946,0.7675756531005116,0.06798881749998432,0.7872142999498097
614,34.716,34.5,-0.66,0.1450685294103269,0.967516342742355,0.06430883276470961,0.765105138963346,0.06885357011379686,0.7872822528158455
615,34.758,34.56,-0.29,0.14634737709878945,0.9657492363608875,0.06556976092758147,0.7626212968698981,0.06975526217853983,0.7873810731716215
616,34.819,34.61,-0.31,0.14761695679764036,0.9639245515236037,0.06685509605567864,0.7601247019967907,0.07069343312013252,0.7875106261087692
617,34.88,34.67,-0.42,0.14887672070338256,0.9620416112926861,0.06816419913857566,0.757615939281784,0.07166761545918847,0.787670763946051
618,34.942,34.72,-0.37,0.15012613359383717,0.9600997560111226,0.06949642263694332,0.7550956030399587,0.07267733561454225,0.7878613264748872
619,35.004,34.78,-0.13,0.15136467353450547,0.9580983443236896,0.07085111131907691,0.7525642965683276,0.07372211469981374,0.7880821412071204
620,35.025,34.83,-0.32,0.15259183257586553,0.9560367541953,0.07222760310111415,0.7500226317391231,0.07480146931208692,0.7883330236241776
621,35.085,34.89,-0.46,0.1538071174410669,0.9539143839248352,0.0736252298898268,0.7474712285820022,0.07591491231186599,0.7886137774267872
622,35.147,34.94,-0.06,0.15501005020350758,0.9517306531525921,0.07504331842690201,0.7449107148553955,0.07706195359355239,0.7889241947844233
623,35.188,35.0,-0.26,0.1562001689537974,0.9494850038595295,0.07648119113370369,0.7423417256071858,0.07824210084574897,0.7892640565836982
624,35.25,35.05,-0.49,0.15737702845561563,0.9471769013565422,0.07793816695556066,0.7397649027249091,0.07945486030072765,0.7896331326750243
625,35.313,35.11,-0.24,0.15854020078995873,0.9448058352620511,0.0794135622046141,0.7371808944758982,0.08069973747242212,0.790031182116973
626,35.376,35.16,-0.22,0.15968927598724628,0.9423713204662386,0.08090669140025761,0.7345903550380753,0.08197623788232694,0.7904579534178404
627,35.417,35.22,-0.34,0.1608238626467075,0.9398728980803038,0.08241686810622328,0.7319939440222585,0.08328386777265825,0.7909131847740654
628,35.478,35.27,-0.37,0.16194358854238014,0.9373101363691987,0.08394340576329032,0.7293923259871069,0.08462213480608896,0.7913966043052991
629,35.54,35.33,-0.08,0.16304810121496544,0.9346826316664334,0.08548561851645335,0.7267861699481993,0.0859905487513695,0.7919079302860095
630,35.642,35.38,-0.29,0.1641370685487396,0.9319900092696028,0.08704282203532021,0.7241761488828727,0.08738862215416995,0.7924468713735253
631,35.662,35.44,-0.46,0.1652101793327209,0.929231924315334,0.08861433432650588,0.7215629392323382,0.08881587099250544,0.793013126832496
632,35.683,35.49,-0.03,0.16626714380529967,0.9264080626324066,0.09019947653681257,0.7189472204024402,0.09027181531613963,0.7936063867558106
633,35.764,35.55,-0.22,0.1673076941815522,0.923518141571877,0.0917975737460585,0.7163296742641958,0.09175597986939077,0.7942263322820924
634,35.806,35.6,-0.42,0.16833158516246033,0.9205619108131257,0.0934079557484934,0.7137109846551236,0.0932678946967704,0.7948726358099969
635,35.845,35.66,-0.22,0.1693385944252632,0.9175391531448276,0.09502995782175122,0.7110918368825325,0.09480709573089954,0.7955449612096183
636,35.908,35.71,-0.18,0.17032852309419783,0.914449685219839,0.09666292148233371,0.7084729172301577,0.0963731253621714,0.7962429640313284
637,36.011,35.77,-0.3,0.17130119619092415,0.9112933582829394,0.09830619522672024,0.7058549124694212,0.09796553298961562,0.7969662917124037
638,36.031,35.82,-0.36,0.17225646306392928,0.9080700588703265,0.0999591352572562,0.7032385093763428,0.09958387555238307,0.7977145837818657
639,36.072,35.88,-0.03,0.17319419779617543,0.9047797094797776,0.1016211061919678,0.7006243942549037,0.10122771804125688,0.798487472063957
640,36.132,35.93,-0.25,0.17411429959024355,0.9014222692104026,0.10329148175748906,0.6980132524673492,0.10289663398960533,0.7992845808806305
641,36.195,35.99,-0.43,0.17501669313023105,0.8979977343709188,0.10496964546435576,0.6954057679715431,0.10459020594320168,0.8001055272533636
642,36.236,36.04,0.01,0.17590132891969448,0.8945061390553761,0.10665499126399419,0.692802622865257,0.10630802590836053,0.8009499211045548
643,36.297,36.1,-0.14,0.17676818359498303,0.8909475556852497,0.10834692418684624,0.6902044969371212,0.10804969577786204,0.8018173654587224
644,36.358,36.15,-0.28,0.17761726021337296,0.8873220955168337,0.11004486096118372,0.6876120672239746,0.10981482773413806,0.8027074566437438
645,36.42,36.21,-0.13,0.17844858851546933,0.883629909112902,0.11174823061219633,0.6850260075747201,0.11160304462921386,0.8036197844924052
646,36.461,36.26,0.0,0.17926222516141405,0.8798711867776233,0.11345647504098598,0.6824469882212045,0.11341398034095593,0.8045539325444292
647,36.522,36.32,-0.14,0.1800582539405239,0.8760461589536693,0.11516904958323872,0.6798756753566476,0.11524728010522252,0.8055094782490264
648,36.562,36.37,-0.26,0.18083678595404293,0.8721550965804158,0.11688542354747174,0.6773127307218848,0.11710260082354539,0.8064859931679365
649,36.624,36.43,0.1,0.1815979597707344,0.8681983114121284,0.11860508073281563,0.6747588111994416,0.1189796113460179,0.8074830431788056
650,36.728,36.48,-0.13,0.18234194155507563,0.8641761562950142,0.12032751992635447,0.6722145684151571,0.12087799272910806,0.8085001886786704
651,36.748,36.54,-0.31,0.18306892516785334,0.8600890254020104,0.12205225538010218,0.6696806483467523,0.12279743846812662,0.809536984787266
652,36.79,36.59,0.1,0.18377913223898157,0.8559373544241823,0.12377881726772053,0.6671576909385549,0.12473765470408418,0.810592981549891
653,36.858,36.65,0.04,0.18447281221239833,0.851721620717598,0.12550675212115123,0.6646463297214478,0.12669836040467206,0.8116677241395782
654,36.916,36.7,-0.07,0.1851502423629445,0.8474423434045487,0.12723562324741503,0.6621471914370641,0.1286792875190962,0.8127607530584149
655,36.957,36.76,0.03,0.18581172778517333,0.8431000834280408,0.12896501112582542,0.6596608956655593,0.13068018110652627,0.8138716043379227
656,36.998,36.81,0.24,0.18645760135411812,0.8386954435585302,0.1306945137858513,0.6571880544567151,0.13270079943801943,0.8149998097383704
657,37.122,36.87,0.09,0.18708822365815386,0.8342290683518655,0.13242374716593927,0.6547292719642028,0.13474091407189456,0.816144896946799
658,37.141,36.92,-0.04,0.18770398290417925,0.8297016440574245,0.13415234545369442,0.6522851440826442,0.1368003099026327,0.8173063897735214
659,37.181,36.98,0.35,0.1883052947953851,0.8251138984755069,0.1358799614078377,0.6498562580870042,0.1388787851834879,0.8184838083468147
660,37.242,37.03,0.12,0.18889260238188316,0.8204666007631672,0.13760626666234452,0.6474431922737874,0.14097615152308865,0.8196766693055008
661,37.324,37.09,-0.11,0.18946637588444296,0.8157605611877934,0.13933095201312354,0.6450465156035377,0.14309223385636832,0.8208844859891229
662,37.344,37.14,0.21,0.19002711249152715,0.8109966308278596,0.1410537276874978,0.6426667873443574,0.14522687039020413,0.8221067686254352
663,37.467,37.2,0.21,0.19057533612974997,0.8061757012204004,0.14277432359667913,0.6403045567163917,0.14737991252415952,0.8233430245149415
664,37.487,37.25,0.1,0.19111159720781148,0.801298703954856,0.14449248957136362,0.637960362537412,0.14955122474669907,0.824592758212313
665,37.529,37.31,0.12,0.19163647233387218,0.7963666102130993,0.1462079955804095,0.6356347328700088,0.15174068450722264,0.8258554717046186
666,37.571,37.36,0.37,0.1921505640062684,0.7913804302556383,0.1479206319323536,0.6333281846714175,0.15394818206430624,0.8271306645863266
667,37.632,37.42,0.17,0.19265450027745598,0.7863412128541324,0.14963020945941946,0.6310412234471867,0.1561736203106098,0.8284178342310121
668,37.673,37.47,0.03,0.1931489343910746,0.7812500446705132,0.1513365596836433,0.6287743429097934,0.15841691457497514,0.8297164759597232
669,37.736,37.53,0.45,0.19363454439203517,0.7761080495831906,0.1530395349647363,0.6265280246431578,0.16067799240230066,0.8310260832059854
670,37.818,37.58,0.21,0.1941120327095454,0.770916387961002,0.15473900862931955,0.6243027377738832,0.1629567933118218,0.8323461476774665
671,37.838,37.64,0.0,0.19458212571301994,0.765676255885715,0.15643487508117282,0.6220989386500388,0.1652532685344459,0.8336761595143874
672,37.879,37.69,0.23,0.19504557324085248,0.7603888843240032,0.15812704989209778,0.6199170705285963,0.16756738072980348,0.8350156074448184
673,37.939,37.75,0.23,0.19550314810207384,0.755055538249909,0.15981546987299264,0.617757563272956,0.16989910368368139,0.8363639789370261
674,38.002,37.8,0.12,0.19595564555094078,0.7496775157188819,0.16150009312477334,0.6156208330621423,0.17224842198645762,0.8377207603490965
675,38.061,37.86,0.06,0.19640388273447815,0.7442561468946484,0.16318089906871935,0.613507282113445,0.17461533069308802,0.8390854370761519
676,38.103,37.91,0.37,0.196848698112946,0.73879279303038,0.1648578884556833,0.6114172984205458,0.17699983496515445,0.8404574936954841
677,38.206,37.97,0.17,0.19729095085317966,0.7332888454058293,0.1665310833535099,0.6093512555092295,0.1794019496954717,0.8418364141098759
678,38.227,38.02,-0.01,0.19773152019475387,0.7277457242222781,0.16820052711196604,0.6073095122125616,0.18182169911573107,0.843221681689366
679,38.288,38.08,0.45,0.1981713047889572,0.7221648774572916,0.16986628430446463,0.6052924124671291,0.18425911638766287,0.8446127794117073
680,38.33,38.13,0.28,0.198611222010635,0.7165477796813764,0.17152844064590514,0.6033002851316001,0.18671424317820604,0.846009190001788
681,38.413,38.19,0.11,0.19905220724305836,0.7108959308387002,0.1731871028860145,0.6013334438286038,0.18918712921917685,0.847410396070365
682,38.454,38.24,0.33,0.1994952131360853,0.705210854994066,0.17484239867758816,0.599392186811003,0.19167783185195816,0.8488158802525474
683,38.515,38.3,0.44,0.19994120883801725,0.6994940990482985,0.1764944764191038,0.5974767968537198,0.1941864155577867,0.8502251253464935
684,38.576,38.35,0.33,0.20039117920169522,0.693747231424123,0.1781435050713473,0.5955875411720195,0.1967129514742534,0.8516376144528344
685,38.636,38.41,0.24,0.2008461239654821,0.6879718407245393,0.17978967394783893,0.5937246713667245,0.19925751689865895,0.8530528311154065
686,38.678,38.46,0.59,0.2013070569098526,0.6821695343656565,0.1814331924789519,0.5918884233964188,0.2018201947789275,0.8544702594638903
687,38.72,38.52,0.36,0.20177500499038534,0.6763419371859092,0.18307428994976294,0.5900790175761789,0.20440107319285516,0.8558893843588917
688,38.759,38.57,0.15,0.2022510074480175,0.6704906900335071,0.18471321521184383,0.5882966586017893,0.207000244816519,0.8573096915399678
689,38.841,38.63,0.6,0.20273611489745116,0.6646174483339757,0.18635023636933706,0.5865415355979573,0.20961780638270464,0.8587306677770551
690,38.926,38.68,0.47,0.2032313883946033,0.6587238806396654,0.18798564043977234,0.5848138221887372,0.21225385813022069,0.860151801025755
691,38.946,38.74,0.34,0.20373789848397347,0.6528116671631995,0.189619732990151,0.583113676588257,0.2149085032449488,0.861572580586985
692,38.988,38.79,0.5,0.2042567242268042,0.6468824982968905,0.1912528377488077,0.5814412417100838,0.21758184729348296,0.862992497271572
693,39.049,38.85,0.62,0.20478895221097473,0.6409380731201512,0.19288529619358646,0.579796645293864,0.2202739976502628,0.8644110435703337
694,39.09,38.9,0.5,0.205335675543686,0.634980097896815,0.1945174671170037,0.5781800000478318,0.2229850629191655,0.8658277138301236
695,39.153,38.96,0.4,0.20589799282811172,0.6290102845641747,0.19614972616920853,0.5765914038055422,0.22571515235056538,0.8672420044362796
696,39.215,39.01,0.76,0.20647700712528474,0.6230303492154822,0.1977824653796255,0.57503093969501,0.22846437525493263,0.868653414001835
697,39.298,39.07,0.52,0.20707382490257978,0.6170420105775999,0.1994160926582502,0.5734986763182083,0.23123284041409706,0.870061443563747
698,39.319,39.12,0.28,0.20768955497023073,0.6110469884854581,0.20105103127763857,0.5719946679386598,0.23402065549133266,0.8714655967863093
699,39.38,39.18,0.66,0.20832530740737454,0.6050470023549416,0.20268771933666105,0.5705189546747862,0.23682792644142944,0.8728653801718279
700,39.421,39.23,0.57,0.20898219247914662,0.5990437696558101,0.204326609207132,0.5690715626966728,0.23965475692190605,0.8742603032785666
701,39.482,39.29,0.43,0.20966131954636225,0.5930390043862394,0.20596816696445186,0.5676525044239445,0.24250124770645026,0.8756498789459753
702,39.543,39.34,0.53,0.21036379596930066,0.5870344155505873,0.20761287180332536,0.5662617787227732,0.24536749610161698,0.8770336235272181
703,39.604,39.4,0.72,0.21109072600711,0.5810317056419894,0.20926121543952994,0.5648993711004513,0.24825359536779953,0.8784110571289189
704,39.666,39.45,0.55,0.21184320971438153,0.5750325691313528,0.21091370149870975,0.5635652538960753,0.25115963414549725,0.8797817038578993
705,39.729,39.51,0.42,0.21262234183646367,0.5690386909643089,0.21257084489318837,0.562259386465791,0.2540856958879035,0.8811450920745998
706,39.771,39.56,0.8,0.21342921070508314,0.563051745067734,0.21423317118776208,0.5609817153610279,0.2570318583008566,0.8825007546527674
707,39.833,39.62,0.54,0.21426489713582594,0.5570733928675166,0.21590121595540268,0.5597321744980979,0.25999819279121006,0.8838482292449026
708,39.894,39.67,0.29,0.21513047332900914,0.5511052818193037,0.21757552412376097,0.5585106853174815,0.2629847639246577,0.8851870585528875
709,39.976,39.73,0.6,0.21602700177544265,0.5451490439540108,0.21925664931329897,0.5573171569311927,0.2659916288940103,0.8865167906031519
710,40.017,39.78,0.58,0.21695553416854244,0.5392062944399098,0.22094515316785465,0.55615148625673,0.2690188369988493,0.8878369790256824
711,40.037,39.84,0.43,0.2179171103241896,0.5332786301631814,0.2226416046784041,0.5550135581362486,0.27206642913735496,0.8891471833361978
712,40.078,39.89,0.46,0.21891275710961203,0.5273676283289285,0.2243465795006077,0.5539032454400378,0.275134437310979,0.8904469692208498
713,40.139,39.95,0.71,0.21994348738243902,0.5214748450847876,0.22606065926646593,0.5528204091539987,0.27822288414255797,0.8917359088227406
714,40.2,40.0,0.53,0.22101029894098856,0.5156018141693623,0.2277844308902223,0.5517648984511803,0.28133178240842033,0.8930135810294262
715,40.261,40.06,0.38,0.22211417348678525,0.5097500455877647,0.22951848586852255,0.5507365507475562,0.284461134584999,0.894279571760491
716,40.302,40.11,0.8,0.22325607560025085,0.5039210243166315,0.23126341957473642,0.5497351917423683,0.28761093241044244,0.895533474254214
717,40.425,40.17,0.57,0.22443695173046807,0.49811620904104387,0.23301983054730832,0.5487606354434916,0.29078115646169395,0.8967748893523042
718,40.445,40.22,0.38,0.2256577291998822,0.49233703092580744,0.2347883197720029,0.5478126841784625,0.2939717757474765,0.8980034257817249
719,40.485,40.28,0.65,0.22691931522477551,0.48658489242354186,0.23656948995790378,0.5468911285921929,0.29718274731757394,0.8992187004326804
720,40.546,40.33,0.68,0.22822259595233593,0.4808611661219554,0.238363944807094,0.5459957476327528,0.30041401588875666,0.9004203386319108
721,40.609,40.39,0.55,0.22956843551511547,0.4751671936325913,0.24017228827805961,0.5451263085267554,0.3036655134876132,0.9016079744105526
722,40.651,40.44,0.52,0.23095767510360563,0.4695042845232596,0.2419951238428751,0.544282566746071,0.30693715911046315,0.9027812507659728
723,40.712,40.5,0.82,0.23239113205756926,0.4638737152963099,0.2438330537381584,0.5434642659678592,0.3102288584004881,0.9039398199170505
724,40.793,40.55,0.64,0.2338695989766981,0.45827672841479455,0.24568667820975862,0.5426711380299192,0.3135405033421913,0.9050833435523976
725,40.813,40.61,0.48,0.23539384285110732,0.45271453137844375,0.24755659475115374,0.5419029028831618,0.3168719719732599,0.9062114930710766
726,40.855,40.66,0.94,0.23696460421212528,0.4471882958512577,0.2494433973355617,0.5411592685428028,0.32022312811387343,0.9073239498154381
727,40.915,40.72,0.76,0.23858259630380463,0.44169915684240163,0.2513476756418443,0.540439931039684,0.32359382111347934,0.908420405295773
728,40.977,40.77,0.59,0.24024850427557023,0.43624821194196295,0.25327001427437273,0.5397445743730415,0.32698388561502656,0.9095005614065961
729,41.019,40.83,0.84,0.2419629843964256,0.430836520613003,0.25521099197707864,0.5390728704662535,0.33039314133664066,0.9105641306345041
730,41.122,40.88,0.9,0.24372666329117373,0.42546510354117634,0.25717118084202706,0.5384244791273414,0.3338213928707285,0.9116108362576282
731,41.142,40.94,0.8,0.24554013719914594,0.4201349420429979,0.2591511455130267,0.5377990480159407,0.33726842950048236,0.9126404125367865
732,41.182,40.99,0.74,0.24740397125593627,0.4148469775336715,0.26115144238491383,0.5371962126183446,0.3407340250337192,0.9136526048985624
733,41.244,41.05,1.06,0.2493186987986231,0.409602111055247,0.2631726187991746,0.5366155962321516,0.3442179376539886,0.9146471701105818
734,41.307,41.1,0.88,0.2512848206949557,0.40440120286570924,0.2652152122366262,0.5360568099618434,0.34771990978888656,0.9156238764492655
735,41.348,41.16,0.71,0.2533028046969818,0.39924507208941945,0.2672797495079458,0.5355194527262278,0.3512396679954986,0.9165825038603426
736,41.411,41.21,1.18,0.25537308481958315,0.3941344964291524,0.2693667459428911,0.5350031112782992,0.3547769228628826,0.9175228441124148
737,41.493,41.27,1.04,0.25749606074438436,0.38907021193977437,0.2714767045791327,0.5345073602377076,0.3583313689314901,0.9184447009438731
738,41.513,41.32,0.9,0.25967209724949714,0.3840529128634373,0.2736101153516843,0.5340317621358398,0.36190268462940467,0.9193478902035317
739,41.575,41.38,1.1,0.2619015236655705,0.37908325152601013,0.27576745428392985,0.5335758674737165,0.36549053222528777,0.9202322399854191
740,41.635,41.43,1.22,0.2641846333586577,0.37416183829430555,0.2779491826813161,0.5331392147931996,0.3690945577979681,0.9210975907581586
741,41.677,41.49,1.13,0.26652168324047004,0.3692892415934547,0.28015574632895446,0.532721330761919,0.37271439122264466,0.9219437954893592
742,41.739,41.54,1.06,0.26891289330662416,0.36446598798360413,0.2823875746945427,0.5323217302720564,0.37634964617369127,0.9227707197654665
743,41.8,41.6,1.4,0.2713584462035041,0.35969256229495683,0.2846450801381213,0.5319399165528331,0.37999992014409273,0.9235782419074751
744,41.861,41.65,1.17,0.2738584868243815,0.35496940782003206,0.28692865713029536,0.5315753812961828,0.3836647944815923,0.9243662530828184
745,41.923,41.71,0.96,0.27641312193545176,0.35029692656185674,0.2892386814806484,0.5312276047946755,0.3873438344416552,0.9251346574136484
746,41.983,41.76,1.4,0.27902241983243303,0.34567547953665406,0.29157550957811507,0.5308960560904592,0.39103658925735624,0.9258833720816297
747,42.044,41.82,1.3,0.2816864100283521,0.34110538712945104,0.2939394776451133,0.5305801931337332,0.3947425922262672,0.9266123274293179
748,42.064,41.87,1.18,0.2844050829730891,0.3365869295009259,0.29633090100724296,0.5302794629491517,0.3984613608143577,0.9273214670582113
749,42.125,41.93,1.34,0.287178389805209,0.33212034704375876,0.2987500733802841,0.5299933018087849,0.40219239677687935,0.9280107479236014
750,42.187,41.98,1.5,0.2900062421365927,0.3277058408866865,0.3011972661761791,0.5297211354105826,0.405935186296222,0.9286801404262485
751,42.227,42.04,1.39,0.29288851187041115,0.32334357344434306,0.3036727278297346,0.5294623790612668,0.4096892001367616,0.9293296285008111
752,42.288,42.09,1.28,0.29582503105301416,0.3190336690108612,0.306176683147836,0.5292164378623447,0.4134538938167472,0.9299592097008624
753,42.349,42.15,1.63,0.2988155917603132,0.31477621439514747,0.3087093326829812,0.528982706897744,0.4172287077973203,0.9305688952802272
754,42.411,42.2,1.39,0.3018599460192418,0.31057125959570975,0.31127085213296124,0.5287605714213486,0.421013067688804,0.9311587102702616
755,42.473,42.26,1.15,0.30495780576486237,0.3064188185128911,0.31386139176853206,0.5285494070424949,0.42480638447440433,0.9317286935526208
756,42.515,42.31,1.56,0.3081088428336503,0.302318869696344,0.31648107589088204,0.5283485799074065,0.4286080547514429,0.9322788979270171
757,42.618,42.37,1.49,0.31131268899343456,0.2982713571255567,0.3191300023206847,0.5281574468745068,0.4324174609901735,0.9328093901734492
758,42.638,42.42,1.37,0.3145689360104099,0.2942761910212287,0.3218082419204819,0.527975355681598,0.4362339718101295,0.9333202511084264
759,42.68,42.48,1.48,0.3178771357535616,0.2903332486852931,0.32451583815199425,0.5278016451032985,0.44005694227385994,0.933811575634755
760,42.741,42.53,1.67,0.321236800336811,0.2864423753673802,0.3272528066697789,0.5276356450976691,0.4438857141978831,0.9342834727843797
761,42.803,42.59,1.54,0.32464740229920286,0.2826033851554614,0.3300191349525712,0.5274766769412197,0.44771961648069664,0.9347360657536432
762,42.843,42.64,1.43,0.32810837482347377,0.2788160618883602,0.3328147819735815,0.5273240533515176,0.451557965447682,0.9351694919302361
763,42.907,42.7,1.82,0.33161911199333755,0.2750801600878196,0.3356396779109312,0.5271770785966524,0.4554000652127639,0.9355839029110109
764,42.968,42.75,1.6,0.33517896908980854,0.27139540590783384,0.3384937238993289,0.5270350485907819,0.4592452080567057,0.9359794645097281
765,43.009,42.81,1.37,0.3387872629268474,0.2677614980989847,0.34137679182401537,0.5268972509748953,0.46309267482191857,0.9363563567537606
766,43.05,42.86,1.72,0.34244327222656296,0.26417810898554706,0.3442887241579038,0.5267629651819489,0.46694173532364636,0.9367147738687533
767,43.111,42.92,1.7,0.34614623803414324,0.26064488545314457,0.3472293338427834,0.5266314624855375,0.4707916487773474,0.9370549242502391
768,43.173,42.97,1.58,0.34989536417259937,0.2571614499447728,0.35019840421539516,0.5265020060312859,0.47464166424200793,0.937377030421303
769,43.234,43.03,1.65,0.35368981773726943,0.2537274014631157,0.353195688978998,0.5263738508504687,0.4784910210790262,0.937681328975488
770,43.275,43.08,1.88,0.35752872962989773,0.25034231657719913,0.35622091222078883,0.5262462438558522,0.48233894942627614,0.9379680705041415
771,43.358,43.14,1.75,0.36141119513201286,0.2470057504314906,0.3592737684753489,0.5261184238200199,0.4861846706869471,0.9382375195073671
772,43.378,43.19,1.63,0.365336274517276,0.2437172377555856,0.36235392283413853,0.5259896213365215,0.49002739803275486,0.9384899542877365
773,43.439,43.25,2.06,0.3693029937024251,0.24047629387266867,0.36546101110091567,0.5258590587643119,0.49386633692113263,0.9387256668259336
774,43.499,43.3,1.86,0.373310344936404,0.23728241570500305,0.3685946399928552,0.5257259501560566,0.4977006856260368,0.9389449626374848
775,43.56,43.36,1.66,0.37735728752722,0.23413508277478745,0.3717543873870676,0.5255895011709831,0.5015296357820116,0.9391481606097545
776,43.602,43.41,1.97,0.3814427486060165,0.2310337581988145,0.3749398026121354,0.5254489089732388,0.5053523729411703,0.9393355928184011
777,43.726,43.47,1.97,0.3855656239277949,0.2279778896754476,0.37815040678424766,0.525303362116992,0.5091680771427498,0.9395076043225075
778,43.746,43.52,1.84,0.38972477870814476,0.2249669104625158,0.3813856931874995,0.5251520404196932,0.5129759234948497,0.9396645529376791
779,43.766,43.58,1.84,0.39391904849523457,0.2220002403448294,0.38464512769777254,0.5249941148252304,0.5167750827679065,0.9398068089865339
780,43.828,43.63,2.12,0.398147240076198,0.21907728659014505,0.38792814924937147,0.5248287472591577,0.5205647219994233,0.9399347550260484
781,43.89,43.69,1.97,0.40240813241695106,0.21619744489249798,0.39123417034338737,0.5246550904783944,0.5243440051094509,0.940048785551249
782,43.973,43.74,1.83,0.406700477634395,0.2133601003019132,0.3945625775965994,0.5244722879178206,0.5281120935262877,0.9401493066748048
783,43.993,43.8,2.28,0.4110230019998729,0.21056462813963722,0.3979127323295894,0.5242794735362493,0.5318681468218391,0.9402367357821543
784,44.074,43.85,2.08,0.4153744069726903,0.20781039489816858,0.4012839711926623,0.5240757716642811,0.535611323356077,0.9403115011618736
785,44.096,43.91,1.9,0.4197533702624623,0.20509675912549374,0.40467560682812304,0.5238602968566407,0.5393407809300335,0.9403740416110947
786,44.157,43.96,2.18,0.4241585469190222,0.20242307229305045,0.4080869285674066,0.5236321537518674,0.543055677446763,0.9404248060159162
787,44.219,44.02,2.21,0.42858857044861964,0.1997886796470262,0.4115172031615721,0.523390436942518,0.5467551715797098,0.9404642529068312
788,44.3,44.07,2.09,0.4330420539551186,0.19719292104267147,0.4149656755437286,0.52313423085913,0.5504384234478825,0.940492849989348
789,44.32,44.13,2.05,0.43751759130484513,0.19463513176142255,0.41843156962191136,0.5228626096713701,0.5541045952971883,0.9405110736501353
790,44.381,44.18,2.35,0.4420137583136472,0.19211464331077385,0.42191408910078665,0.5225746372100529,0.5577528521872558,0.9405194084391175
791,44.442,44.24,2.19,0.4465291139546485,0.18963078420694893,0.42541241833044025,0.5222693669137835,0.5613823626830586,0.9405183465279912
792,44.484,44.29,2.02,0.4510622015851172,0.18718288074049855,0.4289257231804029,0.5219458418038031,0.5649922995506087,0.9405083871457247
793,44.547,44.35,2.49,0.4556115501908124,0.18477025772499744,0.4324531519369655,0.5216030944904297,0.5685818404559525,0.9404900359916794
794,44.608,44.4,2.34,0.46017567564615397,0.18239223922902972,0.4359938362217907,0.5212401472142332,0.572150168666677,0.9404638046270781
795,44.67,44.46,2.16,0.46475308198857124,0.1800481492916398,0.43954689192982294,0.5208560119249199,0.5756964737551116,0.940430209845664
796,44.713,44.51,2.38,0.46934226270542656,0.17773731262141576,0.44311142018448674,0.5204496904009986,0.579219952302414,0.9403897730245225
797,44.817,44.57,2.46,0.47394170203196484,0.17545905527934685,0.4466865083082299,0.5200201744133947,0.5827198086027534,0.9403430194561294
798,44.837,44.62,2.37,0.4785498762587946,0.17321270534556363,0.45027123080661774,0.5195664459359933,0.5861952553667952,0.9402904776628085
799,44.88,44.68,2.31,0.48316525504741614,0.1709975935700783,0.4538646503642636,0.5190874774058039,0.5896455144236566,0.9402326786949661
800,44.942,44.73,2.61,0.4877863027523004,0.1688130540076909,0.4574658188508816,0.5185822320352134,0.5930698174204921,0.94017015541459
801,44.984,44.79,2.43,0.49241147974802074,0.16665842463725455,0.4610737783357539,0.5180496641784582,0.596467406518862,0.9401034417655674
802,45.046,44.84,2.25,0.49703924375994313,0.16453304796549786,0.46468756210891626,0.5174887197539975,0.5998375350870254,0.9400330720324408
803,45.086,44.9,2.7,0.5016680511969691,0.16243627161559288,0.46830619570732684,0.5168983367240964,0.6031794683872688,0.9399595800892853
804,45.188,44.95,2.57,0.506296358484816,0.16036744890062424,0.47192869794424835,0.516277445632597,0.6064924842573453,0.9398834986404206
805,45.208,45.01,2.42,0.5109226233983079,0.15832593938206327,0.47555408194001936,0.5156249702016531,0.6097758737850515,0.939805358454767
806,45.269,45.06,2.64,0.5155453063911507,0.15631110941331516,0.47918135615231494,0.514939827988325,0.6130289419749486,0.9397256875957316
807,45.331,45.12,2.76,0.5201628719217162,0.1543223326683313,0.48280952540400224,0.5142209311020487,0.6162510084062481,0.9396450106485176
808,45.392,45.17,2.69,0.5247737897734264,0.15235899065517347,0.4864375919068438,0.5134671869837545,0.6194414078809073,0.9395638479467664
809,45.452,45.23,2.61,0.5293765363683883,0.1504204732143441,0.49006455627943707,0.5126774992470107,0.6225994910609843,0.9394827148004918
810,45.473,45.28,2.97,0.5339695960729632,0.14850617900167634,0.4936894185578603,0.5118507685812387,0.6257246250943612,0.9394021207272624
811,45.536,45.34,2.77,0.5385514624939968,0.14661551595556094,0.49731117919759715,0.5109858937166679,0.628816194227995,0.9393225686885325
812,45.618,45.39,2.55,0.5431206397644722,0.1447479017482773,0.5009288400654047,0.5100817724503134,0.631873600407908,0.9392445543329987
813,45.638,45.45,2.99,0.5476756438173584,0.1429027642211945,0.5045414054198385,0.5091373027319993,0.6348962638651546,0.9391685652488136
814,45.698,45.5,2.87,0.5522150036464151,0.14107954180361693,0.5081478828791991,0.5081513838092411,0.6378836236870035,0.9390950802264811
815,45.761,45.56,2.75,0.556737262552678,0.13927768391506642,0.5117472843756898,0.5071229174296422,0.6408351383725296,0.9390245685342968
816,45.822,45.61,2.94,0.5612409793753058,0.1374966513508255,0.5153386270945333,0.506050809099587,0.6437502863717852,0.9389574892082305
817,45.925,45.67,3.08,0.5657247297054515,0.135735916650558,0.5189209343967602,0.5049339693981427,0.6466285666077202,0.938894290358073
818,45.946,45.72,3.01,0.5701871070818442,0.1339949644497778,0.522493236724481,0.5037713153448867,0.6494694989800578,0.9388354084915584
819,45.966,45.78,2.92,0.5746267241668025,0.13227329181389558,0.5260545724875508,0.5025617718199854,0.6522726248503625,0.938781267858096
820,46.029,45.83,3.3,0.579042213901433,0.13057040855457663,0.5296039889306272,0.5013042730344799,0.6550375075076141,0.9387322798136402
821,46.09,45.89,3.11,0.5834322306388267,0.1288858375281614,0.533140542979754,0.49999776404828916,0.6577637326136915,0.9386888422081193
822,46.152,45.94,2.88,0.5877954512541236,0.12721911491591725,0.5366633020677395,0.49864120233296194,0.6604509086282442,0.9386513387967614
823,46.194,46.0,3.29,0.5921305762303466,0.12556979048592917,0.5401713449376976,0.4972335593758856,0.6630986672124856,0.9386201386766052
824,46.274,46.05,3.17,0.5964363307189227,0.12393742783646797,0.5436637624242215,0.4957738223223839,0.6657066636114761,0.9385955957494432
825,46.295,46.11,3.02,0.6007114655738002,0.12232160462071177,0.547139658211737,0.4942609956519767,0.6682745770144453,0.9385780482124978
826,46.397,46.16,3.16,0.6049547583580326,0.12072191275273257,0.550598149569534,0.4926941028852377,0.6708021108926663,0.9385678180781644
827,46.418,46.22,3.33,0.6091650143216748,0.11913795859467506,0.554038368062901,0.49107218831794114,0.6732889933143985,0.9385652107240927
828,46.479,46.27,3.24,0.6133410673498161,0.11756936312500874,0.557459460239777,0.48939431877912265,0.6757349772364,0.9385705144747511
829,46.52,46.33,3.14,0.6174817808795543,0.11601576208770456,0.5608605882923359,0.4876595854093989,0.6781398407715147,0.9385840002155161
830,46.643,46.38,3.53,0.621586048784697,0.11447680612217975,0.5642409306928952,0.4858671054556434,0.6805033874318711,0.9386059210402135
831,46.665,46.44,3.35,0.6256527962269938,0.11295216087383925,0.5675996828036031,0.4840160240777791,0.6828254463473017,0.9386365119329128
832,46.686,46.49,3.13,0.6296809804727579,0.11144150708502086,0.5709360574594735,0.48210551616306063,0.6851058724586456,0.938675989484701
833,46.748,46.55,3.54,0.6336695916738116,0.10994454066612117,0.5742492855244935,0.48013478814293026,0.6873445466856688,0.938724551646116
834,46.808,46.6,3.46,0.6376176536117598,0.10846097274665692,0.5775386164207431,0.4781030798072867,0.6895413760693776,0.9387823775158717
835,46.849,46.66,3.31,0.6415242244046622,0.10699052970601912,0.5808033186306866,0.47600966611086065,0.6916962938885176,0.9388496271665461
836,46.912,46.71,3.41,0.6453883971752109,0.10553295318372254,0.5840426801728823,0.4738538589665919,0.6938092597500553,0.9389264415079167
837,47.016,46.77,3.57,0.649209300679567,0.10408800006898851,0.5872560090513922,0.47163500902126115,0.6958802596534844,0.9390129421885309
838,47.036,46.82,3.43,0.6529860998960771,0.10265544246948576,0.5904426336792423,0.4693525074086916,0.6979093060288246,0.9391092315359414
839,47.078,46.88,3.31,0.6567179965731563,0.10123506765903642,0.593601903276337,0.4670057874757212,0.6998964377481863,0.9392153925359119
840,47.159,46.93,3.71,0.6604042297356556,0.09982667800412152,0.5967331882422013,0.46459432647609306,0.7018417201107862,0.9393314888507572
841,47.18,46.99,3.53,0.6640440761490802,0.09843009086904572,0.599835880503913,0.46211764722734144,0.7037452448013094,0.9394575648768193
842,47.241,47.04,3.3,0.6676368507410869,0.09704513849964445,0.6029093938395899,0.4595753197256816,0.7056071298215211,0.9395936458409541
843,47.302,47.1,3.69,0.6711819069797662,0.09567166788543989,0.6059531641778338,0.45696696271398846,0.7074275193950581,0.9397397379357697
844,47.383,47.15,3.65,0.6746786372083272,0.09430954060017127,0.608966649873673,0.4542922451980153,0.7092065838453594,0.9398958284932332
845,47.404,47.21,3.53,0.6781264729359145,0.0929586326206526,0.6119493319617151,0.45155088790608366,0.7109445194467053,0.9400618861962122
846,47.466,47.26,3.6,0.6815248850843888,0.09161883412398099,0.6149007143872796,0.44874266468787166,0.7126415482483426,0.9402378613275032
847,47.527,47.32,3.8,0.6848733841910228,0.0902900492631801,0.6178203242162421,0.44586740384851803,0.7142979178717284,0.9404236860557643
848,47.568,47.37,3.65,0.6881715205671832,0.08897219592136704,0.6207077118243263,0.44292498941463193,0.7159139012809949,0.9406192747576255
849,47.631,47.43,3.5,0.6914188844131901,0.08766520544454386,0.6235624510665606,0.4399153623290216,0.7174897965267744,0.9408245243751207
850,47.754,47.48,3.95,0.6946151058895969,0.08636902235315029,0.6263841394275215,0.43683852157123965,0.7190259264635815,0.9410393148075071
851,47.775,47.54,3.76,0.697759855145178,0.08508360403255862,0.6291723981528898,0.43369452520124274,0.7205226384409844,0.9412635093364249
852,47.815,47.59,3.55,0.700852842301941,0.08380892040273066,0.6319268723627719,0.430483491323561,0.7219803039688311,0.94149695508326
853,47.897,47.65,3.92,0.7038938173975098,0.08254495356728173,0.6346472311471726,0.4272055989695132,0.723399318356851,0.9417394834974581
854,47.918,47.7,3.92,0.7068825702852765,0.08129169744221913,0.6373331676440592,0.4238610888951037,0.7247801003290146,0.9419909108743758
855,47.959,47.76,3.79,0.7098189304927711,0.08004915736464999,0.6399843991005326,0.42045026429230453,0.7261230916130854,0.9422510389011887
856,48.022,47.81,3.82,0.7127027670387404,0.07881734968183243,0.6426006669176022,0.4169734914117852,0.7274287565058468,0.9425196552293394
857,48.125,47.87,4.04,0.7155339882094643,0.07759630132103511,0.645181736678961,0.41343120009568857,0.7286975814145826,0.9427965340719204
858,48.145,47.92,3.87,0.7183125412949178,0.07638604934072937,0.6477273981641029,0.4098238842193476,0.72993007437548,0.9430814368242536
859,48.208,47.98,3.7,0.721038412285435,0.07518664046371389,0.6502374653460983,0.4061521020409222,0.731126764549689,0.9433741127058796
860,48.228,48.03,4.1,0.7237116255295631,0.07399813059289759,0.6527117763742586,0.4024164764580457,0.732288201697816,0.9436742994221226
861,48.311,48.09,3.89,0.7263322433538123,0.07282058431060455,0.6551501935418517,0.3986176951706585,0.7334149556336599,0.9439817238433599
862,48.331,48.14,3.66,0.7289003656450084,0.07165407436237482,0.6575526032389479,0.39475651074930496,0.7345076156579913,0.9442961027001382
863,48.392,48.2,3.98,0.7314161293959709,0.0704986811263185,0.6599189158903734,0.3908337406084453,0.7355667899731835,0.9446171432922627
864,48.494,48.25,4.0,0.7338797082152565,0.06935449206912268,0.6622490658787121,0.3868502668846391,0.7365931050794924,0.9449445442099738
865,48.514,48.31,3.88,0.7362913118017295,0.0682216011898626,0.6645430114523082,0.3828070362196792,0.737587205153766,0.9452779960653518
866,48.555,48.36,3.87,0.7386511853847139,0.06710010845285126,0.666800734618153,0.37870505944914473,0.7385497514113495,0.9456171822321567
867,48.618,48.42,4.12,0.7409596091304879,0.06599011921086737,0.6690222410194128,0.3745454111973719,0.739481421451999,0.9459617795922738
