,Time_Host,Time_Arduino,easingdata,CH1_Oxy,CH1_Deoxy,CH2_Oxy,CH2_Deoxy,CH3_Oxy,CH3_Deoxy
0,1.223,0.04,0.0,0.1260466545910104,0.0,0.44040635341776063,0.0,0.0,0.9779202170125484
1,1.243,0.1,0.0,0.12334730255333246,0.008703727875645724,0.4324619000642305,0.01602102001612735,0.0035308213859752595,0.9576721331522928
2,1.264,0.16,0.0,0.12064588099958444,0.017386606029441736,0.42451894786333094,0.03202879148224081,0.007031428042250404,0.9375792946142187
3,1.284,0.21,0.0,0.11794363018234467,0.026045318367371683,0.4165804831104153,0.04801764089133917,0.010500661073388378,0.9176493832736281
4,1.304,0.27,0.0,0.11524180091347427,0.03467657117426474,0.40864949021709124,0.06398192197806905,0.013937399152749342,0.8978899292967243
5,1.325,0.32,0.0,0.11254165375796378,0.04327709594007354,0.40072894939655035,0.07991602039447508,0.017340559696147513,0.8783083046810484
6,1.346,1.06,0.0,0.10984445822167842,0.051843652142915246,0.3928218343691263,0.09581435831863291,0.020709099977745504,0.858911717047808
7,1.366,1.12,0.0,0.10715149193389141,0.060373029985698046,0.38493111009053155,0.1116713989911744,0.02404201818684299,0.8397072036920319
8,1.408,1.17,0.0,0.10446403982549438,0.06886205308326723,0.37705973050513375,0.12748165117490273,0.027338354424349273,0.8207016258958331
9,1.469,1.23,0.0,0.10178339330377661,0.07730758109710634,0.3692106363265607,0.14323967353287212,0.03059719163785783,0.8019016635094379
10,1.531,1.28,-0.06,0.09911084942466918,0.08570651231472408,0.3613867528478452,0.15894007892046713,0.03381765649436567,0.7833138098040356
11,1.593,1.34,-0.02,0.096447710063351,0.09405578617094637,0.35359098778325426,0.1745775385871665,0.036998920189797946,0.7649443665999436
12,1.654,1.39,0.01,0.0937952810840996,0.1023523857084321,0.3458262291438368,0.1901467862838433,0.04014019919460158,0.746799439673129
13,1.717,1.45,0.0,0.09115487151022471,0.11059333997486988,0.33809534314855716,0.20564262227169308,0.04324075593476326,0.728884934442737
14,1.737,1.5,-0.02,0.08852779269485668,0.11877572635449891,0.33040117217263815,0.2210599172292183,0.04629989940770538,0.7112065519418566
15,1.799,1.56,0.1,0.0859153574932971,0.12689667283179024,0.3227465327345042,0.23639361605405143,0.04931698573263248,0.6937697850732079
16,1.899,1.61,0.04,0.08331887943759325,0.1349533601852883,0.31513421352254106,0.25163874155666527,0.052291418635036196,0.6765799151508691
17,1.92,1.67,-0.03,0.08073967191396306,0.14294302410976423,0.3075669734627704,0.2667903980432056,0.05522264986520882,0.6596420087286408
18,1.962,1.72,0.11,0.07817904734366646,0.1508629572649814,0.300047539828453,0.28184377478485007,0.05811017955076363,0.6429609147152059
19,2.046,1.78,0.07,0.07563831636790186,0.15871051124950392,0.2925786063926148,0.2967941493712266,0.06095355648329856,0.6265412617758467
20,2.068,1.83,0.02,0.07311878703728933,0.16648309849810233,0.28516283162456907,0.3116368909454314,0.0637523783394606,0.6103874560201826
21,2.13,1.89,0.07,0.07062176400648525,0.17417819410146415,0.27780283693166463,0.3263674633180735,0.06650629183678158,0.5945036789751091
22,2.213,1.94,0.08,0.0681485477344649,0.18179333754705482,0.27050120494769514,0.34098142795758757,0.06921499282477644,0.5788938858417154
23,2.273,2.0,0.05,0.06570043369101924,0.1893261343800503,0.2632604778695816,0.35547444685390883,0.07187822631190546,0.5635618040345182
24,2.293,2.05,0.01,0.06327871157001659,0.19677425778332502,0.2560831558439974,0.3698422852526191,0.07449578642910232,0.5485109320009365
25,2.354,2.11,0.09,0.06088466450996856,0.20413545007556297,0.24897169540555086,0.38408081425681884,0.07706751633066564,0.5337445383184802
26,2.416,2.16,0.03,0.058519568322417594,0.2114075241266488,0.2419285079680631,0.3981860132941413,0.07959330803340207,0.5192656610666396
27,2.478,2.22,-0.04,0.0561846907286294,0.21858836468958298,0.23495595837039762,0.4121539724464509,0.08207310219498394,0.5050771074699667
28,2.541,2.27,0.1,0.053881290605028595,0.22567592964826638,0.22805636347822128,0.4259808946399037,0.08450688783254981,0.49118145380836353
29,2.561,2.33,0.06,0.05161061723777569,0.23266825118059156,0.2212319908429846,0.43966309769322093,0.08689470198263606,0.47758104559015246
30,2.644,2.38,0.01,0.049373909586850444,0.23956343683636913,0.21448505741927637,0.4531970162223241,0.08923662930358567,0.464277997983211
31,2.706,2.44,0.06,0.047172395559979236,0.2463596705297399,0.20781772834147796,0.4665792033999883,0.0915328016216522,0.4512741964991953
32,2.727,2.49,0.08,0.045007291296735266,0.25305521344583415,0.2012321157603908,0.47980633256978383,0.09378339742210665,0.4385712979255646
33,2.789,2.55,0.05,0.04287980046315079,0.2596484048614989,0.1947302777403455,0.49287519871402863,0.09598864128674021,0.4261707314998052
34,2.85,2.6,-0.0,0.040791113557185524,0.2661376628799797,0.1883142172172201,0.505782719775726,0.09814880327923334,0.41407370031999186
35,2.912,2.66,0.08,0.038742407225384044,0.2725214850795692,0.18198588101774119,0.5185259378346021,0.10026419827993469,0.40228118298556415
36,3.016,2.71,-0.01,0.03673484359103706,0.27879844907637674,0.17574715894040446,0.5311020201374436,0.10233518527166134,0.3907939354619454
37,3.058,2.77,-0.12,0.03476956959414308,0.2849672130015036,0.16959988289832353,0.5435082599829917,0.10436216657817389,0.37961249316246287
38,3.079,2.82,-0.01,0.03284771634345145,0.29102651589301,0.1635458261242689,0.5557420774617221,0.10634558705700173,0.36873717324095745
39,3.12,2.88,-0.07,0.030970398480855435,0.29697517800311823,0.15758670243810596,0.5678010200509565,0.1082859332482844,0.35816807708851517
40,3.182,2.93,-0.13,0.0291387135583829,0.3028121010211554,0.15172416557673268,0.5796827630659888,0.11018373248125772,0.3479050930279099
41,3.244,2.99,-0.08,0.027353741427989377,0.3085362682128307,0.14595980858641133,0.59138510996835,0.11203955193996869,0.33794789919945684
42,3.326,3.04,-0.05,0.025616543644314302,0.3141467444765316,0.14029516327714706,0.602905992532871,0.11385399768977573,0.3282959666318801
43,3.367,3.1,-0.06,0.023928162880532927,0.31964267631734217,0.1347316997385995,0.6142434708755786,0.11562771366617648,0.3189485624916335
44,3.388,3.15,-0.09,0.022289622357413105,0.3250232917395016,0.1292708259169326,0.625395733344656,0.11736138062750869,0.3099047535040004
45,3.45,3.21,0.01,0.020701925285655554,0.3302879000581243,0.12391388725197215,0.636361096276747,0.11905571507310003,0.30116340953921844
46,3.509,3.26,-0.04,0.01916605432156435,0.335435891631161,0.1186621663740342,0.6471380036208985,0.1207114681284923,0.29272320735680246
47,3.571,3.32,-0.12,0.017682971036065823,0.3404667375127688,0.11351688285979465,0.6577250264323943,0.12232942439941744,0.2845826345011766
48,3.612,3.37,-0.0,0.016253615397074855,0.34537998902942685,0.10847919304656525,0.6681208622387336,0.12391040079625176,0.27673999334164806
49,3.672,3.43,-0.05,0.014878905265203914,0.3501752772802688,0.10355018990433176,0.6783243342800533,0.1254552453307133,0.26919340524967195
50,3.736,3.48,-0.11,0.013559735902810914,0.354852312563222,0.0987309029648465,0.688334390626479,0.12696483588658536,0.26194081490636084
51,3.796,3.54,-0.08,0.012296979496375546,0.35941088372869945,0.09402229830690281,0.6981501031753006,0.12844007896625878,0.25497999473320676
52,3.859,3.59,-0.07,0.01109148469219486,0.3638508574627164,0.08942527859671398,0.7077706665313785,0.1298819084148942,0.24830854943890093
53,3.88,3.65,-0.12,0.009944076145407953,0.3681721775013529,0.08494068318218893,0.7171953967745485,0.1312912841239996,0.24192392067503407
54,3.983,3.7,-0.17,0.008855554082377908,0.3723748637784962,0.08056928823983137,0.726423730117951,0.1326691907161965,0.23582339179340533
55,4.002,3.76,-0.07,0.007826693876458683,0.37645901150885186,0.07631180697294034,0.7354552214612632,0.1340166362129208,0.23000409269759636
56,4.064,3.81,-0.11,0.0068582456371561835,0.38042479020829373,0.0721688898597571,0.744289542842784,0.13533465068677375,0.22446300478135398
57,4.125,3.87,-0.18,0.005950933812661718,0.38427244265369853,0.06814112495019115,0.7529264817942536,0.13662428490020903,0.2191969659462065
58,4.167,3.92,-0.04,0.005105456805701389,0.3880022837844878,0.06422903820975828,0.7613659396021966,0.13788660893221968,0.2142026756906308
59,4.229,3.98,-0.07,0.004322486602627982,0.39161469954814043,0.060433093909375214,0.7696079294795423,0.13912271079468613,0.20947670026304052
60,4.291,4.03,-0.12,0.003602668415681102,0.3951101456919734,0.05675369505963714,0.7776525746513453,0.14033369504004845,0.20501547787094354
61,4.353,4.09,-0.08,0.002946620338349088,0.39848914650355743,0.05319118388809771,0.7855001063587176,0.1415206813619845,0.20081532393872173
62,4.395,4.14,-0.07,0.002354933013789168,0.40175229350219405,0.049745842357928234,0.793150861785477,0.1426848031908073,0.19687243640650076
63,4.476,4.2,-0.1,0.0018281693163071193,0.40490024408388686,0.04641789272626296,0.8006052819122542,0.1438272062853185,0.19318290106260824
64,4.497,4.25,-0.15,0.0013668640459438438,0.4079337201222428,0.04320749814054084,0.8078639093028464,0.1449490473228567,0.1897426969022825
65,4.558,4.31,-0.06,0.0009715236362474463,0.4108535065277889,0.040114763271182054,0.8149273858275538,0.14605149248927013,0.1865477015055583
66,4.601,4.36,-0.13,0.0006426258753297141,0.4136604497682526,0.037139734978978836,0.8217964503281221,0.14713571607052028,0.18359369642755738
67,4.662,4.42,-0.23,0.00038061964031615503,0.4163554563524069,0.034282403015630104,0.8284719362287649,0.14820289904759248,0.18087637259470155
68,4.725,4.47,-0.12,0.0001859246453077349,0.4189394912800852,0.031542700755895506,0.8349547690975933,0.14925422769634927,0.17839133570058024
69,4.787,4.53,-0.15,5.893120298562125e-05,0.42141357646091826,0.02892050595989155,0.8412459641626643,0.15029089219391495,0.17613411159536593
70,4.851,4.58,-0.2,0.0,0.42377878910425976,0.02641564156405878,0.8473466237868428,0.1513140852331103,0.17410015166287293
71,4.87,4.64,-0.16,9.46188627650242e-06,0.42603626008270384,0.024027876499254003,0.853257934905812,0.15232500064639062,0.1722848381795451
72,4.932,4.69,-0.12,8.761767836297793e-05,0.4281871722715501,0.021756926534321087,0.858981166433791,0.15332483204069391,0.17068348964974703
73,4.993,4.75,-0.13,0.00023473797694489407,0.43023275886648377,0.019602455143471087,0.8645176666415701,0.1543147714445761,0.16929136611182544
74,5.054,4.8,-0.16,0.0004510629986709707,0.43217430168166593,0.017564074395844568,0.8698688605113718,0.1552960079689903,0.16810367440960358
75,5.095,4.86,-0.06,0.0007368024224421425,0.4340131294304067,0.01564134586568902,0.8750362470728583,0.15626972648306559,0.1671155734242106
76,5.159,4.91,-0.11,0.0010921352503286018,0.4357506159905994,0.013833781561667334,0.8800213967243793,0.15723710630624957,0.16632217926136758
77,5.262,4.97,-0.19,0.0015172096832946982,0.43738817865709645,0.012140844873914293,0.8848259485432778,0.1581993199181886,0.16571857038945229
78,5.284,5.02,-0.07,0.002012143011931252,0.4389272763831851,0.010561951537562295,0.8894516075888083,0.15915753168772728,0.1652997927238294
79,5.324,5.08,-0.11,0.0025770215224250894,0.44036940801326047,0.009096470611561245,0.8939001422010137,0.16011289662240258,0.1650608646531017
80,5.386,5.13,-0.17,0.0032119004180204734,0.44171611050873405,0.007743725471672827,0.8981733812988033,0.16106655913978235,0.164996782003173
81,5.448,5.19,-0.14,0.0039168037562342765,0.442968957169204,0.006502994816467433,0.902273211680613,0.16201965186196265,0.16510252293522312
82,5.49,5.24,-0.14,0.0046917244020883405,0.4441295558508997,0.005373513685057608,0.9062015753312506,0.1629732944345078,0.16537305277379105
83,5.572,5.3,-0.18,0.0055366239976310525,0.4451995471843444,0.004354474485266662,0.9099604667386377,0.1639285923710723,0.1658033287612251
84,5.592,5.35,-0.21,0.006451432948011594,0.446180602793105,0.003445028030956159,0.9135519302240918,0.16488663592488295,0.16638830473489344
85,5.654,5.41,-0.1,0.007436050424334069,0.4470744235154748,0.002644284587264977,0.9169780572896281,0.16584849898819234,0.16712293572368422
86,5.717,5.46,-0.15,0.008490344383471423,0.4478827376309355,0.0019513149225478504,0.9202409839855791,0.1668152380207518,0.16800218246043253
87,5.776,5.52,-0.22,0.009614151604977406,0.4486072990931986,0.0013651513658411785,0.9233428883015926,0.16778789100829927,0.16902101580700732
88,5.818,5.57,-0.09,0.010807277745211145,0.449249885771552,0.0008847888687249773,0.9262859875838801,0.16876747645202508,0.1701744210888821
89,5.878,5.63,-0.12,0.012069497408789433,0.44981229770212355,0.0005091860704972351,0.9290725359813975,0.16975499238995298,0.17145740233614568
90,5.94,5.68,-0.17,0.013400554237491471,0.45029635535055307,0.00023726636558821424,0.9317048219235791,0.1707514154511441,0.1728649864281381
91,5.982,5.74,-0.14,0.014800161016742117,0.45070389788750154,6.791897206760747e-05,0.9341851656323493,0.1717576999436032,0.17439222713912372
92,6.043,5.79,-0.13,0.01626799979981078,0.4510367814783567,0.0,0.936515916671326,0.1727747769767481,0.17603420908252265
93,6.105,5.85,-0.16,0.01780372204989099,0.45129687758837544,3.233351838844666e-05,0.9386994515351661,0.17380355361927835,0.17778605155130378
94,6.167,5.9,-0.22,0.019406948800250866,0.45148607130439544,0.00016371261951254363,0.940738171281857,0.1748449120932355,0.17964291225228582
95,6.227,5.96,-0.14,0.021077270832648955,0.45160625967419876,0.0003929004795524627,0.9426344992105279,0.17589970900498975,0.18159999093225887
96,6.329,6.01,-0.21,0.0228142488741979,0.45165935006458857,0.0007186314144880049,0.944390878587093,0.17696877461381985,0.1836525328940006
97,6.35,6.07,-0.29,0.024617413812833205,0.451647258539218,0.0011396119303671369,0.9460097704197282,0.17805291213866914,0.1857958324004524
98,6.37,6.12,-0.16,0.026486266931509184,0.45157190825717064,0.0016545217671471353,0.9474936512858907,0.17915289710356916,0.18802523596550716
99,6.431,6.18,-0.19,0.028420280161205427,0.4514352278932323,0.002262014935426805,0.9488450112123187,0.18026947672212515,0.190336145530053
100,6.515,6.23,-0.22,0.03041889635278221,0.45123915008072646,0.0029607207454546806,0.9500663516093252,0.18140336932135634,0.19272402152214768
101,6.555,6.29,-0.18,0.0324815295676693,0.450985609877764,0.0037492448277633883,0.9511601832607861,0.18255526380510367,0.19518438580039324
102,6.575,6.34,-0.15,0.034607565387333256,0.4506765432577241,0.00462617014470398,0.9521290243714045,0.18372581915716912,0.19771282447964858
103,6.676,6.4,-0.17,0.03679636124145746,0.4503138856247139,0.005590057992154644,0.9529753986728523,0.1849156639843167,0.20030499063826152
104,6.697,6.45,-0.21,0.03904724675476639,0.44989957035467726,0.006639448990758945,0.9537018335901954,0.18612539609923384,0.20295660690611633
105,6.758,6.51,-0.09,0.04135952411241364,0.44943552736280706,0.007772864066157773,0.9543108584697056,0.18735558214351966,0.2056634679329191
106,6.8,6.56,-0.15,0.04373246844383446,0.44892368169792,0.008988805417796626,0.9548050028688368,0.1886067572507385,0.20842144273624735
107,6.862,6.62,-0.24,0.04616532822493827,0.44836595216445074,0.010285757475989987,0.9551867949088259,0.18987942474954117,0.21122647692899071
108,6.924,6.67,-0.13,0.04865732569848538,0.4477642499727066,0.011662187846990564,0.955458759690144,0.19117405590681788,0.21407459482588442
109,6.966,6.73,-0.18,0.05120765731246094,0.44712047741798533,0.013116548245850436,0.9556234177708638,0.19249108971079534,0.21696190142893432
110,7.068,6.78,-0.24,0.053815494176222875,0.4464365265891126,0.014647275416832016,0.9556832837079965,0.1938309326939117,0.2198845842917095
111,7.089,6.84,-0.22,0.05647998253415077,0.4457142781069381,0.016252792040983326,0.9556408646620922,0.19519395879521265,0.22283891526264876
112,7.172,6.89,-0.19,0.05920024425647265,0.4449555998933028,0.0179315076303046,0.9554986590657206,0.19658050926191772,0.22582125210757084
113,7.193,6.95,-0.21,0.06197537734690099,0.4441623459708991,0.019681819407822237,0.955259155356617,0.19799089258970448,0.22882804001157525
114,7.234,7.0,-0.23,0.06480445646665296,0.4433363552943702,0.0215021131728658,0.9549248307762094,0.19942538450114916,0.23185581296057947
115,7.297,7.06,-0.11,0.06768653347435598,0.44247945061295657,0.02339076415086223,0.9544981502340559,0.20088422796167096,0.2349011950028325
116,7.359,7.11,-0.15,0.07062063798126363,0.4415934373649976,0.02534613782701004,0.9539815652384579,0.20236763323225548,0.23796090139085738
117,7.422,7.17,-0.23,0.07360577792113714,0.44068010260459267,0.027366590763267362,0.9533775128932415,0.20387577795818435,0.24103173960442303
118,7.483,7.22,-0.09,0.07664094013409287,0.43974121396070553,0.029450471398161406,0.9526884149604467,0.20540880729296176,0.24411061025529693
119,7.545,7.28,-0.11,0.07972509096368854,0.43877851862893785,0.031596120829006535,0.9519166769884737,0.2069668340565965,0.2471945078747119
120,7.565,7.33,-0.16,0.0828571768665076,0.4377937423961312,0.03380187357615998,0.9510646875051578,0.20854993892735357,0.2502805215847568
121,7.628,7.39,-0.1,0.08603612503348704,0.43678858869793113,0.0360660583288983,0.9501348172753692,0.21015817066604445,0.25336583565516824
122,7.69,7.44,-0.07,0.08926084402222828,0.43576473770942675,0.03838699867242763,0.9491294186229037,0.21179154637189254,0.2564477299471378
123,7.813,7.5,-0.1,0.09253022439953643,0.4347238454689091,0.040763013795549925,0.9480508248164561,0.21345005176897508,0.25952358024581923
124,7.834,7.55,-0.14,0.09584313939343225,0.43366754303472826,0.04319241917858137,0.9469013495192846,0.21513364152220074,0.2625908584833061
125,7.875,7.61,-0.05,0.09919844555385711,0.4325974356752121,0.04567352726121131,0.9456832863019128,0.2168422395817364,0.2656471328539088
126,7.896,7.66,-0.09,0.10259498342125352,0.4315151020916183,0.04820464809008507,0.9443989082169085,0.21857573955474785,0.26869006782359994
127,7.958,7.72,-0.14,0.10603157820215606,0.43042209367409057,0.0507840899459975,0.9430504674344466,0.2203340051032526,0.2717174240355751
128,8.021,7.77,0.02,0.10950704045087771,0.42931993379057737,0.0534101599506776,0.9416401949370586,0.22211687036681768,0.27472705811398773
129,8.083,7.83,0.01,0.11302016675633664,0.42821011710862666,0.05608116465323147,0.9401703002717192,0.22392414040877198,0.27771692236807305
130,8.164,7.88,-0.01,0.11656974043304007,0.4270941089499369,0.058795410596360446,0.9386429713573012,0.2257555916845626,0.28068506439909335
131,8.185,7.94,0.06,0.12015453221522106,0.42597334467754366,0.061551204862437085,0.9370603743455277,0.2276109725308739,0.28362962661271923
132,8.246,7.99,0.12,0.12377330095312623,0.4248492291155322,0.06434685559947285,0.9354246535337296,0.22949000367415048,0.28654884563951005
133,8.286,8.05,0.12,0.12742479431048526,0.4237231360011165,0.0671806725270325,0.9337379313277842,0.23139237875719693,0.2894410516661825
134,8.349,8.1,0.1,0.13110774946223264,0.4225964074688905,0.07005096742223235,0.932002308253487,0.23331776488255607,0.292304667680422
135,8.412,8.16,0.22,0.13482089379158482,0.42147035356706997,0.07295605458604847,0.9302198630144267,0.23526580317140475,0.29513820863202794
136,8.453,8.21,0.18,0.13856294558560078,0.4203462518055999,0.07589425129026103,0.9283926525941796,0.2372361093367483,0.2979402805131592
137,8.514,8.27,0.11,0.1423326147283747,0.4192253467360637,0.07886387820546864,0.9265227124003849,0.23922827426972218,0.300709579360431
138,8.576,8.32,0.26,0.14612860339102468,0.4181088495633876,0.08186325981070156,0.9246120564480419,0.24124186463782987,0.3034448901816035
139,8.637,8.38,0.23,0.1499496067176597,0.4169979377893584,0.08489072478524655,0.9226626775792233,0.24327642349395204,0.3061450858096053
140,8.72,8.43,0.2,0.15379431350652276,0.4158937548879615,0.08794460638333428,0.9206765477163777,0.24533147089495452,0.30880912568670865
141,8.74,8.49,0.28,0.15766140688551705,0.4147974100125548,0.09102324279229351,0.918655618146559,0.24740650452871793,0.3114360545817142
142,8.801,8.54,0.35,0.16154956498133805,0.41370997773487184,0.09412497747471084,0.9166018198341616,0.24950100034841943,0.31402500124295457
143,8.884,8.6,0.35,0.16545746158147606,0.4126324978157651,0.09724815949514871,0.9145170637598298,0.25161441321291445,0.31657517698987314
144,8.905,8.65,0.35,0.1693837667884058,0.41156597500751313,0.10039114383205527,0.9124032412831145,0.2537461775320989,0.31908587424596546
145,8.947,8.71,0.5,0.17332714766533144,0.4105113788874719,0.10355229167560141,0.9102622245262616,0.25589570791619054,0.3215564650159135
146,9.008,8.76,0.47,0.1772862688729146,0.40946964372284744,0.10672997071231424,0.9080958667762542,0.25806239982795365,0.3239863993097436
147,9.07,8.82,0.41,0.18125979329647143,0.408441668366375,0.10992255539753665,0.9059060029019326,0.26024563023697883,0.32637520351683125
148,9.132,8.87,0.56,0.18524638266318647,0.4074283161827156,0.1131284272169065,0.9036944497827352,0.2624447582752261,0.32872247873252824
149,9.195,8.93,0.53,0.18924469814895206,0.4064304150054007,0.11634597493819272,0.9014630067454201,0.2646591258931249,0.3310278990401654
150,9.257,8.98,0.5,0.1932534009745071,0.4054487571241845,0.1195735948548589,0.899213456005233,0.2668880585155854,0.33329120975125603
151,9.277,9.04,0.54,0.19727115299059775,0.4044840993027117,0.12280969102257792,0.896947563108462,0.26913086569732186,0.3355122256068039
152,9.338,9.09,0.57,0.2012966172519389,0.4035371628264615,0.12605267548969737,0.8946670773739882,0.2713868417769332,0.33769082894257685
153,9.4,9.15,0.56,0.20532845857981627,0.40260863358089144,0.1293009685225278,0.892373732331843,0.27365526652921773,0.33982696782113636
154,9.441,9.2,0.55,0.20936534411321361,0.4016991621596621,0.1325529988263305,0.890069246156828,0.2759354058152103,0.34192065413339195
155,9.503,9.26,0.67,0.2134059438483759,0.4008093640027944,0.13580720376294134,0.8877553220950676,0.2782265122294454,0.34397196167245625
156,9.564,9.31,0.64,0.21744893116673766,0.39993981956456537,0.13906202956606803,0.8854336488810851,0.28052782574397045,0.3459810241825601
157,9.625,9.37,0.58,0.22149298335116707,0.39909107451089826,0.14231593155542305,0.8831059011426629,0.2828385743486636,0.3479480333858111
158,9.666,9.42,0.74,0.22553678209050995,0.39826363994594116,0.14556737435097414,0.8807737397904586,0.28515797468745835,0.34987323698960565
159,9.729,9.48,0.72,0.22957901397245942,0.3974579926674644,0.1488148320886583,0.8784388123892332,0.28748523269013065,0.35175693667755903
160,9.769,9.53,0.67,0.23361837096482937,0.3966745754506601,0.15205678863876884,0.8761027535079078,0.289819544199358,0.3535994860869083
161,9.83,9.59,0.74,0.23765355088534387,0.39591379735993615,0.15529173782777575,0.8737671850467313,0.29216009559281325,0.3554012887753953
162,9.892,9.64,0.77,0.24168325786010156,0.3951760340883014,0.15851818366375728,0.8714337165412205,0.29450606440012406,0.3571627961805615
163,9.995,9.7,0.76,0.24570620277092659,0.39446162832389153,0.16173464056521653,0.8691039454435434,0.2968566199145792,0.3588845055742939
164,10.037,9.75,0.72,0.24972110369186878,0.3937708901431234,0.1649396335929398,0.8667794573823513,0.29921092379950365,0.3605669580154207
165,10.058,9.81,0.82,0.25372668631514866,0.3931040974299395,0.16813169868462066,0.8644618264019157,0.3015681306892624,0.3622107363030981
166,10.1,9.86,0.76,0.25772168436687304,0.39246149632058797,0.17130938289212488,0.8621526151811082,0.3039273887848879,0.3638164629336283
167,10.16,9.92,0.7,0.2617048400128673,0.3918433016733456,0.17447124462143018,0.8598533752323847,0.3062878404443469,0.365384798063261
168,10.222,9.97,0.86,0.2656749042549778,0.3912496975625511,0.17761585387541354,0.8575656470805972,0.30864862276747,0.3669164374794633
169,10.263,10.03,0.82,0.2696306373182033,0.39068083779625173,0.1807417924997851,0.8552909604211543,0.31100886817556656,0.36841211058311296
170,10.385,10.08,0.78,0.27357080902901326,0.3901368464567121,0.18384765443256537,0.853030834256829,0.3133677049857438,0.36987257838411775
171,10.405,10.14,0.85,0.2774941991852074,0.38961781846303334,0.18693204595754137,0.8507867770124453,0.315724257979965,0.37129863151298187
172,10.468,10.19,0.87,0.28139959791768265,0.3891238201551221,0.18999358596216484,0.8485602866266536,0.3180776489689147,0.3726910882507602
173,10.489,10.25,0.85,0.2852858060445013,0.38865488989820773,0.19303090620043317,0.8463528506199246,0.3204269973507765,0.37405079257974755
174,10.55,10.3,0.82,0.28915163541767847,0.38821103870707313,0.19604265156139777,0.8441659461377037,0.3227714206650549,0.3753786122572331
175,10.592,10.36,0.91,0.29299590926311414,0.38779225088917096,0.19902748034405854,0.8420010399674245,0.3251100351415962,0.3766754369146368
176,10.655,10.41,0.85,0.2968174625141111,0.38739848470579397,0.2019840645395531,0.8398595885277872,0.3274419562449872,0.3779421761843198
177,10.738,10.47,0.77,0.30061514213893425,0.3870296730504394,0.2049110901217028,0.8377430378283557,0.3297662992145095,0.37917975785632846
178,10.779,10.52,0.9,0.30438780746287486,0.3866857241434699,0.20780725734710612,0.8356528233972176,0.33208217959981906,0.3803891260672599
179,10.82,10.58,0.84,0.3081343304852763,0.3863665222421332,0.21067128106603458,0.8335903701742811,0.3343887137924888,0.381571239523368
180,10.88,10.63,0.8,0.31185359619195563,0.3860719283649819,0.21350189104530135,0.8315570923679425,0.3366850195535089,0.382727069760015
181,10.942,10.69,0.88,0.3155445028634025,0.38580178102976215,0.21629783230394775,0.8295543932735567,0.33897021653679366,0.38385759943955144
182,11.004,10.74,0.89,0.3192059623790959,0.38555589700384496,0.21905786546217731,0.8275836650530622,0.34124342680871356,0.38496382068959106
183,11.106,10.8,0.88,0.32283690051825387,0.38533407206620224,0.22178076710366684,0.8256462884757765,0.3435037753636476,0.38604673348353763
184,11.127,10.85,0.86,0.32643625725732556,0.3851360817798439,0.2244653301512725,0.8237436326205779,0.34575039063553614,0.38710734406516834
185,11.168,10.91,0.97,0.33000298706452946,0.3849616822735901,0.22711036425616635,0.8218770545395877,0.34798240500541666,0.3881466634190185
186,11.228,10.96,0.92,0.3335360591917581,0.3848106110320234,0.22971469620052481,0.8200478988832256,0.3501989553049402,0.3891657057882451
187,11.269,11.02,0.85,0.33703445796417375,0.38468258769247216,0.23227717031399334,0.8182574974862433,0.3523991833158727,0.3901654872415785
188,11.351,11.07,1.0,0.3404971830678155,0.3845773148478965,0.2347966489042279,0.816507168914092,0.3545822362655938,0.39114702429087267
189,11.372,11.13,0.94,0.34392324983552114,0.3844944788545734,0.23727201270184917,0.814798217968824,0.3567472673186048,0.39211133256062164
190,11.475,11.18,0.87,0.3473116895314259,0.38443375064350827,0.23970216132009783,0.8131319351537836,0.35889343606404295,0.3930594255106693
191,11.496,11.24,0.93,0.3506615496342542,0.3843947865345533,0.24208601372930483,0.8115095960966809,0.3610199089991887,0.39399231321314165
192,11.537,11.29,0.93,0.3539718941195625,0.3843772290522409,0.24442250874608623,0.8099324609311157,0.3631258600089227,0.39491100118432454
193,11.599,11.35,0.92,0.3572418037410423,0.3843807077423082,0.2467106055370681,0.8084017736368736,0.36521047084105185,0.3958164892719364
194,11.639,11.4,0.91,0.36047037631093487,0.3844048399878422,0.24894928413694034,0.8069187613392897,0.36727293157735513,0.3967097705980969
195,11.701,11.46,1.02,0.3636567269795426,0.3844492318239688,0.25113754598068744,0.8054846335677753,0.3693124411001479,0.3975918305582036
196,11.761,11.51,0.97,0.36679998851377926,0.38451347874998826,0.25327441444993415,0.8041005814733192,0.3713282075541249,0.3984636458758738
197,11.844,11.57,0.93,0.3698993115746713,0.38459716653784715,0.2553589354334434,0.8027677770044968,0.3733194488032313,0.3993261837140707
198,11.864,11.62,1.09,0.37295386499370314,0.384699872035822,0.2573901779018677,0.8014873720413007,0.3752853928823132,0.4001804008424672
199,11.925,11.68,1.03,0.37596283604788744,0.3848211639662999,0.25936723449684856,0.8002604974860962,0.37722527844330495,0.4010272428610038
200,11.987,11.73,0.98,0.37892543073341484,0.38496060371656865,0.2612892221343502,0.7990882623114498,0.3791383551957264,0.40186764347950726
201,12.028,11.79,1.05,0.38184087403770905,0.3851177461215998,0.2631552826216313,0.7979717525656999,0.38102388434126905,0.40270252385307176
202,12.089,11.84,1.03,0.38470841020968777,0.38529214023783925,0.26496458328666067,0.7969120303385573,0.3828811390022656,0.4035327919726434
203,12.215,11.9,1.02,0.38752730302801197,0.3854833301069929,0.26671631761836484,0.7959101326900687,0.38470940464382025,0.4043593421100222
204,12.236,11.95,1.01,0.39029683606707327,0.3856908555087728,0.2684097059159242,0.7949670705466744,0.3865079794893429,0.40518305431637486
205,12.277,12.01,1.12,0.39301631296042405,0.3859142527015891,0.2700439959453373,0.7940838275680406,0.3882761749291855,0.40600479397324196
206,12.298,12.06,1.09,0.39568505766130546,0.38615305515019605,0.27161846360154973,0.7932613589881179,0.39001331592204136,0.40682541139487977
207,12.36,12.12,1.05,0.39830241469988953,0.3864067942393118,0.2731324135745425,0.7925005904336067,0.39171874138875085,0.4076457414806288
208,12.422,12.17,1.22,0.4008677494368223,0.3866749999722471,0.2745851800178473,0.7918024167227847,0.39339180459815326,0.40846660341583435
209,12.464,12.23,1.17,0.40338044831264175,0.38695720165359615,0.2759761272180204,0.7911677006474902,0.3950318735446439,0.4092888004196968
210,12.568,12.28,1.12,0.4058399190926376,0.3872529285550708,0.2773046502636087,0.790597271741043,0.3966383313171243,0.4101131195383352
211,12.589,12.34,1.2,0.4082455911067248,0.38756171056362687,0.27857017571208137,0.7900919250350572,0.39821057645907043,0.410940331481257
212,12.652,12.39,1.2,0.4105969154839188,0.3878830788110673,0.27977216225312274,0.7896524198083416,0.39974802331948023,0.41177119049932703
213,12.714,12.45,1.18,0.41289336538103055,0.3882165662843001,0.280910101366673,0.7892794783311979,0.40125010239447756,0.41260643430230937
214,12.755,12.5,1.16,0.41513443620521495,0.388561708415455,0.2819835179741338,0.7889737846083615,0.4027162606593372,0.41344678401415624
215,12.815,12.56,1.25,0.41731964582999614,0.3889180436511556,0.28299197108119156,0.7887359831236815,0.4041459618906856,0.41429294416424484
216,12.876,12.61,1.21,0.4194485348043798,0.3892851140003649,0.2839350544107883,0.7885666775893985,0.40553868697861983,0.41514560271270484
217,12.959,12.67,1.16,0.4215206665546414,0.3896624655603242,0.2848123970248642,0.7884664297025912,0.4068939342284669,0.41600543110784427
218,12.979,12.72,1.33,0.4235356275783518,0.3900496490201727,0.2856236639335793,0.7884357579111059,0.40821121965189555,0.4168730843735135
219,13.041,12.78,1.29,0.42549302763018254,0.3904462201418762,0.28636855669076466,0.7884751361911071,0.4094900772470774,0.4177492012241153
220,13.082,12.83,1.25,0.4273924998990023,0.39085174021812724,0.2870468139743224,0.7885849928384373,0.4107300592675978,0.41863440420495374
221,13.143,12.89,1.35,0.4292337011757708,0.3912657765069517,0.2876582121501418,0.7887657092763197,0.41193073647983713,0.4195292998556376
222,13.205,12.94,1.36,0.43101631201174706,0.3916879026428044,0.28820256581794057,0.7890176188823903,0.4130916984085941,0.4204344788942351
223,13.308,13.0,1.35,0.43274003686657164,0.39211769902394217,0.28867972833738254,0.7893410058383116,0.414212553570765,0.42135051641990184
224,13.329,13.05,1.35,0.434404604245827,0.3925547531758792,0.2890895923328522,0.7897361040052409,0.4152929296969294,0.4222779721317928
225,13.37,13.11,1.44,0.436009766827716,0.39299866009079126,0.28943209017534693,0.7902030958282842,0.41633247394073414,0.42321739056210606
226,13.411,13.16,1.39,0.43755530157854616,0.39344902254278186,0.28970719444007437,0.7907421112728257,0.4173308530760034,0.4241693013210718
227,13.452,13.22,1.31,0.439041009856744,0.3939054513789695,0.2899149183384895,0.791353226795336,0.4182877536815344,0.42513421935161955
228,13.535,13.27,1.45,0.44046671750515215,0.3943675657864046,0.29005531612363494,0.7920364643509901,0.4192028823135592,0.42611264519133846
229,13.576,13.33,1.41,0.4418322749313714,0.39483499353488277,0.2901284834677407,0.7927917904402417,0.42007596566586203,0.42710506523922137
230,13.679,13.38,1.32,0.44313755717589687,0.39530737119579856,0.2901345578110524,0.7936191151964807,0.4209067507175315,0.42811195202465696
231,13.7,13.44,1.42,0.44438246396776965,0.3957843443373179,0.29007371868076753,0.7945182915171346,0.4216950048683085,0.429133764476151
232,13.741,13.49,1.43,0.44556691976743923,0.3962655676962808,0.2899461879788627,0.7954891142409082,0.42244051606148136,0.43017094818733015
233,13.804,13.55,1.44,0.4466908737965284,0.396750705327345,0.2897522302375835,0.7965313193740173,0.4231430928942575,0.43122393567805767
234,13.864,13.6,1.44,0.44775430005420075,0.3972394307299567,0.28949215284143465,0.7976445833682341,0.42380256471553096,0.4322931466489358
235,13.926,13.66,1.53,0.4487571973198668,0.39773142695380226,0.28916630621460454,0.7988285224533694,0.4244187817109742,0.43337898822785603
236,14.029,13.71,1.49,0.4496995891420213,0.39822638668343036,0.28877508397289414,0.8000826920265721,0.4249916149754299,0.43448185520747745
237,14.05,13.77,1.44,0.4505815238130795,0.3987240123027639,0.28831892303935464,0.8014065861005439,0.42552095657262506,0.43560213027262007
238,14.071,13.82,1.58,0.45140307433014304,0.3992240159402602,0.2877983037229267,0.8027996368125969,0.42600671958228487,0.4367401842166039
239,14.111,13.88,1.52,0.45216433834168435,0.399726119495519,0.2872137497594178,0.804261213996377,0.426448838134767,0.43789637614560467
240,14.193,13.93,1.44,0.4528654380801831,0.4002300546481564,0.28656582831414784,0.8057906248181048,0.42684726743335816,0.4390710536701647
241,14.233,13.99,1.5,0.4535065202807895,0.4007355628497541,0.2858551499455392,0.8073871134793379,0.42720198376439755,0.44026455308303736
242,14.295,14.04,1.5,0.4540877560861316,0.40124239529961925,0.285082368528898,0.809049860988444,0.4275129844953999,0.4414771995225314
243,14.378,14.1,1.49,0.45460934093742245,0.4017503129049786,0.28424818113967565,0.8107779850030248,0.42778028806133356,0.4427093071205799
244,14.418,14.15,1.49,0.455071494452034,0.4022590862261693,0.2833533278955567,0.8125705397454548,0.4280039339391719,0.4439611791348901
245,14.46,14.21,1.6,0.45547446028769784,0.4027684954073785,0.28239859175676185,0.8144265159935655,0.428183982610813,0.4452331080646267
246,14.523,14.26,1.57,0.45581850599350016,0.4032783300934637,0.2813847982840138,0.8163448411483142,0.42832051551446687,0.4465253757490865
247,14.606,14.32,1.52,0.45610392284786644,0.4037883893333585,0.28031281535368496,0.818324379380041,0.4284136349846338,0.4478382534488196
248,14.626,14.37,1.66,0.4563310256837587,0.4042984814705681,0.27918355282971963,0.8203639318547101,0.4284634641808502,0.4491720019086175
249,14.668,14.43,1.6,0.45650015270134703,0.40480842402128586,0.27799796219197814,0.8224622370413897,0.42847014700543806,0.4505268714017585
250,14.77,14.48,1.53,0.45661166526844177,0.40531804354072326,0.27675703612064295,0.8246179711022703,0.4284338480105495,0.4519031017549326
251,14.791,14.54,1.59,0.4566659477090009,0.40582717547832636,0.275461808036209,0.8268297483668611,0.4283547522948447,0.45330092235334324
252,14.873,14.59,1.59,0.4566634070800563,0.40633566402259685,0.2741133515944514,0.8290961218924441,0.42823306539016953,0.4547205521255723
253,14.893,14.65,1.56,0.456604472937449,0.4068433619362194,0.27271278013571465,0.8314155841131423,0.42806901313860685,0.45616219950799497
254,14.934,14.7,1.53,0.45648959709077974,0.40735013038218715,0.27126124608787855,0.8337865675799763,0.4278628415602481,0.45762606238878
255,14.995,14.76,1.59,0.45631925334799234,0.407855838741647,0.2697599403223818,0.8362074457941674,0.4276148167120185,0.45911232803164187
256,15.058,14.81,1.54,0.4560939372500078,0.4083603644241959,0.2682100914627475,0.8386765341357284,0.427325224537875,0.46062117297947924
257,15.141,14.87,1.49,0.45581416579582384,0.4088635926713529,0.2666129651451181,0.8411920908891042,0.4269943707106796,0.4621527629379465
258,15.161,14.92,1.63,0.45548047715847023,0.4093654163539206,0.26496986323036426,0.843752318367356,0.42662258046602414,0.46370725263890905
259,15.222,14.98,1.57,0.4550934303921717,0.4098657357639513,0.26328212296739667,0.8463553641360757,0.4262101984282662,0.4652847856837012
260,15.284,15.03,1.5,0.45465360513102865,0.4103644584020577,0.2615511161074522,0.8489993223377936,0.4257575884290229,0.4668854943661569
261,15.324,15.09,1.58,0.4541616012794943,0.4108614987608605,0.2597782479693711,0.8516822351170786,0.42526513331838195,0.46850949947548365
262,15.387,15.14,1.56,0.45361803869492395,0.41135677810536914,0.2579649564562416,0.8544020941458218,0.4247332347691054,0.4701569100791671
263,15.448,15.2,1.53,0.45302355686249424,0.41185022425103346,0.25611271102415417,0.8571568422475421,0.4241623130741005,0.47182782328634687
264,15.529,15.25,1.5,0.45237881456280743,0.412341771340138,0.2542230116040675,0.8599443751190382,0.42355280693741787,0.4735223239924585
265,15.55,15.31,1.57,0.4516844895325085,0.41283135961718037,0.2522973874779419,0.8627625431473884,0.42290517325901966,0.4752404846062738
266,15.634,15.36,1.5,0.45094127811826024,0.41331893520382795,0.250337396110437,0.8656091533199599,0.4222198869135501,0.47698236476073047
267,15.655,15.42,1.42,0.4501498949244319,0.4138044498739915,0.2483446219376018,0.8684819712247537,0.4214974405233166,0.47874801100914843
268,15.717,15.47,1.53,0.44931107245484975,0.41428786082951774,0.24632067511406708,0.8713787231381313,0.42073834422565803,0.4805374565085235
269,15.778,15.53,1.47,0.44842556074892664,0.41476913047697755,0.24426719022029064,0.8742970981967509,0.41994312543483947,0.48235072069162355
270,15.882,15.58,1.4,0.4474941270124388,0.4152482262060239,0.24218582493138893,0.8772347506504657,0.41911232859855047,0.48418780892967084
271,15.903,15.64,1.48,0.44651755524315345,0.41572512016981306,0.24007825864900842,0.8801893021930378,0.418246514949036,0.486048712187451
272,15.944,15.69,1.47,0.4454966458514686,0.4161997890679564,0.23794619109764534,0.8831583443676778,0.41734626224883997,0.4879334066727352
273,16.006,15.75,1.46,0.4444322152762015,0.41667221393238585,0.23579134088687656,0.8861394410444036,0.41641216453110796,0.4898418534820262
274,16.047,15.8,1.44,0.44332509559565286,0.4171423799164298,0.2336154440410799,0.8891301309660403,0.4154448318343641,0.4917739982448557
275,16.128,15.86,1.53,0.44217613413406087,0.41761027608735435,0.23142025249835346,0.8921279303593984,0.4144448899316654,0.49372977076902047
276,16.25,15.91,1.48,0.4409861930635701,0.4180758952225852,0.22920753258049376,0.8951303356078251,0.4134129800540456,0.4957090846891926
277,16.272,15.97,1.41,0.43975614900184007,0.41853923360980083,0.22697906343603463,0.8981348259809538,0.41234975860816314,0.4977118371213167
278,16.292,16.02,1.54,0.43848689260540574,0.4190002908510881,0.22473663545844827,0.9011388664171688,0.4112558968880861,0.4997379083250901
279,16.312,16.08,1.46,0.4371793281588733,0.419459069671371,0.22248204868165983,0.9041399103540625,0.4101320807811521,0.501787161376657
280,16.374,16.13,1.37,0.43583437315998436,0.41991557573135796,0.22021711115501472,0.9071354026020944,0.4089790104678457,0.503859441853504
281,16.434,16.19,1.44,0.43445295790052374,0.4203698174453147,0.2179436372997488,0.9101227822567604,0.40779740011561927,0.5059545775333953
282,16.475,16.24,1.45,0.43303602504298866,0.42082180580398326,0.21566344624894454,0.9130994856447342,0.40658797756656123,0.5080723781090307
283,16.538,16.3,1.44,0.4315845291928989,0.42127155420289286,0.21337836017297931,0.916062949299391,0.40535148401876164,0.5102126349200405
284,16.621,16.35,1.42,0.4300994364665817,0.4217190782762199,0.21109020259257055,0.9190106129608883,0.40408867370117957,0.5123751207039405
285,16.64,16.41,1.52,0.42858172405422856,0.42216439573630543,0.2088007966816451,0.9219399225956065,0.40280031354179047,0.5145595893676133
286,16.701,16.46,1.47,0.4270323797780018,0.4226075262189106,0.20651196356242185,0.9248483334293675,0.40148718282880747,0.516765775780748
287,16.764,16.52,1.39,0.42545240164496284,0.4230484911342752,0.20422552059526242,0.9277333129884121,0.40015007286479315,0.5189933955925395
288,16.826,16.57,1.53,0.42384279739459363,0.4234873135240469,0.20194327966598535,0.9305923441418031,0.3987897866135161,0.521242145072807
289,16.868,16.63,1.46,0.4222045840406818,0.42392401792415074,0.1996670454734202,0.9334229281387101,0.39740713833942726,0.5235117009785825
290,16.974,16.68,1.39,0.4205387874073417,0.4243586302336835,0.1973986138199047,0.9362225876342077,0.3960029532396526,0.5258017204471601
291,16.994,16.74,1.44,0.4188464416589311,0.42479117758996987,0.19513976990714674,0.9389888696978753,0.39457806706840154,0.5281118409165025
292,17.035,16.79,1.42,0.41712858882362575,0.4252216882499346,0.19289228663953187,0.9417193488003138,0.393133325753698,0.5304416800737152
293,17.097,16.85,1.4,0.4153862783104227,0.42565019147788846,0.19065792293678102,0.944411629773241,0.3916695850063271,0.5327908358321316
294,17.139,16.9,1.36,0.4136205664193411,0.426076717439752,0.18843842205786798,0.9470633507388745,0.39018770992085233,0.5351588863374944
295,17.199,16.96,1.46,0.4118325158445758,0.426501297103698,0.18623550993820848,0.9496721860040818,0.3886885745685204,0.5375453900036761
296,17.26,17.01,1.41,0.410023195170352,0.4269239621471175,0.1840508935422809,0.9522358489144189,0.38717306158184767,0.5399498855783463
297,17.342,17.07,1.35,0.40819367835923986,0.42734474486973056,0.18188625923398877,0.9547520946628064,0.38564206173066506,0.5423718922389866
298,17.362,17.12,1.51,0.4063450442327022,0.42776367811258914,0.17974327116720856,0.9572187230472747,0.3840964734894076,0.544810909719646
299,17.423,17.18,1.46,0.4044783759436716,0.4281807951826757,0.1776235696990674,0.9596335811720264,0.38253720259545965,0.547266418468835
300,17.484,17.23,1.41,0.40259476044098375,0.42859612978279316,0.17552876982846474,0.9619945660861896,0.38096516159839244,0.5497378798389849
301,17.545,17.29,1.46,0.4006952879255125,0.4290097159464822,0.17346045966211018,0.9642996273552458,0.3793812693999835,0.5522247363078219
302,17.606,17.34,1.47,0.3987810512978915,0.4294215879777204,0.1714201989100175,0.9665467695609262,0.3777864507849659,0.5547264117317862
303,17.708,17.4,1.44,0.39685314559775325,0.42983178039510883,0.1694095174121878,0.9687340547259152,0.3761816359425027,0.5572423116313776
304,17.728,17.45,1.38,0.3949126674344606,0.43024032788019756,0.16742991369818064,0.970859604659788,0.3745677599784186,0.5597718235081474
305,17.749,17.51,1.47,0.39296071440933766,0.430647265229568,0.1654828535813551,0.9729216032224186,0.3729457624182443,0.5623143171929204
306,17.812,17.56,1.4,0.39099838452945085,0.4310526273102503,0.16356976878970841,0.9749182985007593,0.37131658670114215,0.5648691452246656
307,17.853,17.62,1.33,0.38902677561301363,0.43145644901800434,0.16169205563541017,0.9768480048945222,0.3696811796647899,0.5674356432592924
308,17.934,17.67,1.49,0.3870469846865157,0.43185876523794503,0.15985107372527643,0.9787091051059843,0.3680404910212906,0.5700131305075212
309,17.994,17.73,1.45,0.3850601073736945,0.43225961080692854,0.15804814471451115,0.9805000520289984,0.3663954728241793,0.5726009102009303
310,18.098,17.78,1.39,0.38306723727649816,0.4326590204770414,0.15628455110593406,0.982219370532605,0.36474707892660657,0.5751982700853389
311,18.119,17.84,1.44,0.3810694653482314,0.4330570288794976,0.15456153509651924,0.9838656591355999,0.36309626443081455,0.5778044829407358
312,18.14,17.89,1.48,0.3790678792591409,0.433453670488181,0.1528802974725505,0.9854375915696997,0.3614439851290868,0.5804188071268886
313,18.223,17.95,1.44,0.3770635627547946,0.4338489795819561,0.1512419965543376,0.9869339182299437,0.3597911969364113,0.5830404871536919
314,18.243,18.0,1.4,0.3750575950077059,0.434242990204757,0.14964774719128082,0.9883534675114573,0.3581388553151484,0.5856687542753154
315,18.306,18.06,1.48,0.3730510499627346,0.4346357361224371,0.14809861980804298,0.989695147031843,0.35648791469204666,0.5883028271072104
316,18.367,18.11,1.4,0.3710449956768626,0.4350272507753657,0.1465956395026434,0.9909579447383986,0.35483932786800504,0.5909419122649854
317,18.448,18.17,1.3,0.3690404936540084,0.43541756722576985,0.1451397851974127,0.9921409298991131,0.3531940454210126,0.5935852050241163
318,18.469,18.22,1.42,0.36703859817558154,0.4358067180988556,0.14373198884389327,0.993243253976111,0.35155301510272063,0.5962318899994045
319,18.51,18.28,1.38,0.36504035562751186,0.43619473551676646,0.14237313468288276,0.9942641513800188,0.3499171812290976,0.5988811418430541
320,18.572,18.33,1.33,0.3630468038244937,0.43658165102447727,0.1410640585607657,0.9952029401039282,0.34828748406560145,0.6015321259602633
321,18.636,18.39,1.39,0.3610589713321767,0.436967495506814,0.13980554730296138,0.9960590222363886,0.34666485920729234,0.6041839992412333
322,18.675,18.44,1.43,0.3590778767880284,0.43735229909585543,0.1385983381448961,0.9968318843538794,0.34505023695432374,0.6068359108083955
323,18.738,18.5,1.4,0.3571045282216221,0.4377360910679842,0.13744311822065053,0.9975210977939009,0.3434445416832879,0.6094870027775464
324,18.819,18.55,1.36,0.3551399223751368,0.4381188997298515,0.1363405241093988,0.9981263188099787,0.3418486912149428,0.6121364110315153
325,18.859,18.61,1.47,0.353185044024895,0.43850075229258767,0.1352911414398266,0.9986472886097431,0.34026359617892205,0.6147832660049063
326,18.921,18.66,1.4,0.3512408653047903,0.4388816747337151,0.13429550455280145,0.9990838332770362,0.3386901593761101,0.6174266934783488
327,18.984,18.72,1.3,0.3493083450324871,0.4392616916463632,0.13335409622262223,0.9994358635788608,0.33712927513943874,0.6200658153806005
328,19.045,18.77,1.41,0.3473884280392919,0.43964082607555366,0.13246734743718114,0.9997033746579562,0.3355818286939193,0.6226997505967442
329,19.066,18.83,1.37,0.34548204450461956,0.44001909934145744,0.13163563723733754,0.9998864456119019,0.33404869551677113,0.6253276157806632
330,19.128,18.88,1.29,0.3435901092959919,0.44039653084963454,0.13085929261566076,0.9999852389600072,0.33253074069852423,0.6279485261700077
331,19.19,18.94,1.3,0.34171352131550314,0.44077313788837974,0.13013858847433957,1.0,0.3310288183059804,0.630561596401913
332,19.252,18.99,1.33,0.3398531628536678,0.441148935413379,0.12947374764158273,0.9999310560574679,0.32954377074793123,0.6331659413276307
333,19.313,19.05,1.29,0.33800989895156214,0.44152393581990335,0.12886494094546833,0.9997788156316871,0.32807642814453175,0.6357606768240924
334,19.355,19.1,1.24,0.33618457677214475,0.4418981487027992,0.12831228734402472,0.9995437674416934,0.32662760770122534,0.6383449206003472
335,19.396,19.16,1.36,0.3343780249816061,0.44227158060462435,0.12781585411027338,0.9992264793764185,0.3251981130881147,0.6409177929967926
336,19.458,19.21,1.28,0.3325910531415702,0.44264423475240994,0.12737565707097984,0.9988275973525832,0.3237887338256945,0.6434784177751186
337,19.561,19.27,1.18,0.3308244511129514,0.44301611078364395,0.12699166089788524,0.9983478440839276,0.3224002446778914,0.6460259228969352
338,19.581,19.32,1.28,0.3290789884722695,0.4433872044622007,0.12666377945019303,0.997788017765383,0.3210334050533922,0.6485594412891138
339,19.622,19.38,1.24,0.3273554139412306,0.44375750738503955,0.12639187616708153,0.9971489906758999,0.3196889584162717,0.6510781115939597
340,19.685,19.43,1.18,0.3256544548303903,0.44412700668060046,0.12617576450897147,0.9964317077038537,0.3183676317069327,0.6535810789025502
341,19.747,19.49,1.15,0.32397681649769616,0.4444956846999741,0.12601520844611963,0.9956371847993274,0.3170701347743625,0.6560674954698352
342,19.788,19.54,1.18,0.3223231818226782,0.44486351870209895,0.12590992299288403,0.9947665073580376,0.3157971598207078,0.6585365214102324
343,19.913,19.6,1.09,0.32069421069704057,0.4452304805343649,0.1258595747858502,0.9938208285419468,0.31454938085916073,0.6609873253725462
344,19.935,19.65,1.02,0.31909053953237926,0.4455965363101042,0.12586378270396661,0.9928013675415984,0.3133274531861169,0.6634190851931678
345,19.954,19.71,1.14,0.3175127807857189,0.44596164608455374,0.12592211852886143,0.9917094077850609,0.31213201286851616,0.6658309885266678
346,20.017,19.76,1.06,0.31596152250351867,0.44632576353094827,0.12603410764356293,0.9905462950981234,0.31096367624722093,0.668222233453031
347,20.079,19.82,0.97,0.3144373278847572,0.4466888356184321,0.12619922976787662,0.98931343582023,0.30982303945722245,0.6705920290609303
348,20.12,19.87,1.05,0.31294073486366897,0.4470508022934774,0.12641691972865376,0.9880122948806057,0.3087106779654254,0.67293959600658
349,20.16,19.93,1.03,0.31147225571269027,0.44741159616647874,0.1266865682631709,0.9866443938390645,0.3076271461267305,0.6752641670478722
350,20.222,19.98,0.98,0.3100323766661596,0.4477711422051649,0.12700752285384226,0.985211308896009,0.3065729767591065,0.6775649875537612
351,20.283,20.04,0.95,0.3086215575653008,0.448129357436512,0.12737908859246078,0.9837146688761619,0.3055486807383096,0.6798413159891656
352,20.344,20.09,1.0,0.30724023152498214,0.44848615065891834,0.12780052907211364,0.9821561531905824,0.30455474661289306,0.6820924243758658
353,20.387,20.15,0.93,0.30588880462273027,0.4488414221664424,0.12827106730492965,0.9805374897814112,0.3035916402401304,0.6843175987300357
354,20.447,20.2,0.86,0.30456765561047183,0.44919506348686966,0.12878988666390265,0.9788604530535104,0.30265980444344304,0.6865161394772382
355,20.528,20.26,0.98,0.30327713564947384,0.4495469571352972,0.12935613184715397,0.9771268617967926,0.30175965869188676,0.6886873618458665
356,20.549,20.31,0.89,0.3020175680689594,0.4498969763847964,0.1299689098631115,0.9753385771027125,0.3008915988022077,0.690830596240063
357,20.653,20.37,0.81,0.3007892481488681,0.45024498505557553,0.13062729103512677,0.9734975002781979,0.30005599666393934,0.6929451885931203
358,20.673,20.42,0.87,0.2995924429272071,0.45059083732395866,0.1313303100240042,0.9716055707603396,0.2992531999879643,0.6950305007022604
359,20.734,20.48,0.86,0.29842739103241117,0.45093437755238325,0.13207696686685083,0.9696647640352848,0.2984835320789308,0.6970859105455444
360,20.776,20.53,0.84,0.29729430254111056,0.45127544014144755,0.13286622803066983,0.9676770895647406,0.2977472916318505,0.6991108125816543
361,20.837,20.59,0.81,0.2961933588616795,0.45161384940488103,0.13369702747918355,0.9656445887232616,0.29704475255314994,0.7011046180334061
362,20.897,20.64,0.89,0.2951247126439171,0.45194941946817885,0.13456826775146763,0.9635693327491641,0.29637616380641274,0.7030667551559369
363,20.938,20.7,0.83,0.2940884877152118,0.4522819541915128,0.13547882105110545,0.9614534207115214,0.29574174928303476,0.7049966694905052
364,21.019,20.75,0.74,0.2930847790435557,0.45261124711738115,0.13642753034472294,0.959298977495287,0.2951417076980089,0.7068938241047853
365,21.08,20.81,0.87,0.29211365272779033,0.45293708144332445,0.13741321046890803,0.9571081518062243,0.2945762125110487,0.7087576998204309
366,21.122,20.86,0.8,0.2911751460154715,0.45325923001990664,0.13843464924469565,0.9548831141969144,0.29404541187324507,0.710587795428593
367,21.163,20.92,0.71,0.29026926734873554,0.4535774553740732,0.13949060859905646,0.9526260551145928,0.29354942859941585,0.7123836278940365
368,21.246,20.97,0.75,0.2893959964385177,0.4538915097579618,0.1405798256931684,0.9503391829708845,0.2930883601662728,0.7141447325484346
369,21.267,21.03,0.77,0.28855528436744143,0.45420113522320527,0.14170101405765956,0.9480247222327638,0.2926622787364906,0.7158706632732477
370,21.33,21.08,0.74,0.28774705372167364,0.4545060637206489,0.1428528647353887,0.9456849115333419,0.2922712312087042,0.7175609926724262
371,21.412,21.14,0.7,0.2869711987520028,0.4548060172252866,0.14403404743257475,0.9433220018005909,0.2919152392933949,0.7192153122350438
372,21.432,21.19,0.79,0.2862275855643544,0.45510070788611656,0.14524321167922635,0.9409382544017304,0.29159429961457406,0.7208332324877957
373,21.495,21.25,0.73,0.2855160523399212,0.4553898382005303,0.14647898799995532,0.9385359393006663,0.29130838383715035,0.7224143831371045
374,21.536,21.3,0.65,0.2848364095850622,0.45567310121273574,0.14773998909640743,0.9361173332255104,0.29105743881984464,0.7239584132004441
375,21.597,21.36,0.78,0.2841884404110983,0.4559501807356371,0.14902481104266918,0.9336847178428993,0.29084138679349875,0.7254649911264255
376,21.659,21.41,0.74,0.2835719008441148,0.45622075159550496,0.1503320344950816,0.9312403779356815,0.29066012556460274,0.7269338049031472
377,21.762,21.47,0.67,0.2829865201648444,0.45648447989870244,0.15166022591781902,0.928786599580707,0.29051352874383274,0.7283645621543481
378,21.782,21.52,0.7,0.2824320012786626,0.45674102331971966,0.15300793882530578,0.926325668324108,0.2904014459993669,0.729756990222873
379,21.843,21.58,0.72,0.2819080211156808,0.4569900314097419,0.1543737150421815,0.9238598673523131,0.2903237033347367,0.7311108362408153
380,21.885,21.63,0.66,0.28141423106088603,0.4572311459249025,0.15575608598129997,0.9213914756576224,0.290280103390942,0.7324258671855034
381,21.946,21.69,0.61,0.280950257414226,0.4574640011732909,0.1571535739401732,0.9189227661973117,0.29027042577251927,0.7337018699203849
382,21.987,21.74,0.72,0.2805157018804559,0.4576882243797767,0.15856469341625112,0.9164560040451292,0.290294427397198,0.7349386512197462
383,22.049,21.8,0.67,0.280110142088464,0.45790343606773043,0.15998795244140185,0.913993444533862,0.2903518428687263,0.7361360377761145
384,22.152,21.85,0.59,0.2797331321396909,0.4581092504567339,0.1614218539359068,0.9115373313875056,0.2904423848723883,0.7372938761891444
385,22.171,21.91,0.72,0.27938420318516677,0.45830527587538006,0.16286489708221222,0.9090898948415346,0.29056574459270185,0.7384120329347748
386,22.211,21.96,0.71,0.27906286403062097,0.458491115188247,0.16431557871857638,0.906653349749906,0.29072159215275356,0.7394903943134813
387,22.273,22.02,0.65,0.2787686017690527,0.4586663662361382,0.16577239475252903,0.9042298936778989,0.2909095770746153,0.7405288663765867
388,22.316,22.07,0.64,0.27850088244007826,0.4588306222887474,0.16723384159359486,0.9018217049808499,0.2911293287602641,0.7415273748297433
389,22.376,22.13,0.69,0.2782591517153015,0.4589834725089846,0.16869841760413887,0.8994309408700452,0.2913804569924323,0.7424858649127533
390,22.519,22.18,0.63,0.27804283560890497,0.45912450242823905,0.17016462456672082,0.8970597354679423,0.29166255245480033,0.7434043012549413
391,22.541,22.24,0.56,0.27785134121261,0.45925329443188356,0.1716309691660925,0.8947101978552963,0.2919751872709072,0.7442826677054629
392,22.562,22.29,0.66,0.27768405745409525,0.45936942825441635,0.17309596448385312,0.8923844101128557,0.29231791556110015,0.7451209671381183
393,22.584,22.35,0.59,0.2775403558778854,0.45947248148374387,0.17455813150372382,0.8900844253602587,0.29269027401678344,0.7459192212303914
394,22.643,22.4,0.53,0.27741959144765005,0.45956203007419677,0.17601600062534997,0.8878122657947431,0.2930917824911511,0.7466774702165713
395,22.705,22.46,0.64,0.2773211033687716,0.45963764886794434,0.1774681131844501,0.885569920732394,0.29352194460551895,0.7473957726149223
396,22.766,22.51,0.65,0.2772442159299797,0.459698912124494,0.17891302297701372,0.8833593446548548,0.2939802483703004,0.7480742049289989
397,22.849,22.57,0.61,0.2771882393627952,0.45974539405798026,0.18034929778508982,0.8811824552647829,0.29446616681961035,0.748712861323377
398,22.869,22.62,0.61,0.2771524707174663,0.45977666938200873,0.1817755209014231,0.8790411315539054,0.294979158658445,0.7493118532743029
399,22.93,22.68,0.68,0.2771361947540323,0.45979231386193514,0.18319029264984943,0.8769372118882387,0.2955186689213855,0.7498713091958867
400,22.971,22.73,0.64,0.27713868484711995,0.4597919048745442,0.18459223189812402,0.87487249211553,0.2960841296417829,0.7503913740425966
401,23.033,22.79,0.59,0.277159203903069,0.4597750219751308,0.1859799775597916,0.872848723700071,0.29667496053038117,0.750872208889021
402,23.095,22.84,0.71,0.2771970052879758,0.4597412474719976,0.18735219008174372,0.8708676118898908,0.29729056966233425,0.7513139904880983
403,23.157,22.9,0.64,0.27725133376525013,0.45969016700833604,0.1887075529141737,0.8689308139211213,0.2979303541715525,0.7517169108092282
404,23.218,22.95,0.56,0.2773214264412774,0.4596213701513961,0.19004477395966018,0.8670399372642408,0.29859370095129945,0.7520811765578899
405,23.259,23.01,0.64,0.2774065137177802,0.4595344509887803,0.19136258699805656,0.8651965379170199,0.2992799873599233,0.7524070086785847
406,23.3,23.06,0.67,0.277505820249468,0.4594290087315976,0.1926597530838149,0.8634021187491913,0.2999885819305705,0.7526946418430814
407,23.362,23.12,0.67,0.2776185659055669,0.45930464832408086,0.1939350619124012,0.8616581279039305,0.30071884508366775,0.7529443239261595
408,23.425,23.17,0.68,0.2777439667338037,0.45916098105915554,0.19518733315253092,0.8599659572611281,0.301470129840916,0.7531563154712618
409,23.465,23.23,0.8,0.2778812359254042,0.4589976251993874,0.1964154177410523,0.8583269409672484,0.3022417825395283,0.7533308891485608
410,23.525,23.28,0.77,0.2780295847796716,0.45881420660267985,0.19761819913744263,0.8567423540362853,0.3030331435454827,0.7534683292079206
411,23.588,23.34,0.72,0.27818822366674606,0.45861035935203254,0.19879459453503587,0.8552134110260505,0.3038435479646158,0.7535689309291826
412,23.651,23.39,0.89,0.27835636298719596,0.45838572638862546,0.19994355602623534,0.8537412647937721,0.30467232635045666,0.7536330000721069
413,23.692,23.45,0.84,0.2785332141271528,0.4581399601474413,0.20106407171911642,0.8523270053347444,0.3055188054077703,0.7536608523281919
414,23.753,23.5,0.8,0.27871799040776596,0.4578727231945951,0.2021551668030403,0.8509716587073939,0.30638230869084454,0.7536528127764882
415,23.793,23.56,0.86,0.27890990802780874,0.4575836888655164,0.2032159045612075,0.8496761860475973,0.30726215729561507,0.7536092153453654
416,23.855,23.61,0.86,0.2791081869983327,0.45727254190306693,0.20424538732846056,0.848441482674442,0.30815767054479265,0.7535304022819166
417,23.958,23.67,0.86,0.27931205206833365,0.45693897909456443,0.20524275739301723,0.84726837728902,0.3090681666651943,0.7534167236304394
418,23.979,23.72,0.85,0.2795207336404472,0.4565827099065812,0.20620719784105523,0.8461576312674303,0.3099929634565035,0.7532685367212582
419,24.04,23.78,0.98,0.279733468675722,0.45620345711633903,0.20713793334320482,0.8451099380489351,0.31093137895070233,0.7530862056709728
420,24.082,23.83,0.95,0.2799495015865553,0.45580095743847826,0.2080342308821206,0.844125922620023,0.31188273206144906,0.7528701008950218
421,24.123,23.89,0.88,0.28016808511691893,0.4553749621459281,0.20889540042044158,0.8432061410948971,0.3128463432227228,0.7526205986332646
422,24.185,23.94,1.06,0.2803884812090573,0.454925237683571,0.20972079550858633,0.8423510803927263,0.3138215350161222,0.7523380804891442
423,24.248,24.0,1.03,0.28060996185590487,0.4544515662733679,0.21050981383201087,0.8415611580117508,0.31480763278628954,0.7520229329828817
424,24.328,24.05,0.99,0.2808318099385449,0.45395374650963005,0.21126189769781548,0.8408367218999758,0.3158039652440035,0.7516755471191318
425,24.349,24.11,1.04,0.2810533200480935,0.4534315939432022,0.21197653446091422,0.8401780504216826,0.31680986505657455,0.7512963179694776
426,24.451,24.16,1.08,0.28127379929147006,0.45288494165338433,0.21265325689035744,0.8395853524184171,0.3178246694252646,0.7508856442699641
427,24.472,24.22,1.05,0.2814925680806028,0.4523136408064158,0.21329164347671845,0.8390587673626808,0.3188477206495364,0.7504439280336882
428,24.532,24.27,1.0,0.2817089609047029,0.45171756119933165,0.2138913186816298,0.8385983656023481,0.3198783666779968,0.7499715741783647
429,24.593,24.33,1.12,0.2819223270852912,0.4510965917880379,0.214451953130589,0.8382041486938221,0.32091596164594854,0.7494689901686579
430,24.716,24.38,1.07,0.28213203151369565,0.4504506411984966,0.2149732637501591,0.8378760498219201,0.3219598663995147,0.7489365856728933
431,24.736,24.44,1.0,0.2823374553707509,0.44977963821995587,0.21545501385068858,0.8376139343044435,0.32300944900633055,0.7483747722335674
432,24.757,24.49,1.14,0.28253799682843583,0.4490835322791992,0.21589701315565624,0.8374176001793673,0.32406408525283825,0.7477839629508982
433,24.798,24.55,1.14,0.2827330717331947,0.4483622938948256,0.21629911777876995,0.8372867788725721,0.3251231591282513,0.7471645721785614
434,24.839,24.6,1.1,0.28292211427069436,0.4476159151106364,0.2166612301500662,0.8372211359438311,0.3261860632953005,0.7465170152307858
435,24.9,24.66,1.12,0.28310457761177343,0.44684440990735264,0.2169832988924665,0.8372202719083657,0.32725219954792284,0.7458417081000644
436,24.961,24.71,1.16,0.2832799345393397,0.44604781459206333,0.2172653186504942,0.8372837231307778,0.32832097925613296,0.745139067184672
437,25.087,24.77,1.11,0.2834476780560044,0.44522618816495113,0.21750732987307098,0.8374109627877099,0.32939182379838217,0.7444095090251066
438,25.107,24.82,1.06,0.28360732197226896,0.44437961266297565,0.2177094185524057,0.8376014018953828,0.33046416498176356,0.7436534500485824
439,25.127,24.88,1.16,0.2837584014751059,0.44350819348038306,0.21787171592097207,0.8378543903981407,0.3315374454504452,0.742871306320777
440,25.168,24.93,1.08,0.2839004736767934,0.4426120596660874,0.21799439810852803,0.8381692183141999,0.33261111908273105,0.742063493304072
441,25.229,24.99,0.98,0.28403311814388055,0.44169136419812044,0.21807768576108408,0.838545116934848,0.33368465137714487,0.7412304256215457
442,25.311,25.04,1.09,0.28415593740616957,0.4407462842354788,0.21812184362366785,0.8389812600734554,0.33475751982792257,0.7403725168259369
443,25.332,25.1,1.09,0.28426855744561086,0.4397770213477696,0.21812718008867124,0.8394767653608153,0.3358292142902755,0.7394901791727406
444,25.434,25.15,1.04,0.2843706281650056,0.43878380172310294,0.21809404671147656,0.8400306955835776,0.3368992373357439,0.7385838233966561
445,25.455,25.21,1.04,0.28446182383639573,0.43776687635473954,0.2180228376948702,0.8406420600629156,0.3379671045979225,0.737653858490711
446,25.496,25.26,1.1,0.28454184352900336,0.43672652120709243,0.21791398934351283,0.8413098160710349,0.3390323451088306,0.7367006914874789
447,25.558,25.32,1.04,0.2846104115165879,0.43566303736173656,0.21776797948956897,0.8420328702834166,0.34009450162620275,0.7357247272418987
448,25.62,25.37,0.99,0.28466727766411243,0.4345767511441088,0.21758532689053392,0.8428100802647417,0.3411531309519774,0.7347263682154346
449,25.681,25.43,1.12,0.2847122177936412,0.43346801423159936,0.21736659060028957,0.8436402559863496,0.34220780424225455,0.7337060142615798
450,25.722,25.48,1.04,0.2847450340294188,0.4323372037437277,0.21711236931444286,0.8445221613729661,0.343258107308985,0.7326640624129348
451,25.783,25.54,0.95,0.2847655551221135,0.43118472231507615,0.21682330069098754,0.8454545158764367,0.3443036409136369,0.7316009066702862
452,25.845,25.59,1.02,0.2847736367522244,0.4300109981516392,0.21650006064723631,0.8464359960744411,0.34534402105307194,0.7305169377942179
453,25.907,25.65,1.0,0.2847691618126734,0.42881648507120423,0.21614336263386433,0.8474652372925036,0.3463788792378419,0.7294125430998178
454,25.949,25.7,0.97,0.2847520406706113,0.427601662528317,0.2157539568868505,0.8485408352478482,0.34740786276306385,0.7282881062551251
455,26.01,25.76,0.96,0.28472221140844317,0.42636703562434597,0.21533262965806535,0.8496613477137184,0.348430634971968,0.7271440070840972
456,26.052,25.81,1.04,0.28467964004403323,0.425113135103175,0.21488020242520575,0.8508252962027735,0.34944687551215026,0.7259806213749824
457,26.154,25.87,0.99,0.2846243207300057,0.423840517333064,0.21439753108177012,0.8520311676680555,0.35045628058452033,0.724798320695054
458,26.175,25.92,0.93,0.28455627593204247,0.4225497642752108,0.21388550510779236,0.853277416219822,0.35145856318490315,0.7235974722128043
459,26.217,25.98,1.07,0.28447555658607776,0.4212414834395588,0.21334504672208982,0.8545624648563449,0.35245345333823397,0.7223784385287962
460,26.278,26.03,1.01,0.2843822422342972,0.4199163078283963,0.212777110016778,0.8558847072067046,0.35344069832527636,0.7211415775164459
461,26.36,26.09,0.95,0.28427644113985817,0.4185748958683111,0.212182680074687,0.8572425092838106,0.35442006290177963,0.7198872421740775
462,26.381,26.14,1.01,0.28415829038025253,0.41721793133107526,0.2115627720700204,0.8586342112465428,0.3553913295099846,0.7186157804895823
463,26.442,26.2,0.99,0.28402795591925856,0.415846123243985,0.21091843035227,0.8600581291707051,0.3563542984823754,0.7173275353189275
464,26.545,26.25,0.96,0.283885632657466,0.41446020579005727,0.21025072751321575,0.8615125568290242,0.3573087882375471,0.7160228442796649
465,26.564,26.31,0.93,0.2837315444613771,0.41306093819836126,0.20956076343681718,0.8629957674805427,0.3582546354680114,0.7147020396605752
466,26.625,26.36,1.04,0.28356594417107933,0.4116491046246911,0.208849664331869,0.8645060156696085,0.3591916953197112,0.7133654483485198
467,26.666,26.42,1.0,0.2833891135864715,0.4102255140227192,0.2081185817474096,0.8660415390343793,0.3601198415629629,0.7120133917734699
468,26.706,26.47,0.93,0.2832013634320033,0.4087910000056872,0.2073686915710088,0.8676005601244513,0.36103896675449987,0.7106461858725552
469,26.768,26.53,1.1,0.2830030332998714,0.40734642069861604,0.2066011930101873,0.8691812882268954,0.361948982390265,0.7092641410738105
470,26.831,26.58,1.04,0.2827944915716105,0.4058926585809314,0.2058173075573791,0.8707819211996575,0.3628498190485948,0.7078675623001399
471,26.893,26.64,0.99,0.2825761353180208,0.40443062031932825,0.205018277939075,0.8724006473108162,0.3637414265234428,0.7064567489939239
472,26.955,26.69,1.06,0.2823483901773757,0.4029612365906615,0.20420536705010284,0.8740356470815995,0.36462377394729484,0.705031995162587
473,26.996,26.75,1.07,0.2821117102118686,0.40148546189459616,0.20337985687439492,0.8756850951303622,0.36549684990345194,0.7035935894452298
474,27.079,26.8,1.03,0.28186657774227725,0.40000427435564007,0.20254304739397425,0.8773471620140807,0.3663606625273569,0.7021418152002389
475,27.101,26.86,0.99,0.2816135031608435,0.39851867551406367,0.20169625548813883,0.8790200160634719,0.3672152395966293,0.7006769506136651
476,27.162,26.91,1.08,0.2813530247223682,0.3970296901051246,0.2008408138249477,0.8807018252075597,0.36806062860945343,0.6991992688280562
477,27.264,26.97,1.03,0.28108570831352686,0.39553836582592816,0.19997806974720006,0.8823907587832615,0.3688968968509428,0.6977090380913054
478,27.284,27.02,0.96,0.2808121472004117,0.3940457730891563,0.19910938415517782,0.8840849893253089,0.3697241314470534,0.6962065219249601
479,27.325,27.08,1.13,0.28053296175429493,0.3925530047627983,0.19823613038846602,0.8857826943316315,0.3705424394055829,0.6946919793113108
480,27.366,27.13,1.1,0.28024879915559936,0.3910611758949053,0.19735969310916165,0.8874820579993139,0.37135194764374707,0.6931656648984852
481,27.427,27.19,1.06,0.27996033307605034,0.3895714234222854,0.1964814671886222,0.889181272926593,0.3721528030018078,0.6916278292227854
482,27.489,27.24,1.12,0.279668263338987,0.38808490586200006,0.1956028565995221,0.890878541777238,0.37294517224222995,0.6900787189474952
483,27.55,27.3,1.15,0.27937331555783007,0.38660280298445737,0.19472527331451517,0.8925720789047851,0.3737292420338822,0.6885185771172642
484,27.654,27.35,1.14,0.2790762407527583,0.38512631546678544,0.19385013621248445,0.8942601119349104,0.3745052189208266,0.6869476434270634
485,27.674,27.41,1.1,0.27877781494569137,0.3836566645250809,0.19297886999324,0.8959408833045432,0.37527332927526225,0.6853661545046552
486,27.714,27.46,1.2,0.27847883873370427,0.3821950915241128,0.1921129041015166,0.8976126517563402,0.3760338192342086,0.683774344205475
487,27.755,27.52,1.14,0.2781801368410039,0.38074285756309306,0.19125367166116675,0.8992736937870013,0.3767869546195388,0.6821724439186928
488,27.817,27.57,1.06,0.2778825576496018,0.3793012430361426,0.19040260842050727,0.9009223050477322,0.3775330208409786,0.6805606828830696
489,27.878,27.63,1.21,0.27758697270880206,0.37787154716609,0.1895611517098192,0.902556801694994,0.378272322781684,0.6789392885110657
490,27.94,27.68,1.21,0.27729427622360997,0.37645508751021906,0.18873073941199792,0.9041755216896745,0.3790051846659981,0.677308486719525
491,28.002,27.74,1.18,0.2770053845221352,0.37505319943656457,0.18791280894720094,0.9057768260431039,0.37973194990895837,0.6756685022652336
492,28.043,27.79,1.23,0.2767212355020203,0.37366723556939185,0.18710879627196972,0.9073591000091262,0.3804529809471241,0.6740195590836355
493,28.085,27.85,1.3,0.2764427880558893,0.3722985652025533,0.1863201348928245,0.9089207542224476,0.38116865905033565,0.6723618806288958
494,28.148,27.9,1.28,0.2761710214758024,0.3709485736794424,0.1855482548939873,0.9104602257842397,0.38187938411406896,0.670695690213376
495,28.21,27.96,1.24,0.2759069348367113,0.36961866173832175,0.1847945819787137,0.9119759792963462,0.3825855744321168,0.6690212113445463
496,28.271,28.01,1.37,0.2756515463589067,0.36831024482194186,0.18406053652362966,0.9134665078455633,0.3832876664493947,0.6673386680573001
497,28.311,28.07,1.31,0.2754058927494557,0.3670247523505162,0.18334753264540915,0.9149303339395274,0.38398611449473274,0.6656482852395691
498,28.392,28.12,1.22,0.2751710285226339,0.3657636269572601,0.18265697727907285,0.9163660103958061,0.38468139049357225,0.6639502889491073
499,28.413,28.18,1.33,0.2749480252993691,0.364528323685807,0.18199026926711676,0.9177721211859172,0.3853739836605161,0.6622449067192924
500,28.474,28.23,1.31,0.2747379710857264,0.3633203091488916,0.18134879845865748,0.9191472822361068,0.38606440017170623,0.6605323678518172
501,28.535,28.29,1.28,0.27454196953046833,0.36214106064776114,0.18073394481787267,0.9204901421865977,0.386753162816991,0.6588129036942706
502,28.577,28.34,1.32,0.27436113916169236,0.3609920652519064,0.18014707754121007,0.9217993831106253,0.38744081063183294,0.657086747900759
503,28.637,28.4,1.39,0.2741966126025135,0.3598748188388644,0.1795895541830807,0.9230737211940243,0.38812789850890655,0.6553541366737614
504,28.74,28.45,1.36,0.27404953576574154,0.35879082509395716,0.17906271978996238,0.9243119073756373,0.38881499678935444,0.6536153089854233
505,28.76,28.51,1.33,0.27392106702751057,0.3577415944699465,0.17856790604295378,0.925512727948512,0.3895026908337047,0.6518705067766042
506,28.801,28.56,1.47,0.27381237637983213,0.356728643106741,0.1781064304088619,0.9266750051217143,0.3901915805725042,0.650119975132152
507,28.862,28.62,1.41,0.27372464456207024,0.3557534917114902,0.17767959529995575,0.9277975975424845,0.39088228003678616,0.6483639624310413
508,28.923,28.67,1.34,0.2736590621713716,0.35481766439963175,0.17728868724258098,0.9288794007783644,0.39157541686854724,0.6466027204701723
509,28.984,28.73,1.44,0.2736168287521183,0.35392268749770533,0.176934976054874,0.929919347758945,0.39227163181147195,0.6448365045607611
510,29.025,28.78,1.43,0.2735991518645207,0.35307008830896086,0.1766197140338491,0.9309164091769961,0.3929715781821851,0.6430655735963623
511,29.106,28.84,1.37,0.2736072461325144,0.352261393842973,0.17634413515210692,0.9318695938489802,0.3936759213223382,0.6412901900917629
512,29.126,28.89,1.35,0.2736423322711516,0.35149812951067705,0.17610945426422894,0.9327779490354248,0.3943853380318446,0.6395106201922094
513,29.188,28.95,1.44,0.2737056360936913,0.3507818177864675,0.17591686632263864,0.9336405607221874,0.3951005159835835,0.6377271336525705
514,29.248,29.0,1.41,0.273798387498615,0.3501139768391534,0.17576754560250477,0.9344565538640255,0.39582215311989577,0.6359400037861603
515,29.31,29.06,1.37,0.2739218194368243,0.34949611913366396,0.17566264493519823,0.9352250925919589,0.3965509570311795,0.6341495073831308
516,29.351,29.11,1.53,0.27407716685930744,0.348929750005472,0.17560329494983523,0.9359453803858294,0.3972876443168902,0.6323559245985506
517,29.412,29.17,1.48,0.27426566564560534,0.3484163662097657,0.1755906033224971,0.93661666021335,0.3980329399292784,0.630559538810487
518,29.475,29.22,1.41,0.2744885515134646,0.34795745444746773,0.17562565403276234,0.937238214636891,0.39878757650024244,0.6287606364486624
519,29.516,29.28,1.51,0.27474705891013806,0.3475544898702941,0.1757095066271955,0.9378093658893737,0.3995522936517418,0.6269595067945093
520,29.577,29.33,1.51,0.27504241988588213,0.3472089345671258,0.17584319548947464,0.9383294759207851,0.40032783729028865,0.6251564417536865
521,29.64,29.39,1.47,0.27537586295030186,0.3469222360340093,0.17602772911694237,0.938797946416907,0.4011149588860852,0.6233517356024361
522,29.701,29.44,1.46,0.2757486119122805,0.34669582563017093,0.17626408940347726,0.9392142187917791,0.40191441473740763,0.6215456847095061
523,29.761,29.5,1.53,0.27616188470429637,0.34653111702253775,0.17655323092867828,0.9395777741553195,0.40272696522087365,0.6197385872356227
524,29.842,29.55,1.47,0.27661689219200436,0.3464295046213402,0.1768960802534734,0.9398881332573116,0.40355337402826597,0.6179307428126576
525,29.863,29.61,1.4,0.2771148369700262,0.3463923620094261,0.1772935352224007,0.9401448564086959,0.4043944073905971,0.6161224522047994
526,29.903,29.66,1.57,0.2776569121449556,0.34642104036795185,0.17774646427293192,0.9403475433808273,0.4052508332901069,0.614314016954173
527,29.965,29.72,1.53,0.278244300106636,0.3465168669011375,0.1782557057522887,0.940495833283144,0.40612342066088547,0.612505739013451
528,30.006,29.77,1.47,0.27887817128881076,0.346681143262773,0.17882206724220392,0.9405894044196849,0.4070129385788148,0.6106979203681356
529,30.068,29.83,1.55,0.27955968292028993,0.3469151439871888,0.17944632489198564,0.9406279741250954,0.407920155441549,0.6088908626512516
530,30.13,29.88,1.57,0.2802899777678449,0.3472201149273587,0.1801292227601604,0.9406112985810825,0.40884583813930886,0.6070848667532135
531,30.254,29.94,1.56,0.28107018287214536,0.3475972717026979,0.1808714721650022,0.9405391726143781,0.40979075121732017,0.6052802324297138
532,30.275,29.99,1.55,0.2819014082781573,0.3480477981590037,0.18167375104436845,0.940411429477141,0.4107556560307753,0.6034772579106431
533,30.316,30.05,1.64,0.2827847457615237,0.34857284484293155,0.18253670332542074,0.9402279406104533,0.41174130989325536,0.6016762395131179
534,30.356,30.1,1.59,0.28372126755254673,0.3491735274933544,0.18346093830500967,0.9399886153912111,0.41274846521961767,0.5998774712616347
535,30.418,30.16,1.5,0.2847120250594765,0.34985092555192016,0.18444703004170532,0.9396934008623241,0.4137778686644098,0.5980812445182234
536,30.48,30.21,1.64,0.2857580475928748,0.3506060806950886,0.18549551676061563,0.9393422814458198,0.41483026025692527,0.5962878476252785
537,30.603,30.27,1.57,0.28686034109286707,0.351439995389901,0.1866069002722221,0.9389352786382728,0.4159063725340476,0.5944975655635355
538,30.623,30.32,1.52,0.2880198868611125,0.3523536314757167,0.1877816454064253,0.9384724506880879,0.4170069296720429,0.592710679627467
539,30.643,30.38,1.59,0.2892376402993217,0.35334790877414834,0.1890201794627756,0.9379538922546843,0.4181326466184627,0.5909274671201399
540,30.684,30.43,1.6,0.29051452965615326,0.35442370372936705,0.19032289167760455,0.9373797340503096,0.4192842282253282,0.5891482010692289
541,30.726,30.49,1.59,0.2918514547843399,0.3555818480808104,0.19169013270863786,0.9367501424656481,0.4204623683847654,0.5873731499655703
542,30.787,30.54,1.57,0.2932492859099107,0.356823127570185,0.19312221413769312,0.9360653191804057,0.42166774916827776,0.5856025775254388
543,30.847,30.6,1.65,0.29470886241539185,0.35814828068455573,0.19461940799217434,0.9353255007598277,0.42290103997085954,0.5838367424776048
544,30.95,30.65,1.59,0.2962309916388986,0.3595579974372235,0.1961819462862482,0.9345309582377539,0.42416289666119855,0.5820758983761141
545,30.97,30.71,1.51,0.29781644769106547,0.36105291818799956,0.19781002058277802,0.9336819966864244,0.4254539607392493,0.5803202934395997
546,31.011,30.76,1.65,0.29946597029178856,0.3626336325044128,0.19950378157726545,0.9327789547728956,0.42677485850248037,0.5785701704177899
547,31.052,30.82,1.58,0.30118026362877554,0.36430067806531574,0.20126333870516652,0.9318222043017265,0.42812620022211795,0.5768257664857324
548,31.114,30.87,1.51,0.3029599952399047,0.36605453960830214,0.20308875977389054,0.9308121497437682,0.42950857933069136,0.5750873131661912
549,31.175,30.93,1.54,0.30480579492138393,0.3678956479223332,0.20498007062047724,0.9297492277516392,0.43092257162217884,0.5733550362805684
550,31.216,30.98,1.57,0.3067182536636847,0.36982437888693237,0.20693725479553837,0.928633906663459,0.4323687344660394,0.571629155928492
551,31.318,31.04,1.55,0.308697922617214,0.37184105255920036,0.20896025327378573,0.9274666859970943,0.43384760603638056,0.5699098864959915
552,31.338,31.09,1.52,0.31074531208966744,0.373945932309761,0.21104896419141086,0.9262480959373318,0.4353597045574679,0.5681974366920247
553,31.399,31.15,1.61,0.31286089057697336,0.3761392240086226,0.21320324261062676,0.9249786968182295,0.4369055275667495,0.5664920096129521
554,31.44,31.2,1.55,0.31504508382971375,0.37842107526181323,0.2154229003117863,0.9236590786025918,0.43848555119656296,0.5647938028343485
555,31.503,31.26,1.48,0.31729827395688476,0.3807915746994996,0.21770770561360125,0.9222898603601843,0.44010022947569216,0.5631030085293703
556,31.544,31.31,1.62,0.31962079856885117,0.38325075131617203,0.22005738322209753,0.9208716897459794,0.4417499936519434,0.5614198136127508
557,31.604,31.37,1.57,0.32201294996133206,0.38579857386334115,0.22247161410908406,0.9194052424793916,0.4434352515369047,0.5597443999093993
558,31.687,31.42,1.51,0.32447497434223826,0.3884349502950893,0.22495003542112813,0.917891221824989,0.44515638687402725,0.5580769443465202
559,31.727,31.48,1.54,0.32700707110313787,0.39115972726677495,0.22749224042032373,0.9163303580745419,0.44691375873115396,0.5564176191680653
560,31.79,31.53,1.54,0.32960939213707546,0.39397268968714944,0.2300977784584911,0.914723408029546,0.4487077009186102,0.5547665921700948
561,31.849,31.59,1.49,0.3322820412044231,0.39687356032405596,0.23276615498677572,0.9130711544826544,0.45053852143394063,0.5531240269553843
562,31.891,31.64,1.46,0.33502507334837706,0.399861999463781,0.23549683160281143,0.9113744056959493,0.4524065019343309,0.5514900832054382
563,31.932,31.7,1.57,0.3378384943616172,0.4029376046240764,0.23828922613765477,0.9096339948736616,0.4543118972376895,0.5498649169679237
564,32.055,31.75,1.52,0.34072226030553615,0.40609991032084003,0.2411427127846681,0.9078507796267093,0.4562549348533043,0.5482486809573692
565,32.075,31.81,1.44,0.3436762770833236,0.40934838788839456,0.2440566222724621,0.9060256414262416,0.45823581454292883,0.5466415248668441
566,32.116,31.86,1.56,0.34670040006808284,0.4126824453532396,0.24703024208391391,0.9041594850432647,0.4602547079131146,0.545043595688214
567,32.177,31.92,1.54,0.34979443378706376,0.416101427361069,0.2500628167231695,0.9022532379714618,0.4623117580395795,0.5434550380385007
568,32.24,31.97,1.47,0.3529581316630105,0.41960461515678027,0.25315354803236656,0.9003078498305195,0.46440707912436363,0.5418759944899104
569,32.302,32.03,1.49,0.3561911958135335,0.42319122661720654,0.2563015955595011,0.8983242917477939,0.46654075618649254,0.5403066059011583
570,32.323,32.08,1.52,0.35949327690932564,0.4268604163363256,0.25950607697849154,0.8963035557167908,0.4687128447868325,0.5387470117476642
571,32.426,32.14,1.48,0.3628639740919678,0.4306112757626862,0.26276606856222584,0.8942466539313533,0.47092337078778057,0.5371973504481325
572,32.447,32.19,1.42,0.3663028349519828,0.4344428333887719,0.26608060570922865,0.8921546180946055,0.47317233014836024,0.5356577596850448
573,32.489,32.25,1.53,0.36980935556768907,0.43835405499205937,0.26944868352448514,0.8900284987016716,0.4754596887552234,0.5341283767166072
574,32.55,32.3,1.48,0.3733829806052791,0.44234384392757375,0.2728692574549015,0.8878693642950595,0.47778538228997935,0.5326093386776715
575,32.592,32.36,1.41,0.3770231034804095,0.4464110414717792,0.27634124397990095,0.8856783006912866,0.4801493161331941,0.5311007828670927
576,32.653,32.41,1.54,0.3807290665814465,0.45055442721764233,0.279863521357763,0.8834564101768256,0.4825513653053288,0.5296028470189275
577,32.716,32.47,1.55,0.38450016155439,0.4547727195206594,0.2834349304284542,0.8812048106709636,0.4849913744448257,0.5281156695548385
578,32.798,32.52,1.51,0.3883356296493747,0.45906457599555905,0.28705427547370727,0.8789246348529994,0.4874691578234966,0.5266393898151491
579,32.819,32.58,1.52,0.3922346621285303,0.46342859406334574,0.29072032513484464,0.87661702925161,0.4899844993993307,0.5251741482660962
580,32.88,32.63,1.57,0.3961964007348483,0.46786331154832056,0.2944318133884355,0.8742831532949562,0.4925371529068232,0.523720086680822
581,32.941,32.69,1.52,0.4002199382215912,0.4723672073246837,0.298187440579554,0.8719241783206617,0.49512684198491536,0.5222773482916382
582,33.025,32.74,1.47,0.404304318941667,0.47693870201229116,0.3019858745122341,0.8695412865450313,0.497753260342591,0.5208460779111785
583,33.044,32.8,1.58,0.4084485394962692,0.4815761587211561,0.30582575159662373,0.8671356699908784,0.5004160719621265,0.5194264220202246
584,33.147,32.85,1.5,0.41265154944196625,0.4862778838442988,0.30970567805226906,0.8647085293733059,0.5031149113399128,0.5180185288201606
585,33.168,32.91,1.43,0.41691225205529786,0.49104212789854146,0.31362423116685023,0.8622610729428282,0.5058493837646947,0.5166225482481973
586,33.209,32.96,1.55,0.4212295051538097,0.4958670864128154,0.31757996060950155,0.8597945152854743,0.50861906563297,0.5152386319536468
587,33.27,33.02,1.55,0.4256021219723348,0.5007509008634775,0.321571389797595,0.8573100760799589,0.5114235048012068,0.5138669332336778
588,33.311,33.07,1.53,0.4300288720932091,0.5056916596560576,0.32559701731553053,0.8548089788126535,0.514262220974426,0.5125076069272011
589,33.393,33.13,1.54,0.4345084824289781,0.5106873991528296,0.32965531838357187,0.8522924494520575,0.5171347061306144,0.5111608092657971
590,33.433,33.18,1.62,0.43903963825604314,0.5157361047456303,0.3337447463741848,0.849761715085557,0.520040424980378,0.5098266976807513
591,33.514,33.24,1.58,0.4436209842976121,0.5208357119733568,0.33786373437289846,0.8472180025220574,0.5229788154612142,0.5085054305654081
592,33.534,33.29,1.53,0.44825112585426585,0.5259841076835696,0.3420106967804859,0.8446625368643714,0.525949289265743,0.507197166992273
593,33.596,33.35,1.67,0.4529286299804046,0.5311791312376448,0.34618403095317685,0.8420965400552459,0.5289512324031969,0.5059020663845343
594,33.658,33.4,1.6,0.45765202670478855,0.5364185757589365,0.35038211887758597,0.839521229400807,0.5319840057934199,0.5046202881418905
595,33.721,33.46,1.53,0.462419810293332,0.5417001894234192,0.35460332887700835,0.836937816075155,0.5350469458925712,0.5033519912207626
596,33.763,33.51,1.61,0.46723044055224416,0.5470216767922985,0.358846017345687,0.8343475036099035,0.5381393653496586,0.5020973336690963
597,33.805,33.57,1.62,0.47208234416955414,0.552380700186054,0.3631085305076505,0.8317514863725499,0.5412605536929592,0.5008564721160492
598,33.887,33.62,1.61,0.47697391609299594,0.5577748810993477,0.3673892061967579,0.8291509480376181,0.5444097780452799,0.4996295612169902
599,33.949,33.68,1.62,0.4819035209421552,0.5632018016562084,0.3716863756545831,0.8265470600545078,0.5475862838669092,0.498416753054459
600,33.99,33.73,1.71,0.48686949445269845,0.5686590061049266,0.3759983653427004,0.8239409801160206,0.5507892957250277,0.497218196495923
601,34.03,33.79,1.69,0.4918701449504481,0.5741440023520961,0.38032349876585514,0.8213338506315031,0.5540180180882808,0.49603403650934846
602,34.092,33.84,1.66,0.49690375485302785,0.5796542635352228,0.38466009830246867,0.8187267972084782,0.5572716361451782,0.49486441343784654
603,34.152,33.9,1.82,0.5019685821967873,0.5851872296333069,0.3890064870389207,0.816120927146509,0.5605493166449474,0.4937094622349055
604,34.235,33.95,1.77,0.5070628621867138,0.5907403091147478,0.39336099060406227,0.8135173279469727,0.5638502087594423,0.4925693116619553
605,34.255,34.01,1.7,0.5121848087670446,0.5963108806218748,0.39772193900039343,0.8109170658424378,0.5671734449646848,0.4914440834502638
606,34.315,34.06,1.79,0.5173326162102991,0.6018962946913857,0.4020876684282513,0.8083211843495791,0.5705181419405962,0.49033389142938344
607,34.357,34.12,1.8,0.5225044607224637,0.6074938755099333,0.4064565230992661,0.8057307028498782,0.5738834014874442,0.48923884062454753
608,34.419,34.17,1.8,0.5276985020620857,0.6131009227040288,0.4108268570353258,0.8031466152025581,0.5772683114574748,0.48815902632565433
609,34.48,34.23,1.82,0.5329128851710293,0.6187147131633728,0.4151970358492865,0.80056988839424,0.5806719467001249,0.4870945331307444
610,34.522,34.28,1.94,0.5381457418146467,0.6243325028966782,0.4195654385036552,0.7980014612297821,0.584093370019147,0.4860454339670534
611,34.625,34.34,1.94,0.5433951922291052,0.6299515289189981,0.42393045904347404,0.7954422430686512,0.5875316331399477,0.4850117890928208
612,34.645,34.39,1.92,0.5486593467736322,0.6355690111694773,0.428290508299647,0.7928931126110554,0.5909857776854232,0.48399364508316167
613,34.686,34.45,2.11,0.5539363075854531,0.6411821544583625,0.43264401555894794,0.7903549167379701,0.5944548361585867,0.48299103380344227
614,34.748,34.5,2.07,0.5592241702352475,0.646788150442001,0.43698943019699565,0.7878284694090606,0.5979378329303301,0.48200397137372053
615,34.809,34.56,2.04,0.5645210253809955,0.6523841796244716,0.44132522327062385,0.7853145506222183,0.6014337852306918,0.48103245712794757
616,34.85,34.61,2.14,0.5698249604181473,0.657967413384443,0.44564988906636427,0.7828139054379193,0.6049417041420733,0.4800764725717428
617,34.933,34.67,2.16,0.5751340611241257,0.6635350160258177,0.4499619466021805,0.7803272430709765,0.6084605955928939,0.47913598034264454
618,34.996,34.72,2.16,0.5804464132952395,0.6690841468506997,0.45425994108002693,0.7778552360516703,0.6119894613502109,0.4782109231768936
619,35.017,34.78,2.16,0.5857601043741439,0.6746119622532682,0.4585424452870686,0.7753985194579273,0.6155273000098377,0.47730122288699495
620,35.099,34.83,2.28,0.5910732250660063,0.6801156178332227,0.46280806094348753,0.7729576902201337,0.6190731079825085,0.4764067793543768
621,35.139,34.89,2.27,0.5963838709415674,0.6855922705274973,0.46705541999483907,0.7705333065001182,0.6226258804746491,0.47552746954140734
622,35.201,34.94,2.25,0.6016901440253244,0.6910390807588981,0.4712831858469518,0.7681258871457597,0.6261846124623134,0.47466314652692443
623,35.264,35.0,2.44,0.6069901543670962,0.6964532146002363,0.475490054541405,0.7657359112226032,0.629748299656875,0.473813638569318
624,35.367,35.05,2.41,0.6122820215952759,0.7018318459524553,0.47967475586969655,0.7633638176237363,0.6333159394610964,0.47297874820115915
625,35.387,35.11,2.38,0.6175638764501228,0.7071721587351953,0.48383605442439703,0.7610100047588986,0.6368865319142528,0.4721582513594102
626,35.408,35.16,2.46,0.6228338622955061,0.7124713490882406,0.4879727505858946,0.7586748303233134,0.6404590806250601,0.47135189655525256
627,35.468,35.22,2.49,0.6280901366075802,0.7177266275822632,0.4920836814437544,0.7563586111461031,0.6440325936912346,0.47055940408744173
628,35.51,35.27,2.49,0.6333308724389655,0.7229352214371985,0.4961677216521497,0.7540616231175834,0.6476060846045643,0.46978046530296935
629,35.572,35.33,2.48,0.6385542598570806,0.728094376746504,0.5002237842190621,0.7517841011944913,0.6511785731404047,0.46901474190875103
630,35.635,35.38,2.59,0.6437585073553354,0.7332013607055206,0.5042508212290036,0.7495262394822776,0.6547490862305364,0.4682618653379543
631,35.718,35.44,2.55,0.6489418432359377,0.7382534638421193,0.5082478244989946,0.7472881913937779,0.6583166588183486,0.4675214361743906
632,35.739,35.49,2.52,0.6541025169631147,0.7432480022477862,0.5122138261675401,0.7450700698837018,0.6618803346953325,0.46679302363816866
633,35.801,35.55,2.73,0.6592388004855726,0.7481823198072532,0.5161478992163592,0.7428719477584623,0.6654391673178863,0.4660761651355335
634,35.843,35.6,2.71,0.6643489895270472,0.7530537904247276,0.5200491579247064,0.7406938580608464,0.6689922206034472,0.46537036587554553
635,35.905,35.66,2.68,0.6694314048438259,0.7578598202446918,0.5239167582562929,0.7385357945288302,0.6725385697050101,0.46467509855601724
636,35.967,35.71,2.78,0.6744843934481448,0.7625978498651891,0.5277498981790991,0.7363977121274186,0.6760773017631538,0.4639898031208516
637,36.008,35.77,2.82,0.679506329796426,0.7672653565414227,0.53154781791872,0.7342795276518269,0.6796075166347975,0.4633138865905372
638,36.09,35.82,2.82,0.68449561694138,0.7718598563773589,0.5353098001462314,0.7321811203998215,0.6831283275979945,0.46264672296720416
639,36.13,35.88,2.81,0.6894506876470836,0.7763789065028878,0.5390351701017637,0.7301023329107792,0.6866388620321464,0.4619876532153893
640,36.211,35.93,2.93,0.6943700054662001,0.7808201072340162,0.5427232956550277,0.7280429717689918,0.6901382620730984,0.4613359853194127
641,36.231,35.99,2.87,0.6992520657785927,0.7851811042134802,0.5463735873040771,0.7260028084687298,0.6936256852426332,0.46069099441801503
642,36.292,36.04,2.81,0.7040953967906463,0.7894595905290824,0.5499854981136133,0.7239815803385643,0.697100305051949,0.46005192301668224
643,36.355,36.1,2.99,0.708898560494665,0.793653308806975,0.553558523594112,0.7219789915224929,0.7005613115787268,0.45941798127789146
644,36.457,36.15,2.97,0.7136601535877651,0.7977600532770173,0.5570922015230052,0.7199947140155172,0.7040079120174298,0.458788347389361
645,36.477,36.21,2.94,0.7183788083497092,0.801777671807256,0.5605861117091402,0.7180283887513719,0.7074393312024766,0.4581621680103168
646,36.517,36.26,3.02,0.7230531934791685,0.8057040679045306,0.5640398757018029,0.7160796267399797,0.7108548121039672,0.4575385587957131
647,36.599,36.32,3.08,0.7276820148879615,0.8095372026781532,0.5674531564457866,0.7141480102519105,0.7142536162956955,0.4569166049981607
648,36.619,36.37,3.08,0.7322640164529035,0.813275096763541,0.5708256578842025,0.7122330940467884,0.7176350243952481,0.456295362147123
649,36.681,36.43,3.05,0.7367979807250116,0.8169158322026632,0.5741571245108636,0.7103344066424689,0.7209983364760505,0.45567385680479144
650,36.722,36.48,3.17,0.7412827295958829,0.8204575542782311,0.5774473408740691,0.7084514516218848,0.7243428724513067,0.4550510873978856
651,36.827,36.54,3.12,0.7457171249211603,0.8238984732986471,0.580696131033601,0.7065837089745648,0.7276679724298395,0.45442602512442515
652,36.847,36.59,3.06,0.7501000691010716,0.8272368663307963,0.5839033579727461,0.7047306364699226,0.730972997043913,0.45379761493436477
653,36.888,36.65,3.21,0.7544305056181093,0.8304710788778223,0.5870689229671322,0.7028916710595364,0.7342573277491513,0.4531647765828319
654,36.95,36.7,3.2,0.7587074195319816,0.8335995264990549,0.5901927649122016,0.7010662303057548,0.7375203670967017,0.4525264057545464
655,36.991,36.76,3.16,0.7629298379320282,0.8366206963692704,0.5932748596112625,0.6992537138338624,0.740761538977795,0.4518813752578646
656,37.053,36.81,3.2,0.767096830347321,0.8395331487745299,0.5963152190262593,0.697453504804713,0.7439802888408782,0.45122853628668774
657,37.114,36.87,3.27,0.771207509114708,0.8423355185418988,0.5993138904936474,0.6956649714042716,0.7471760838815347,0.45056671974816825
658,37.176,36.92,3.26,0.7752610297051034,0.8450265164003726,0.6022709559079474,0.6938874683461556,0.7503484132054414,0.44989473765388444
659,37.239,36.98,3.24,0.7792565910083872,0.847604930270381,0.6051865308755925,0.6921203383832157,0.7534967879646512,0.44921138457203286
660,37.28,37.03,3.37,0.783193435577306,0.8500696264793622,0.6080607638415381,0.6903629138244352,0.7566207414675135,0.4485154391381095
661,37.322,37.09,3.32,0.7870708498308019,0.8524195509010792,0.6108938351909333,0.6886145180537432,0.759719829262609,0.4478056656214226
662,37.385,37.14,3.23,0.7908881642172162,0.8546537300165207,0.6136859563279566,0.6868744670476667,0.7627936291971226,0.4470808155446451
663,37.447,37.2,3.37,0.7946447533378482,0.85677127189439,0.6164373687337329,0.6851420708891454,0.7658417414501262,0.44633962935346766
664,37.549,37.25,3.35,0.7983400360313717,0.8587713670892927,0.6191483430051217,0.6834166352752175,0.7688637885412704,0.4455808381332927
665,37.57,37.31,3.32,0.8019734754196336,0.8606532894558405,0.6218191778761624,0.6816974630164241,0.7718594153153837,0.44480316536986897
666,37.611,37.36,3.37,0.8055445789153465,0.8624163968770285,0.6244501992240431,0.6799838555256048,0.7748282889034711,0.44400532875069465
667,37.671,37.42,3.43,0.8090528981921588,0.8640601319053781,0.6270417590615929,0.6782751142933675,0.7777700986606083,0.4431860420038006
668,37.712,37.47,3.4,0.8124980291175825,0.8655840223154088,0.6295942345183995,0.6765705423471303,0.7806845560812465,0.4423440167702756
669,37.773,37.53,3.37,0.8158796116492665,0.8669876815660621,0.6321080268126529,0.674869445690485,0.7835713946924548,0.4414779645067575
670,37.815,37.58,3.51,0.8191973296951144,0.8682708091718251,0.6345835602156654,0.673171134719783,0.7864303699256595,0.44058659841403447
671,37.92,37.64,3.45,0.8224509109377721,0.869433190981458,0.6370212810108347,0.6714749256151431,0.7892612589674661,0.4396686353878587
672,37.94,37.69,3.38,0.8256401266240223,0.8704746993633996,0.63942165644862,0.6697801417034818,0.7920638605901834,0.4387227979880698
673,37.98,37.75,3.51,0.8287647913196623,0.8713952932970984,0.6417851736988973,0.6680861147916913,0.7948379949626845,0.4377478164221216
674,38.042,37.8,3.5,0.831824762630469,0.8721950183696734,0.6441123388019055,0.6663921864686349,0.7975835034422611,0.43674243053910605
675,38.104,37.86,3.45,0.834819940889887,0.8728740066774789,0.6464036756189611,0.6646977093749051,0.8003002483481233,0.4357053918304106
676,38.166,37.91,3.47,0.8377502688140622,0.8734324766323764,0.648659724784161,0.6630020484392622,0.8029881127171816,0.43463546543316145
677,38.207,37.97,3.55,0.8406157311248316,0.8738707326727547,0.6508810426583731,0.6613045820804035,0.8056470000427627,0.43353143213245954
678,38.29,38.02,3.52,0.8434163541412604,0.8741891648795298,0.6530682002868355,0.6596047033725212,0.8082768339968963,0.43239209035822346
679,38.31,38.08,3.49,0.8461522053403083,0.8743882484975072,0.6552217823616172,0.6579018211731164,0.8108775581368166,0.43121625817234227
680,38.372,38.13,3.64,0.8488233928871936,0.8744685433626871,0.6573423861900108,0.6561953612117761,0.8134491355963098,0.4300027752417907
681,38.433,38.19,3.57,0.8514300651360295,0.8744306932362806,0.659430620669782,0.6544847671388442,0.8159915487625647,0.4287505047933431
682,38.514,38.24,3.5,0.8539724101013328,0.8742754250463708,0.6614871052721502,0.6527695015329494,0.8185047989391939,0.42745833554557344
683,38.536,38.3,3.6,0.8564506549010358,0.874003548038327,0.6635124690334645,0.6510490468661547,0.8209889059961184,0.42612518361389756
684,38.597,38.35,3.6,0.8588650651716763,0.8736159528352275,0.6655073495567896,0.6493229064250748,0.8234439080070171,0.4247499943845053
685,38.658,38.41,3.54,0.861215944456481,0.8731136104096912,0.6674723920249305,0.647590605185803,0.8258698608750252,0.42333174435321824
686,38.72,38.46,3.54,0.8635036335670595,0.8724975709687174,0.669408248226678,0.6458516906400319,0.8282668379473325,0.4218694429255375
687,38.761,38.52,3.62,0.8657285099194225,0.8717689627533438,0.6713155755981818,0.6441057335694254,0.8306349296192975,0.42036213417426227
688,38.823,38.57,3.59,0.8678909868450285,0.8709289907550951,0.6731950362813298,0.642352328765266,0.8329742429286658,0.4188088985511266
689,38.883,38.63,3.56,0.8699915128775506,0.8699789353513286,0.6750472962007829,0.6405910956907968,0.8352849011404317,0.4172088545490089
690,38.925,38.68,3.75,0.8720305710160358,0.8689201508617003,0.6768730241609223,0.6388216790843957,0.8375670433228486,0.41556116031140083
691,39.046,38.74,3.68,0.8740086779651159,0.8677540640280886,0.6786728909635915,0.637043749502468,0.839820823915084,0.41386501518593694
692,39.067,38.79,3.61,0.8759263833529236,0.8664821724204057,0.6804475685471586,0.6352570038016638,0.8420464122870281,0.4121196612189275
693,39.108,38.85,3.72,0.8777842689273748,0.8651060427708129,0.6821977291470729,0.6334611655609154,0.8442439922918036,0.41032438458795045
694,39.17,38.9,3.72,0.8795829477315081,0.8636273092389348,0.6839240444777893,0.6316559854446574,0.8464137618115644,0.40847851696967424
695,39.21,38.96,3.68,0.8813230632585951,0.8620476716107193,0.6856271849358323,0.6298412415091164,0.8485559322971814,0.4065814368403061
696,39.272,39.01,3.66,0.8830052885877319,0.8603688934337254,0.6873078188238135,0.6280167394535823,0.8506707283023969,0.4046325707063395
697,39.336,39.07,3.73,0.8846303255005868,0.858592800091811,0.6889666115953049,0.6261823128183498,0.8527583870130067,0.4026313942634539
698,39.397,39.12,3.7,0.886198903579946,0.8567212768223252,0.6906042251205255,0.624337823130779,0.8548191577716133,0.4005774334815406
699,39.418,39.18,3.66,0.8877117792906715,0.8547562666789789,0.6922213169727656,0.622483160000862,0.8568533015984457,0.3984702656139767
700,39.48,39.23,3.82,0.8891697350436752,0.8526997684435835,0.6938185397353787,0.6206182411677458,0.8588610907086941,0.39630952012942605
701,39.522,39.29,3.77,0.8905735782435065,0.8505538344898083,0.6953965403291203,0.6187430124987013,0.8608428080267769,0.39409487956459427
702,39.585,39.34,3.71,0.8919241403201505,0.8483205686020538,0.696955959359661,0.6168574479418999,0.8627987466979319,0.39182608029656885
703,39.646,39.4,3.82,0.8932222757456528,0.8460021237525237,0.6984974304852395,0.6149615494340444,0.8647292095975317,0.3895029132336118
704,39.748,39.45,3.83,0.8944688610362106,0.8436006998395518,0.7000215798046291,0.6130553467635373,0.8666345088385409,0.387125224423493
705,39.768,39.51,3.8,0.8956647937404129,0.841118541390248,0.7015290252657109,0.6111388973897167,0.868514965277534,0.3846929155787395
706,39.809,39.56,3.8,0.8968109914143308,0.8385579352305781,0.7030203760948335,0.6092122862190062,0.8703709080197025,0.382205944518476
707,39.87,39.62,3.87,0.897908390584167,0.8359212081261065,0.704496232246846,0.6072756253394614,0.8722026739232753,0.3796643255267331
708,39.911,39.67,3.81,0.8989579456971926,0.8332107243967046,0.7059571838754123,0.6053290537157467,0.8740106071037922,0.37706812962722386
709,39.973,39.73,3.76,0.899960628061723,0.8304288835085513,0.7074038108230136,0.6033727368469055,0.875795058438646,0.37441748477474385
710,40.034,39.78,3.92,0.9009174247769077,0.827578117646741,0.7088366821299069,0.6014068663894803,0.8775563850722834,0.37171257596347923
711,40.137,39.84,3.88,0.901829337653119,0.8246608892717734,0.710256355561197,0.5994316597486229,0.8792949499224121,0.3689536452526114
712,40.157,39.89,3.82,0.9026973821237353,0.8216796886631348,0.7116633771511682,0.5974473596397623,0.8810111211875308,0.3661409917096977
713,40.218,39.95,3.93,0.9035225861491182,0.818637031453154,0.7130582807641266,0.5954542336230734,0.8827052718560751,0.36327497127237335
714,40.239,40.0,3.94,0.9043059891136013,0.8155354561542425,0.7144415876712594,0.5934525736125452,0.8843777792174924,0.36035599652896394
715,40.301,40.06,3.91,0.9050486407163556,0.8123775216825354,0.7158138061432922,0.5914426953610571,0.8860290243755634,0.35738453641874735
716,40.362,40.11,3.91,0.9057515998570291,0.8091658048808759,0.7171754310588284,0.5894249379228,0.8876593917642863,0.35436111585284735
717,40.443,40.17,3.99,0.9064159335170798,0.8059028980440589,0.7185269435282121,0.5873996630945354,0.8892692686666579,0.3512863152569152
718,40.484,40.22,3.94,0.9070427156377576,0.8025914064491986,0.7198688105326689,0.585367254837359,0.890859044736686,0.34816077003687085
719,40.525,40.28,3.87,0.9076330259957178,0.799233945894006,0.721201484578405,0.5833281186807636,0.8924291115249641,0.34498516996907536
720,40.567,40.33,4.02,0.9081879490772805,0.7958331402456869,0.722525403365224,0.5812826811109397,0.8939798620081236,0.3417602585163906
721,40.627,40.39,3.97,0.9087085729523496,0.7923916190030993,0.7238409894691209,0.5792313889453706,0.8955116901224548,0.33848683207164587
722,40.689,40.44,3.91,0.909195988149,0.7889120148747504,0.7251486500382756,0.5771747086957099,0.8970249903019489,0.3351657391301421
723,40.752,40.5,4.01,0.909651286529713,0.7853969613751822,0.7264487765019646,0.5751131259206423,0.8985201570209842,0.3317978793929331
724,40.793,40.55,4.03,0.9100755601702275,0.7818490904422244,0.7277417442921437,0.5730471445699686,0.8999975843418547,0.3283842028027067
725,40.856,40.61,4.02,0.9104699002419845,0.7782710300774593,0.729027912577696,0.5709772863207869,0.901457665467329,0.3249257085142545
726,40.918,40.66,4.01,0.9108353958991454,0.7746654020121437,0.7303076240114237,0.5689040899065694,0.9029007922984108,0.32142344380176974
727,40.958,40.72,4.11,0.9111731331711654,0.7710348194008053,0.7315812044897846,0.5668281104400964,0.9043273549974881,0.3178785029054175
728,41.04,40.77,4.06,0.911484193861913,0.7673818845447293,0.7328489629252855,0.5647499187313846,0.9057377415570702,0.31429202581976673
729,41.081,40.83,4.0,0.9117696544563529,0.7637091866475523,0.7341111910313699,0.5626701006018547,0.9071323373743329,0.3106651970268155
730,41.142,40.88,4.17,0.912030585035819,0.7600192996051928,0.7353681631195526,0.5605892561960883,0.9085115248316893,0.3069992441764522
731,41.225,40.94,4.09,0.9122680482029175,0.7563147798323555,0.7366201359084933,0.5585079992925802,0.9098756828836135,0.3032954367172484
732,41.246,40.99,4.02,0.9124830980170929,0.752598164127851,0.7378673483447065,0.5564269566148159,0.9112251866499254,0.2995550844804956
733,41.286,41.05,4.13,0.9126767789418649,0.7488719675809945,0.7391100214347083,0.5543467671437218,0.9125604070157456,0.2957795362203113
734,41.348,41.1,4.14,0.9128501248047359,0.7451386815213116,0.74034835808862,0.5522680814321183,0.9138817102383269,0.29197017811250386
735,41.41,41.16,4.15,0.913004157770779,0.7414007715136338,0.7415825429754695,0.5501915609214711,0.9151894575609443,0.2881284322148695
736,41.473,41.21,4.14,0.9131398873309384,0.7376606754005222,0.7428127423904772,0.5481178772612035,0.9164840048340106,0.2842557548917454
737,41.535,41.27,4.25,0.9132583093060996,0.7339208013938188,0.7440391041345227,0.5460477116310383,0.9177657021435907,0.2803536352057758
738,41.618,41.32,4.2,0.9133604048680314,0.7301835262170192,0.7452617574058638,0.543981754067085,0.9190348934475173,0.2764235932798971
739,41.638,41.38,4.12,0.9134471395783433,0.7264511933000457,0.746480812704078,0.5419207027925751,0.9202919162193561,0.27246717863255415
740,41.721,41.43,4.28,0.9135194624466318,0.7227261110279287,0.7476963617460577,0.5398652635543675,0.9215371011004932,0.26848596848911677
741,41.742,41.49,4.2,0.9135783050089974,0.7190105510448364,0.7489084773937645,0.5378161489665492,0.922770771560647,0.26448156607243245
742,41.783,41.54,4.13,0.9136245804281081,0.715306746614851,0.7501172135933899,0.5357740778624799,0.9239932435670968,0.2604555988754937
743,41.845,41.6,4.21,0.913659182615952,0.7116168910408951,0.7513226053256564,0.5337397746564178,0.9252048252629025,0.25640971691924236
744,41.907,41.65,4.22,0.9136829853803801,0.7079431361431816,0.7525246685672221,0.5317139687154642,0.926405816654364,0.25234559099851633
745,41.968,41.71,4.22,0.9136968415965195,0.7042875907984927,0.7537234002633947,0.5296973937422007,0.9275965093079235,0.24826491091916808
746,42.029,41.76,4.22,0.9137015824040973,0.7006523195414802,0.7549187783124527,0.5276907871682878,0.9287771860566729,0.244169383729485
747,42.07,41.82,4.34,0.9136980164316783,0.6970393412291194,0.7561107615618011,0.5256948895594108,0.9299481207166085,0.24006073194910044
748,42.133,41.87,4.31,0.9136869290488133,0.6934506277693455,0.7572992898161012,0.523710444032111,0.9311095778127982,0.23594069179854663
749,42.194,41.93,4.25,0.9136690816470837,0.6898881029148062,0.7584842838574438,0.5217381956831755,0.9322618123156666,0.23181101143249577
750,42.235,41.98,4.41,0.9136452109510312,0.6863536411226047,0.7596656454775264,0.5197788910324734,0.9334050693876424,0.22767344917954635
751,42.357,42.04,4.35,0.9136160283599425,0.6828490664808515,0.7608432575216986,0.5178332774803203,0.9345395841404811,0.22352977179118147
752,42.378,42.09,4.28,0.9135822193214378,0.6793761517028115,0.7620169839447283,0.5159021027804823,0.9356655814036006,0.21938175270233
753,42.399,42.15,4.33,0.9135444427377971,0.6759366171893993,0.7631866698782311,0.5139861145296838,0.9367832755038146,0.21523117030574718
754,42.44,42.2,4.33,0.9135033304059442,0.6725321301606944,0.7643521417099134,0.5120860596740634,0.9378928700568542,0.21107980624215825
755,42.502,42.26,4.31,0.9134594864920107,0.669164303856968,0.7655132071749867,0.5102026840326178,0.9389945577710664,0.20692944370789917
756,42.564,42.31,4.3,0.9134134870413774,0.6658346968095646,0.7666696554601837,0.5083367318374947,0.9400885202636302,0.20278186578169796
757,42.606,42.37,4.41,0.9133658795250451,0.6625448121818585,0.767821257320756,0.506488945291019,0.9411749278895939,0.19863885377219462
758,42.687,42.42,4.35,0.9133171824231476,0.6592960971804152,0.768967765210766,0.5046600641393905,0.9422539395840146,0.19450218558775867
759,42.728,42.48,4.28,0.9132678848463923,0.6560899425363707,0.7701089134269308,0.5028508252630435,0.9433257027174682,0.190373634130164
760,42.77,42.53,4.45,0.9132184461961922,0.6529276820569606,0.7712444182662136,0.5010619622837184,0.9443903529652046,0.1862549657136869
761,42.832,42.59,4.39,0.9131692958642278,0.6498105922470587,0.7723739781973266,0.4992942051883181,0.9454480141902326,0.18214793851122435
762,42.895,42.64,4.33,0.9131208329721463,0.6467398920005354,0.7734972740463607,0.4975482799694787,0.946498798340622,0.1780543010291009
763,42.957,42.7,4.39,0.9130734261520662,0.643716742361229,0.7746139691968882,0.4958249082824586,0.9475428053613104,0.17397579061222437
764,42.997,42.75,4.38,0.9130274133685261,0.6407422463532744,0.7757237098051089,0.4941248071175245,0.9485801231207145,0.16991413198107935
765,43.06,42.81,4.35,0.9129831017824973,0.6378174488803988,0.7768261250308178,0.49244868848667,0.9496108273524333,0.16587103580185922
766,43.121,42.86,4.32,0.9129407676580363,0.6349433366936854,0.7779208272850123,0.4907972591234384,0.9506349816123005,0.161848197290928
767,43.184,42.92,4.43,0.9129006563120855,0.6321208384272133,0.7790074124948227,0.4891712201947971,0.9516526372510005,0.15784729485469692
768,43.226,42.97,4.38,0.9128629821078583,0.6293508247009201,0.780085460386289,0.4875712670242442,0.9526638334024238,0.15386998876587804
769,43.289,43.03,4.31,0.912827928492173,0.6266341082899441,0.7811545347853219,0.48599808882556683,0.9536685969879101,0.1499179198769881
770,43.332,43.08,4.49,0.912795648077036,0.6239714443596293,0.7822141839370075,0.484452368446969,0.9546669427365042,0.1459927083719187
771,43.436,43.14,4.43,0.9127662627657118,0.6213635307652942,0.7832639408432654,0.4829347821255787,0.9556588732213426,0.1420959525563737
772,43.457,43.19,4.37,0.9127398639234596,0.6188110084158178,0.7843033236188353,0.4814459992524366,0.956644378912287,0.13822922768801832
773,43.498,43.25,4.43,0.9127165125930407,0.6163144617000986,0.7853318358656458,0.47998668214789664,0.9576234382449297,0.1343940848471573
774,43.558,43.3,4.44,0.912696239755034,0.613874418975451,0.786348967065832,0.4785574858470191,0.9585960177061086,0.13059204984859513
775,43.599,43.36,4.39,0.9126790466329341,0.6114913531169469,0.7873541929938749,0.47715905789419716,0.9595620719360685,0.1268246221951613
776,43.661,43.41,4.34,0.9126649050429358,0.6091656821266452,0.7883469761484032,0.47579203814616494,0.9605215438473808,0.12309327407329014
777,43.723,43.47,4.45,0.9126537577882262,0.6068977698016057,0.7893267662040915,0.47445705858264614,0.9614743647606937,0.11939944939093386
778,43.804,43.52,4.4,0.9126455190975071,0.6046879264595135,0.7902930004839598,0.4731547431240378,0.9624204545573382,0.1157445628579565
779,43.824,43.58,4.32,0.912640075107371,0.6025364097206692,0.7912451044522493,0.47188570745562625,0.9633597218487614,0.11212999910905218
780,43.885,43.63,4.49,0.9126372843880387,0.6004434253450056,0.7921824922279221,0.4706505588579405,0.9642920641627055,0.10855711186914564
781,43.927,43.69,4.44,0.9126369785118712,0.5984091281226891,0.7931045671187387,0.46944989604293186,0.9652173681460087,0.10502722316116768
782,43.989,43.74,4.4,0.9126389626639766,0.5964336228167753,0.7940107221758557,0.46828430899559953,0.9661355097838833,0.10154162255609786
783,44.05,43.8,4.45,0.912643016294152,0.5945169651563353,0.7949003407689686,0.4671543788204237,0.96704635463552,0.09810156646514658
784,44.113,43.85,4.47,0.9126488938093315,0.5926591628784355,0.7957727971821922,0.4660606775915813,0.9679497580858688,0.09470827747382385
785,44.217,43.91,4.43,0.912656325305657,0.5908601768172469,0.7966274572310453,0.46500376820557887,0.968845565613459,0.09136294371752204
786,44.238,43.96,4.38,0.9126650173392357,0.5891199220384666,0.7974636789009365,0.4639842042348425,0.9697336130740921,0.08806671829819711
787,44.28,44.02,4.47,0.912674653734572,0.5874382690171701,0.798280813007421,0.4630025297809342,0.9706137270002282,0.08482071874169626
788,44.321,44.07,4.41,0.9126848964295976,0.585815044857149,0.799078203878331,0.46205927932630225,0.9714857249158421,0.08162602649521325
789,44.363,44.13,4.33,0.912695386356139,0.5842500345497332,0.7998551900576444,0.4611549775837808,0.9723494156664784,0.0784836864642809
790,44.425,44.18,4.51,0.9127057443545726,0.5827429822700516,0.8006111050307111,0.46029013934345714,0.9732045997641675,0.075394706588618
791,44.487,44.24,4.47,0.9127155721213217,0.5812935927086167,0.801345277970235,0.4594652693168576,0.9740510697468094,0.07236005745607652
792,44.528,44.29,4.42,0.9127244531877693,0.5799015324360725,0.8020570345023214,0.45868086197849167,0.9748886105515773,0.06938067195395128
793,44.589,44.35,4.48,0.9127319539290717,0.5785664312989239,0.8027456974919425,0.4579374014045971,0.9757169999018793,0.06645744495691396
794,44.65,44.4,4.49,0.9127376246012923,0.5772878838440556,0.8034105878473076,0.45723536110856966,0.9765360087074237,0.06359123305071733
795,44.714,44.46,4.46,0.9127410004052293,0.5760654507697788,0.8040510253427895,0.456575203872242,0.9773454014769338,0.06078285429070174
796,44.753,44.51,4.42,0.9127416025752666,0.5748986604010725,0.8046663294600761,0.4559573815720937,0.9781449367430499,0.058033087994125036
797,44.815,44.57,4.51,0.9127389394915285,0.5737870101866374,0.8052558202471204,0.4553823349996098,0.9789343674989298,0.05534267456536643
798,44.938,44.62,4.43,0.9127325078135881,0.572729968215321,0.8058188191943385,0.4548504936751817,0.9797134416460318,0.05271231535308525
799,44.959,44.68,4.34,0.9127217936339443,0.571726974749406,0.8063546501273655,0.45436227565510057,0.9804819024525098,0.05014267253846505
800,44.999,44.73,4.52,0.9127062736494318,0.5707774437722082,0.806862640115478,0.4539180873313854,0.9812394890215924,0.04763436905369906
801,45.021,44.79,4.47,0.9126854163486602,0.5698807645473974,0.8073421203945493,0.45351832322437124,0.9819859367692421,0.045187988529889804
802,45.084,44.84,4.43,0.9126586832135062,0.569036303187455,0.8077924273031921,0.4531633657680325,0.9827209779103157,0.04280407527359572
803,45.146,44.9,4.51,0.9126255299326035,0.5682434042287002,0.8082129032306588,0.45285358508785506,0.9834443419524055,0.040483134271283513
804,45.187,44.95,4.54,0.9125854076247288,0.5675013922103227,0.8086028975751373,0.45258933877076596,0.9841557561965268,0.03822563122086542
805,45.269,45.01,4.51,0.912537764069979,0.5668095732547849,0.8089617677111953,0.45237097162636414,0.9848549462438209,0.03603199258942219
806,45.329,45.06,4.48,0.9124820449466262,0.5661672366469037,0.8092888799651341,0.4521988154386891,0.9855416365074431,0.03390260569619399
807,45.389,45.12,4.57,0.9124176950715488,0.5655736564088985,0.8095836105968849,0.45207318870797575,0.9862155507288181,0.031837818819896606
808,45.41,45.17,4.51,0.9123441596421364,0.5650280928686895,0.8098453467869533,0.4519943963820862,0.9868764124974369,0.029837941329392936
809,45.471,45.23,4.42,0.9122608854775774,0.5645297942187315,0.8100734876267599,0.4519627295775531,0.9875239457733599,0.027903243836779255
810,45.551,45.28,4.59,0.9121673222574181,0.564077998062689,0.8102674451105562,0.4519784652904652,0.9881578754115539,0.02603395837199587
811,45.572,45.34,4.55,0.9120629237552579,0.5636719329472887,0.81042664512694,0.4520418660977144,0.9887779276871478,0.024230278578124275
812,45.654,45.39,4.51,0.9119471490654011,0.5633108198767495,0.8105505284479538,0.45215317984921777,0.9893838308206457,0.022492359926614077
813,45.696,45.45,4.6,0.9118194638202464,0.562993873807284,0.810638551713841,0.4523126393515679,0.9899753155021002,0.020820319951710093
814,45.758,45.5,4.62,0.9116793413961789,0.5627203051192738,0.8106901884117526,0.4525204620432126,0.9905521154132519,0.01921423850328128
815,45.819,45.56,4.61,0.9115262641057514,0.5624893210647582,0.8107049298469466,0.4527768496609683,0.9911139677466615,0.017674158017229127
816,45.86,45.61,4.6,0.9113597243739788,0.5623001271879429,0.8106822861051195,0.45308198789764154,0.9916606137208713,0.016200083802744323
817,45.921,45.67,4.7,0.9111792258966193,0.5621519287165224,0.8106217870044556,0.4534360460507562,0.9921917990906727,0.01479198434578356
818,46.003,45.72,4.64,0.9109842847783916,0.562043931921711,0.8105229830359182,0.45383917666263623,0.992707274651586,0.013449791628199646
819,46.024,45.78,4.57,0.9107744306491605,0.561975345444958,0.8103854462902137,0.4542915151523147,0.9932067967376945,0.01217340146199922
820,46.085,45.83,4.73,0.9105492077561913,0.5619453815894223,0.8102087713697543,0.4547931794400044,0.9936901277119892,0.010962673838220449
821,46.126,45.89,4.67,0.9103081760306386,0.561953257574378,0.8099925762838441,0.4553442695651077,0.9941570364483893,0.009817433289959232
822,46.19,45.94,4.62,0.9100509121264774,0.5619981967508534,0.8097365033253082,0.4559448672988162,0.9946072988045939,0.008737469269167282
823,46.251,46.0,4.71,0.9097770104301071,0.5620794297769875,0.80944021992689,0.4565950357521832,0.9950406980849095,0.007722536536886848
824,46.314,46.05,4.74,0.9094860840388961,0.5621961957517544,0.8091034194959343,0.45729481898023255,0.9954570254922033,0.006772355566510091
825,46.377,46.11,4.74,0.9091777657069834,0.5623477433057964,0.808725822226077,0.4580442415824041,0.9958560805681382,0.0058866129595969915
826,46.397,46.16,4.73,0.9088517087567262,0.5625333316482074,0.8083071758847151,0.45884330829964215,0.9962376716208678,0.0050649618738326865
827,46.459,46.22,4.86,0.9085075879542605,0.5627522315682154,0.8078472565749629,0.4596920036086623,0.996601616139403,0.0043070224627587755
828,46.521,46.27,4.8,0.9081451003477492,0.5630037263908367,0.8073458694707254,0.4605902913141747,0.9969477411939374,0.0036123823269178556
829,46.584,46.33,4.73,0.907763966067009,0.5632871128856496,0.8068028495235022,0.46153811414000245,0.9972758838214815,0.0029805969760343318
830,46.627,46.38,4.88,0.9073639290833266,0.5636017021279122,0.8062180621395444,0.46253539332014953,0.9975858913962264,0.0024111903018122845
831,46.688,46.44,4.81,0.9069447579283745,0.5639468203113117,0.8055914038260574,0.4635820281909118,0.9978776219841137,0.001903655060921956
832,46.751,46.49,4.75,0.9065062463712196,0.5643218095117495,0.8049228028052777,0.46467789578502466,0.9981509446811181,0.0014574533678451268
833,46.793,46.55,4.82,0.9060482140524743,0.5647260284017226,0.8042122195954496,0.4658228504285851,0.9984057399347666,0.0010720171973512573
834,46.856,46.6,4.85,0.9055705070746958,0.565158852915012,0.8034596475579917,0.46701672334112465,0.9986418998484233,0.0007467488963628177
835,46.919,46.66,4.84,0.905072998548204,0.5656196768614511,0.8026651134103852,0.4682593222389169,0.9988593284678755,0.0004810217049270359
836,46.961,46.71,4.82,0.9045555890915377,0.566107912491601,0.8018286777044042,0.46955043094158705,0.999057942049749,0.0002741802860103317
837,47.023,46.77,4.93,0.9040182072858194,0.566622991011241,0.8009504352692269,0.4708898089823124,0.9992376693113098,0.00012554126382255265
838,47.107,46.82,4.89,0.9034608100823771,0.5671643630456553,0.8000305156188638,0.4722771912221753,0.999398451661255,3.439377037314835e-05
839,47.127,46.88,4.82,0.9028833831630597,0.5677314990537492,0.7990690833232525,0.4737122874694752,0.999540243411148,0.0
840,47.169,46.93,4.98,0.9022859412527844,0.5683238896920955,0.7980663383422743,0.4751947821050863,0.9996630119672109,2.1595771642866987e-05
841,47.23,46.99,4.91,0.9016685283839455,0.5689410461290728,0.7970225163218996,0.4767243337151841,0.9997667380022415,9.839109864343522e-05
842,47.291,47.04,4.83,0.9010312181123967,0.569582500309347,0.7959378888517175,0.478300574732717,0.9998514156074629,0.0002295707658771259
843,47.333,47.1,4.89,0.9003741136847916,0.5702478051690649,0.7948127636832472,0.47992311108881636,0.9999170524241509,0.00041429491399390714
844,47.394,47.15,4.88,0.8996973481571321,0.5709365348022273,0.7936474849086734,0.48159152187497023,0.9999636697549132,0.0006516996304318031
845,47.518,47.21,4.87,0.8990010844644589,0.5716482845787338,0.7924424330998893,0.4833053590164473,0.9999913026545003,0.0009408975468097842
846,47.539,47.26,4.86,0.8982855154416685,0.5723826712146228,0.7911980254078377,0.48506414695733935,1.0,0.001280978442365349
847,47.599,47.32,4.98,0.8975508637954871,0.573139332795093,0.7899147156220903,0.48686738235770716,0.9999898245402554,0.001671009853176874
848,47.62,47.37,4.92,0.8967973820276807,0.5739179287509633,0.7885929941905085,0.4887145338034991,0.9999608529243589,0.0021100376869606506
849,47.681,47.43,4.86,0.8960253523096339,0.5747181397892807,0.7872333881987131,0.4906050415301447,0.9999131757091057,0.002597086843295166
850,47.744,47.48,5.03,0.8952350863085028,0.5755396677788328,0.7858364613089349,0.49253831716102936,0.9998468973453493,0.0031311618391779046
851,47.845,47.54,4.98,0.8944269249652148,0.5763822355913483,0.7844028136577154,0.4945137434623271,0.9997621361432628,0.0037112474398900927
852,47.865,47.59,4.91,0.8936012382246615,0.5772455868992138,0.7829330817119106,0.4965306741157412,0.9996590242165607,0.0043363092952613015
853,47.905,47.65,4.96,0.8927584247184842,0.57812948593062,0.7814279380825828,0.49858843351049403,0.9995377074057983,0.005005294581478338
854,47.968,47.7,4.96,0.8918989114009119,0.5790337171831148,0.779888091296606,0.5006863165555338,0.9993983451809249,0.005717132648498856
855,48.009,47.76,4.93,0.8910231531381803,0.5799580850965476,0.7783142855260801,0.5028235885125775,0.9992411105233,0.006470735673062433
856,48.091,47.81,4.91,0.8901316322521123,0.5809024136863749,0.7767073002757661,0.5049994848505277,0.9990661897873924,0.00726499931732211
857,48.132,47.87,5.02,0.8892248580184947,0.581866546138306,0.7750679500287262,0.507213211121938,0.998873782542385,0.00809880339314473
858,48.214,47.92,4.97,0.8883033661209323,0.5828503443652463,0.773397083850273,0.5094639428623994,0.9986641013939258,0.008971012532081487
859,48.235,47.98,4.9,0.8873677180609351,0.5838536885274709,0.771695584950215,0.5117508255139396,0.9984373717862889,0.009880476860938653
860,48.277,48.03,5.07,0.8864185005250538,0.5848764765169424,0.7699643702032155,0.514072974373834,0.9981938317852523,0.01082603268279107
861,48.338,48.09,5.01,0.8854563247099589,0.5859186234066981,0.7682043896269101,0.516429474570553,0.9979337318420562,0.011806503163230895
862,48.38,48.14,4.95,0.8844818256064331,0.5869800608662619,0.7664166258173656,0.5188193810686833,0.9976573345388605,0.012820699021688897
863,48.441,48.2,5.0,0.883495661243314,0.5880607365441379,0.7646020933415733,0.5212417187045045,0.9973649143161779,0.013867419227710785
864,48.504,48.25,5.0,0.8824985118925097,0.5891606134184966,0.7627618380869202,0.5236954822535047,0.9970567571828179,0.014945451702031293
865,48.587,48.31,4.95,0.8814910792362984,0.5902796691171653,0.7608969365679016,0.5261796365307746,0.9967331604089225,0.016053574022261367
866,48.608,48.36,4.89,0.8804740854982046,0.5914178952080515,0.7590084951904773,0.5286931165251277,0.9963944322026886,0.017190554133040853
867,48.671,48.42,4.99,0.8794482725388016,0.5925752964611828,0.7570976494744753,0.5312348275679581,0.9960408913713821,0.018355151060533016
868,48.713,48.47,4.93,0.8784144009178393,0.5937518900836296,0.7551655632343851,0.5338036455380485,0.9956728669672378,0.019546115631136278
869,48.774,48.53,4.85,0.8773732489241395,0.5949477049286254,0.7532134277188415,0.5363984171037008,0.9952906979188199,0.02076219119430642
870,48.836,48.58,5.02,0.8763256115747332,0.5961627806802515,0.7512424607090299,0.5390179600037327,0.9948947326483923,0.022002114349386842
871,48.876,48.64,4.96,0.8752722995847398,0.5973971670151088,0.7492539055762132,0.5416610633689931,0.9944853286758478,0.023264615676353496
872,48.936,48.69,4.9,0.8742141383095172,0.5986509227424626,0.7472490302986319,0.5443264880859872,0.9940628522097417,0.024548420470453067
873,48.997,48.75,4.96,0.8731519666606352,0.5999241149244561,0.7452291264381966,0.5470129672038822,0.9936276777260168,0.025852249480758555
874,49.06,48.8,4.96,0.8720866359972786,0.60121681797805,0.7431955080776607,0.5497192063857126,0.9931801875350501,0.027174819652591206
