,Time_Host,Time_Arduino,easingdata,CH1_Oxy,CH1_Deoxy,CH2_Oxy,CH2_Deoxy,CH3_Oxy,CH3_Deoxy
0,0.035,31.5,16.04,1.0,1.0,1.0,1.0,1.0,1.0
1,1.381,0.04,0.0,0.9828808507015268,0.9822307086850142,0.9822854899255461,0.9826224315872509,0.9848975272909637,0.9821004587753821
2,1.402,0.1,0.0,0.9657702007848356,0.9644636869511248,0.9645801466310281,0.9652402530267172,0.9697984170270584,0.9642025790115959
3,1.423,0.15,0.0,0.9486746776830308,0.9467061614874132,0.9468910247715219,0.9478604967553163,0.9547086228399202,0.9463136792073399
4,1.444,0.21,0.0,0.931600885228834,0.928965348564278,0.9292251593889354,0.9304901903244203,0.9396340833446055,0.9284410693666971
5,1.465,0.26,0.0,0.914555397239968,0.9112484469493953,0.9115895590682067,0.9131363494994746,0.9245807163116508,0.9105920438506196
6,1.486,1.06,0.0,0.8975447511715057,0.8935626308658754,0.8939911991509258,0.8958059713946545,0.909554412885358,0.8927738742685529
7,1.507,1.12,0.0,0.8805754418479813,0.8759150430070483,0.8764370150199208,0.8785060276568458,0.8945610318599476,0.874993802424809
8,1.57,1.17,0.0,0.8636539152873324,0.8583127876215532,0.8589338954676002,0.8612434577125008,0.8796063940246225,0.8572590333335105
9,1.652,1.23,0.0,0.8467865626280167,0.8407629236816717,0.841488676160136,0.8440251620901856,0.8646962765879936,0.8395767283151623
10,1.673,1.28,0.0,0.8299797141699465,0.8232724581471192,0.8241081332088319,0.8268579958309363,0.8498364076917491,0.8219539981871522
11,1.715,1.34,-0.21,0.813239633539193,0.8058483393358061,0.8067989768593556,0.809748761997839,0.8350324610228833,0.8043978965597539
12,1.778,1.39,-0.19,0.7965725119857436,0.7884974504123907,0.7895678453088153,0.7927042052955781,0.8202900505332491,0.7869154132484859
13,1.841,1.45,-0.09,0.7799844628229488,0.7712266030047747,0.7724212986600186,0.7757310058100257,0.8056147252746504,0.7695134678129962
14,1.945,1.5,-0.25,0.7634815160166576,0.7540425309580339,0.7553658130216118,0.7588357728773005,0.7910119643571334,0.7521989032319897
15,1.966,1.56,-0.35,0.7470696129314366,0.7369518842346431,0.7384077747621752,0.7420250390911034,0.7764871720375923,0.734978479723084
16,2.008,1.61,-0.23,0.7307546012406628,0.7199612229692415,0.7215534749257559,0.7253052544565447,0.762045672945277,0.7178588687158787
17,2.069,1.67,-0.32,0.7145422300066937,0.7030770116855822,0.7048091038157317,0.7086827806980927,0.7476927074502796,0.7008466469859174
18,2.111,1.72,-0.48,0.6984381449367365,0.686305613682728,0.6881807457533383,0.6921638857287064,0.7334334271805727,0.683948290956643
19,2.172,1.78,-0.35,0.6824478838194424,0.6696532855969793,0.6716743740166256,0.6757547382866577,0.7192728906926898,0.6671701711758717
20,2.234,1.83,-0.3,0.6665768721466672,0.6531261721454695,0.6552958459650516,0.6594614027460016,0.7052160593006559,0.6505185469727487
21,2.337,1.89,-0.48,0.6508304189242775,0.6367303010568108,0.6390508983543973,0.6432898341061046,0.6912677930673163,0.6339995613005993
22,2.358,1.94,-0.44,0.6352137126753348,0.6204715781936485,0.6229451428461587,0.6272458731651216,0.6774328469617751,0.6176192357705532
23,2.399,2.0,-0.35,0.6197318176384925,0.6043557828714579,0.6069840617150891,0.6113352418817963,0.6637158671862231,0.6013834658803072
24,2.44,2.05,-0.51,0.6043896701639814,0.5883885633774288,0.5911730037580946,0.5955635389294737,0.6501213876750398,0.5852980164418937
25,2.502,2.11,-0.54,0.5891920753091364,0.5725754326927968,0.5755171804072372,0.5799362354457424,0.6366538267686545,0.5693685172118614
26,2.564,2.16,-0.4,0.5741437036350173,0.556921764421519,0.5600216620491704,0.5644586709806849,0.6233174840642617,0.5536004587268127
27,2.607,2.22,-0.47,0.5592490882052994,0.5414327889277437,0.5446913745529041,0.5491360496462763,0.610116537445122,0.5379991883468194
28,2.69,2.27,-0.6,0.5445126217882308,0.5261135896840918,0.5295310960073948,0.5339734364690488,0.5970550402898067,0.5225699065088008
29,2.731,2.33,-0.47,0.529938554262063,0.5109690998323557,0.5145454536700506,0.5189757539477111,0.5841369188624088,0.5073176631915426
30,2.772,2.38,-0.48,0.515530990223974,0.4960040989578227,0.4997389211268477,0.504147778816984,0.5713659698844058,0.4922473545936127
31,2.834,2.44,-0.67,0.5012938868021272,0.48122321007803953,0.4851158156643783,0.48949413901849914,0.5587458582885467,0.4773637200250367
32,2.896,2.49,-0.67,0.4872310516701499,0.4666308968464532,0.47068029585378,0.4750193108792081,0.5462801151548177,0.4626713390132088
33,2.937,2.55,-0.56,0.4733461412629748,0.452231460970994,0.456436359346158,0.46072761649736477,0.5339721358282418,0.44817462862314666
34,3.058,2.6,-0.73,0.4596426591926794,0.4380290398473087,0.44238784087878996,0.44662322133578414,0.5218251782179671,0.4338778409918528
35,3.078,2.66,-0.75,0.4461239548626449,0.4240276044060161,0.4285384104910971,0.4327101320217446,0.5098423612768025,0.4197850610762246
36,3.099,2.71,-0.6,0.43279322227807326,0.410230957173041,0.4148915719490653,0.4189921943525925,0.4980266636600764,0.4059002046136567
37,3.16,2.77,-0.64,0.4196534990506182,0.3966427305417831,0.4014506613765183,0.4054730915058255,0.4863809225624325,0.39222701629418244
38,3.202,2.82,-0.78,0.4067076655946422,0.383266385255603,0.38821884609137325,0.3921563424521514,0.4749078327309241,0.3787690681427246
39,3.264,2.88,-0.6,0.39395844451236833,0.3701052090988293,0.3751991236447537,0.3790453005697567,0.4636099456525431,0.36552975810975297
40,3.325,2.93,-0.63,0.38140840016497984,0.35716231579423974,0.36239432106057967,0.36614315245777146,0.4524896689141089,0.35251230886837265
41,3.398,2.99,-0.78,0.36905993842652296,0.3444406441047098,0.3498070942730113,0.35345291694668113,0.4415492657322422,0.33971976681561294
42,3.418,3.04,-0.75,0.3569153066172779,0.33194295713648136,0.3374399277588766,0.3409774443032259,0.43079085465096184,0.327155001275436
43,3.48,3.1,-0.66,0.3449765936130866,0.31967184184126585,0.3252951343619842,0.3287194156271213,0.4202164094042569,0.3148207039007533
44,3.541,3.15,-0.86,0.3332457301269611,0.30762970871417633,0.3133748553060101,0.3166813424367371,0.40982775894081197,0.30271938827152284
45,3.583,3.21,-0.89,0.32172448915913143,0.2958187916842758,0.30168106039244375,0.3048655664406921,0.3996265876078828,0.29085338968580693
46,3.643,3.26,-0.76,0.3104144866115285,0.28424114819433627,0.29021554837989005,0.29327425949216734,0.389614435491151,0.2792248651404913
47,3.724,3.32,-0.81,0.29931718206253927,0.27289865946623065,0.27897994754085287,0.2819094237225928,0.37979269890722084,0.2678357934982047
48,3.785,3.37,-0.91,0.2884338796977066,0.26179303094820966,0.26797571639196965,0.2707728918512156,0.3701626310452618,0.2566879758368222
49,3.805,3.43,-0.76,0.2777657293919054,0.25092579294016937,0.25720414459352237,0.2598663276669126,0.36072534275416224,0.24578303597778636
50,3.866,3.48,-0.7,0.2673137279384024,0.24029830139286446,0.24666635401391906,0.24919122667846322,0.3514818034714345,0.2351224211893291
51,3.926,3.54,-0.88,0.2570787204201208,0.22991173887688607,0.23636329995472188,0.23874891692934425,0.3424328422900104,0.2247074030605283
52,3.989,3.59,-0.82,0.24706140171836236,0.2197671157170904,0.2262957725316841,0.22854055997296363,0.33357914915897574,0.21453907854198784
53,4.051,3.65,-0.72,0.23726231815419047,0.20986527128803908,0.21646439820715913,0.2185671520041111,0.32492127621421524,0.20461837114879283
54,4.091,3.7,-0.89,0.22768186925763265,0.2002068754659013,0.20686964146914708,0.2088295251422836,0.3164596392348691,0.19494603232127147
55,4.152,3.76,-0.87,0.21832030965982124,0.19079243023217,0.19751180665216128,0.19932834886244796,0.3081945192214281,0.18552264293899928
56,4.213,3.81,-0.75,0.20917775110315012,0.1816222714244637,0.18839103989502004,0.19006413156873472,0.3001260640912278,0.1763486149834069
57,4.273,3.87,-0.83,0.2002541645645016,0.17269657062961521,0.17950733123061607,0.18103722230649777,0.2922542904870422,0.1674241933442876
58,4.334,3.92,-0.9,0.191549382486587,0.16401533721418726,0.1708605168026733,0.17224781260812544,0.2845790856944287,0.15874945776544774
59,4.375,3.98,-0.8,0.18306310111243962,0.1555784204874998,0.16245028120446783,0.16369593846793612,0.27710020966343046,0.1503243249246872
60,4.416,4.03,-0.85,0.17479488291809459,0.14738551199220487,0.15427615993446625,0.15538148244143693,0.2698172971302178,0.1421485506432426
61,4.522,4.09,-0.99,0.16674415913848423,0.13943614791739367,0.14633754196381496,0.14730417586415775,0.2627298598342166,0.13422173221976821
62,4.543,4.14,-0.91,0.15891023238156307,0.13172971162917496,0.13863367241059774,0.13946360118520257,0.2558372888262509,0.12654331088387558
63,4.585,4.2,-0.86,0.1512922793256682,0.12426543631362322,0.13116365531575896,0.13185919441059854,0.24913885686320006,0.11911257436420872
64,4.648,4.25,-1.01,0.1438893534951185,0.11704240772696309,0.1239264565155741,0.12449024765147614,0.2426337208846507,0.11192865956600234
65,4.69,4.31,-0.96,0.1367003881090689,0.11005956704784026,0.11692090660553105,0.11735591177209723,0.23632092456701043,0.10499055535305964
66,4.753,4.36,-0.85,0.12972419899866522,0.10331571382652464,0.11014570399047915,0.11045519913275413,0.2301994009505432,0.09829710542908944
67,4.815,4.42,-0.97,0.12295948758759719,0.09680950902589969,0.1035994180159086,0.10378698642258426,0.22426797513479882,0.09184701131335228
68,4.899,4.47,-1.03,0.11640484393121428,0.09053947814910557,0.09728049217524586,0.09735001757736686,0.2185253670379186,0.08563883540558283
69,4.92,4.53,-0.9,0.11005874980944445,0.08450401444872403,0.0911872473880838,0.0911429067773929,0.21297019421532895,0.07967100413517503
70,4.983,4.58,-0.95,0.10391958186884288,0.07870138221241416,0.08531788534431178,0.08516414152051771,0.20760097473336034,0.07394181118963856
71,5.024,4.64,-1.04,0.09798561480918541,0.07312972011993021,0.07967049190915784,0.07941208576552068,0.20241613009336012,0.06844942081736086
72,5.086,4.69,-0.95,0.09225502461010374,0.06778704466647943,0.07424304058420447,0.07388498314091164,0.19741398820190123,0.06319187119973595
73,5.126,4.75,-0.93,0.08672589179333393,0.06267125364740536,0.0690333960194833,0.06858096021434368,0.1925927863827302,0.05816707788774779
74,5.187,4.8,-1.08,0.08139620471620901,0.05778012969921827,0.06403931757180134,0.06349802981781556,0.18795067442614724,0.05337283729812786
75,5.247,4.86,-1.03,0.07626386289207213,0.05311134389203702,0.05925846290449747,0.05863409442388709,0.1834857176715603,0.04880683026424339
76,5.31,4.91,-0.97,0.07132668033332404,0.048662459368558356,0.054688391623870715,0.053986949568187045,0.1791959001190138,0.044466625636917764
77,5.372,4.97,-1.1,0.06658238891286024,0.04443093502472798,0.050326568947562704,0.04955428731356541,0.17507912756554708,0.040349683930439056
78,5.433,5.02,-1.14,0.0620286417397021,0.04041412922734938,0.04617036940021731,0.04533369975132315,0.17113323076229214,0.03645336100907439
79,5.495,5.08,-1.03,0.057663016544690894,0.036609303563935575,0.042217080531791996,0.041322682535036445,0.16735596858828103,0.0327749118094766
80,5.516,5.13,-1.11,0.053483019072198094,0.033013626620181084,0.0384639066539681,0.03751863844256802,0.1637450312369941,0.02931149409444017
81,5.64,5.19,-1.18,0.04948608647390606,0.02962417778050936,0.034907972590190316,0.03391888096192905,0.160298043411744,0.026060172233537165
82,5.66,5.24,-1.03,0.0456695907008202,0.026437951047231956,0.03154632743494678,0.03052063789673357,0.15701256752605752,0.02301792100623723
83,5.703,5.3,-0.99,0.04203084188978534,0.023451858873937574,0.028375948317977392,0.027321054987072997,0.15388610690529478,0.020181629423187873
84,5.765,5.35,-1.1,0.038567091740892706,0.020662736008810606,0.02539374416917474,0.024317199541730197,0.15091610898582994,0.017548104561405015
85,5.806,5.41,-1.05,0.03527553688227937,0.018067343343663077,0.022596559480026316,0.021506064077742946,0.14809996850821483,0.015114075409197838
86,5.869,5.46,-1.01,0.03215332221894419,0.015662371764549907,0.019981178057547164,0.018884569963411514,0.14543503070085692,0.01287619671672788
87,5.911,5.52,-1.18,0.029197544262335534,0.013444445999925898,0.01754432676676455,0.01644957106092894,0.14291859445085384,0.010831052848183665
88,5.995,5.57,-1.2,0.026405254437597288,0.01141012846239289,0.015282679257926944,0.01419785736490382,0.1405479154587304,0.008975161631642819
89,6.014,5.63,-1.12,0.02377346236547963,0.009555923080181146,0.0131928596747124,0.012126158633148153,0.13832020937391842,0.00730497820279055
90,6.056,5.68,-1.19,0.02129913911602292,0.007878279114607863,0.011271446339809903,0.010231148006211502,0.13623265490790543,0.005816898838765513
91,6.137,5.74,-1.28,0.018979220431195255,0.0063735949598611895,0.009514975414344057,0.008509445612252501,0.13428239692205934,0.004507264778506438
92,6.2,5.79,-1.14,0.016810609913708568,0.005038221921567047,0.007919944527705692,0.006957622153946134,0.13246654948722114,0.0033723660260699794
93,6.241,5.85,-1.15,0.014790182179276511,0.0038684679707053624,0.006482816374443804,0.005572202474225689,0.13078219891225118,0.0024084451334793985
94,6.342,5.9,-1.27,0.012914785969631803,0.002860601469547295,0.005200022274972847,0.004349669097748926,0.12922640673881375,0.0016117009597496328
95,6.362,5.96,-1.21,0.011181247223706028,0.002010854866386553,0.004067965696952537,0.0032864657450645636,0.12779621269979274,0.0009782924028206852
96,6.405,6.01,-1.15,0.00958637210449839,0.0013154283559377751,0.003083025734311697,0.0023790008165412153,0.12648863763884363,0.0005043421012213978
97,6.447,6.07,-1.3,0.008126949979312464,0.0007704935023748582,0.0022415605410151503,0.0016236508432062042,0.12530068638870306,0.00018594010238364038
98,6.509,6.12,-1.29,0.0067997563512051705,0.00037219682208392696,0.0015399107168078258,0.0010167639017348573,0.12422935060598629,1.9147494633740425e-05
99,6.57,6.18,-1.21,0.005601555739654277,0.00011666332331177058,0.0009744026423049726,0.0005546629909348536,0.12327161156031348,0.0
100,6.673,6.23,-1.29,0.0045291045086017735,0.0,0.0005413517609302227,0.00023364936717920344,0.12242444287571383,0.0001245115250898517
101,6.714,6.29,-1.37,0.003579153640164116,1.8299277208073393e-05,0.00023706580532808068,5.000583635424158e-05,0.12168481322235977,0.00038867766740464536
102,6.735,6.34,-1.26,0.002748451452418947,0.00016764240564334223,5.784796599622248e-05,0.0,0.12104968895679272,0.0007884791745703358
103,6.777,6.4,-1.34,0.0020337462597899173,0.0004441028029285245,0.0,7.988745342356695e-05,0.12051603670890909,0.0013198853540664214
104,6.837,6.45,-1.47,0.0014317889746527884,0.0008437493393451825,5.9825277748439866e-05,0.0002859149336598737,0.12008082591408335,0.0019788574311349273
105,6.898,6.51,-1.45,0.0009393356488785872,0.0013626495658969427,0.0002336317659253306,0.0006143234152447992,0.11974103128890977,0.0027613518526496883
106,6.96,6.56,-1.44,0.0005531499541155644,0.0019968728826400763,0.000517734944784078,0.0010613511518546062,0.11949363524914343,0.0036633235348267385
107,7.023,6.62,-1.6,0.00027000559969151945,0.002742493645332748,0.0009084606581313073,0.0016232366619562096,0.11933563026851236,0.004680729052762215
108,7.064,6.67,-1.57,8.668868708819971e-05,0.003595594208561011,0.0014021478944432912,0.002296221656710143,0.11926402117715533,0.00580952976989595
109,7.106,6.73,-1.52,0.0,0.004552267903608254,0.001995151497681368,0.0030765539084716296,0.11927582739852174,0.007045694905613324
110,7.168,6.78,-1.57,6.757229056460653e-06,0.005608621949444628,0.002683844806497687,0.00396049005834056,0.11936808512365407,0.00838520453931152
111,7.229,6.84,-1.63,0.0001037971303679013,0.00676078029532252,0.003464622220642022,0.004944298361319152,0.11953784942185851,0.009824052549367251
112,7.27,6.89,-1.53,0.00028797761714775675,0.008004886393573475,0.00433390169348419,0.006024261367747832,0.11978219628686383,0.0113582494855469
113,7.331,6.95,-1.57,0.0005561797837716656,0.009337105901309218,0.005288127149665602,0.0071966785397979734,0.12009822461767194,0.012983825373493676
114,7.435,7.0,-1.7,0.0009053098617440014,0.010753629309831408,0.006323770826992911,0.008457868801898735,0.12048305813340723,0.014696832450015112
115,7.456,7.06,-1.64,0.0013323011071528718,0.012250674500652894,0.007437335541786322,0.009804173024063577,0.12093384722157675,0.016493347827979454
116,7.497,7.11,-1.61,0.0018341156193022515,0.013824489227128447,0.008625356876999965,0.011231956437166098,0.12144777071925315,0.01836947608971691
117,7.56,7.17,-1.75,0.0024077460903126377,0.015471353520787146,0.009884405292536797,0.012737610979298104,0.12202203762678718,0.020321351807914233
118,7.602,7.22,-1.75,0.003050217485573613,0.017187582021557766,0.01121108815728129,0.01431755757243388,0.12265388875374497,0.022345141993091282
119,7.683,7.28,-1.7,0.0037585886550169463,0.018969526231179198,0.012602051702470567,0.015968248328724573,0.12334059829685584,0.024437048466850138
120,7.765,7.33,-1.79,0.004529953875259844,0.02081357668918897,0.014053982896123262,0.01768616868584681,0.12407947534984257,0.02659331016018944
121,7.786,7.39,-1.89,0.005361444322744843,0.02271616507098095,0.015563611238342379,0.01946783947092761,0.1248678653450881,0.028810205336276724
122,7.828,7.44,-1.81,0.0062502294780652995,0.024673766207517753,0.01712771047740293,0.02130981889265948,0.12570315142717237,0.031084053737163674
123,7.889,7.5,-1.9,0.007193518461722531,0.02668290002637274,0.01874310024663056,0.023208704461300855,0.12658275575838984,0.033411218654013246
124,7.949,7.55,-2.0,0.00818856130160395,0.028740133413859545,0.020406647622170045,0.025161134836322412,0.12750414075643035,0.03578810892048409
125,8.011,7.61,-1.95,0.009232650132503436,0.030842081998088612,0.02211526860183154,0.027163791601518102,0.12846481026447087,0.038211180828991435
126,8.051,7.66,-1.93,0.010323120328033161,0.03298541185286909,0.02386592950528644,0.029213400967451553,0.12946231065399114,0.04067693996963469
127,8.131,7.72,-2.07,0.011457351565311793,0.03516684112245289,0.025655648295965783,0.03130673540116179,0.1304942318606852,0.04318194299165661
128,8.151,7.77,-2.06,0.012632768822862432,0.03738314156719736,0.027481495825090494,0.03344061518311441,0.1315582083539051,0.0457227992873769
129,8.212,7.83,-2.0,0.013846843312213298,0.03963114003030578,0.02934059699833847,0.03561190989145886,0.13265192004013687,0.048296172598622476
130,8.272,7.88,-2.1,0.015097093343763754,0.04190771982588848,0.03123013186573217,0.03781753981372951,0.13377309310107507,0.050898782545757075
131,8.334,7.94,-2.17,0.016381085127553378,0.04420982204866959,0.03314733663541104,0.040054477286205606,0.1349195007669227,0.05352740607949323
132,8.375,7.99,-2.07,0.017696433509653338,0.046534446805743514,0.035089504612029795,0.042319747961216604,0.13608896402560658,0.05617887885574629
133,8.437,8.05,-2.16,0.01904080264498669,0.04887865437085524,0.03705398706060162,0.044610432002741764,0.13727935226865834,0.05885009653386113
134,8.497,8.1,-2.28,0.020411906607466893,0.05123956626174308,0.039038193996681146,0.04692366521070514,0.13848858387456886,0.061538015998608434
135,8.559,8.16,-2.22,0.021807509938411955,0.05361436624114123,0.041039594903848294,0.04925664007441412,0.13971462673047705,0.06423965650640803
136,8.62,8.21,-2.2,0.02322542813424274,0.05600030124209623,0.0430557193795132,0.051606606755633756,0.14095549869310392,0.0669521007562943
137,8.702,8.27,-2.36,0.024663528074504303,0.058394682218307,0.045084157710110685,0.053970874001837525,0.14220926798988484,0.06967249588619621
138,8.722,8.32,-2.35,0.02611972839125803,0.060794884920256254,0.047122561376789496,0.056346809990233594,0.1434740535612933,0.07239805439516465
139,8.764,8.38,-2.3,0.02759199978088949,0.06319835059796014,0.04916864349273283,0.058731843103233886,0.14474802534538977,0.07512605499223912
140,8.866,8.43,-2.44,0.029078365259370742,0.06560258663122223,0.05122017917327694,0.06112346263610517,0.14602940450566848,0.07785384337270154
141,8.887,8.49,-2.47,0.030576900362014704,0.06800516708833432,0.05327500584002536,0.06351921943761177,0.1473164636033085,0.08057883292252323
142,8.948,8.54,-2.36,0.0320857332887707,0.07040373321422015,0.05533102346018523,0.0659167264845246,0.14860752671496663,0.08329850535186258
143,9.009,8.6,-2.48,0.03360304499614329,0.07279599384906672,0.0573861947223843,0.06831365939092487,0.1499009694972805,0.08601041125852155
144,9.05,8.65,-2.56,0.03512706923686314,0.07517972577853292,0.059438545150261465,0.07070775685327096,0.15119521919927847,0.08871217062231296
145,9.113,8.71,-2.46,0.03665609254848822,0.07755277401666634,0.06148616315515948,0.07309682103222753,0.1524887546239245,0.09140147323132837
146,9.176,8.76,-2.44,0.038188454192163684,0.0799130520226972,0.06352720002928403,0.07547871787227997,0.15378010604005402,0.09407607904112891
147,9.242,8.82,-2.57,0.039722546042815034,0.0822585418529134,0.06555986988072884,0.07785137736017674,0.1550678550459848,0.09673381846791292
148,9.265,8.87,-2.53,0.04125681243208965,0.08458729424885593,0.06758244951179887,0.08021279372326982,0.1563506343861173,0.09937259261674487
149,9.349,8.93,-2.46,0.042789749945396284,0.0868974286631125,0.06959327824209287,0.08256102556885908,0.15762712772187154,0.1019903734459626
150,9.37,8.98,-2.61,0.044319907174424224,0.08918713322402251,0.07159075767783875,0.08489419596568656,0.1588960693583435,0.10458520386891197
151,9.412,9.04,-2.68,0.04584588442654831,0.09145466464064471,0.07357335142900481,0.0872104924687659,0.1601562439280934,0.1071551977941937
152,9.496,9.09,-2.6,0.04736633339254168,0.09369834804937115,0.0755395847757398,0.08950816708876443,0.16140648603350244,0.10969854010563916
153,9.538,9.15,-2.69,0.048879956774025256,0.09591657680360244,0.07748804428572531,0.09178553620717986,0.16264567984915113,0.11221348658326333
154,9.601,9.2,-2.76,0.05038550787207738,0.09810781220792417,0.0794173773840492,0.09404098043856816,0.1638727586856793,0.11469836376647025
155,9.661,9.26,-2.63,0.05188179013840403,0.10027058319824679,0.0813262918772216,0.09627294444109238,0.16508670451658738,0.11715156876080762
156,9.724,9.31,-2.67,0.0533676566904426,0.10240348596938632,0.08321355543296076,0.0984799366766703,0.16628654746944374,0.11957156898957935
157,9.765,9.37,-2.85,0.05484200979175471,0.10450518355157497,0.08507799501737645,0.10066052912200071,0.16747136528296916,0.12195690189163083
158,9.827,9.42,-2.83,0.056303800299065995,0.10657440533739956,0.08691849629117986,0.10281335693175099,0.16864028273148235,0.12430617456662615
159,9.889,9.48,-2.74,0.05775202707733245,0.10860994656067471,0.08873400296655502,0.10493711805519355,0.1697924710181984,0.12661806336914538
160,9.994,9.53,-2.88,0.05918573638424995,0.11061066772876955,0.09052351612633938,0.10703057280758918,0.17092714713886858,0.1288913134529491
161,10.014,9.59,-2.96,0.060604021225661026,0.11257549400992072,0.09228609350717125,0.10909254339763443,0.1720435732172377,0.13112473826678891
162,10.034,9.64,-2.81,0.06200602068334642,0.11450341457708078,0.09402084874826896,0.11112191341231914,0.17314105581378328,0.1333172190031718
163,10.076,9.7,-2.88,0.06339091921671725,0.11639348190986686,0.0957269506075094,0.11311762726056887,0.17421894520919273,0.13546770400151353
164,10.135,9.75,-3.05,0.06475794593993717,0.11824481105618637,0.09740362214646948,0.11507868957707189,0.17527663466402343,0.13757520810713408
165,10.197,9.81,-2.92,0.06610637387599831,0.1200565788551268,0.09905013988608015,0.11700416458771438,0.17631355965598167,0.13963881198756112
166,10.258,9.86,-2.87,0.067435519189257,0.12182802312269994,0.10066583293452208,0.11889317543806374,0.17732919709624745,0.141657661407611
167,10.342,9.92,-3.07,0.06874474039791444,0.12355844180202874,0.10225008208897655,0.12074490348634401,0.17832306452625626,0.1436309664647201
168,10.362,9.97,-3.05,0.07003343756789948,0.12524719207955884,0.10380231891283108,0.1225585875623421,0.1792947192963379,0.145558000786001
169,10.403,10.03,-2.95,0.07130105148958056,0.12689368946886867,0.1053220247899292,0.12433352319367669,0.1802437577275969,0.14743810068849805
170,10.465,10.08,-3.13,0.07254706283870785,0.12849740686364355,0.10680872995745071,0.12606906180085506,0.18116981425840945,0.14927066430412023
171,10.527,10.14,-3.16,0.07377099132296484,0.13005787356137125,0.10826201251900029,0.12776460986254257,0.1820725605768866,0.15105515067073794
172,10.568,10.19,-2.99,0.07497239481549475,0.13157467425931363,0.10968149743946821,0.12941962805247703,0.1829517047406297,0.15279107879094084
173,10.63,10.25,-3.04,0.07615086847676553,0.13304744802430588,0.11106685552320757,0.1310336303494689,0.18380699028507616,0.15447802665996224
174,10.713,10.3,-3.16,0.07730604386613568,0.1344758872379329,0.11241780237704663,0.13260618312193415,0.18463819532170975,0.1561156302642797
175,10.733,10.36,-2.98,0.07843758804447373,0.13585973651862807,0.11373409735962174,0.13413690418841032,0.18544513162739093,0.1577035825523943
176,10.795,10.41,-2.94,0.07954520266917053,0.1371987916222323,0.11501554251848262,0.1356254618554983,0.18622764372605666,0.15924163237927655
177,10.857,10.47,-3.11,0.08062862308286944,0.13849289832253756,0.11626198151639652,0.13707157393465205,0.18698560796403416,0.1607295834259441
178,10.917,10.52,-3.09,0.0816876173972272,0.1397419512733213,0.11747329854825421,0.1384750067392114,0.18771893158021005,0.16216729309561667
179,10.959,10.58,-3.01,0.08272198557301066,0.14094589285335796,0.11864941724996218,0.13983557406304992,0.18842755177229525,0.16355467138787022
180,11.061,10.63,-3.16,0.08373155849783205,0.14210471199587021,0.11979029960069074,0.1411531361421856,0.1891114347604143,0.16489167975219815
181,11.082,10.69,-3.2,0.08471619706281072,0.14321844300386463,0.12089594481982587,0.14242759860069162,0.1897705748492238,0.16617832992238005
182,11.123,10.74,-3.09,0.08567579123941406,0.14428716435278077,0.1219663882599465,0.14365891138224257,0.19040499348973128,0.16741468273305332
183,11.184,10.8,-3.17,0.08661025915767719,0.1453109974818715,0.1230017002971132,0.14484706766863312,0.19101473834195104,0.16860084691987726
184,11.265,10.85,-3.27,0.08751954618693272,0.14629010557571612,0.12400198521971402,0.14599210278660452,0.19159988233949418,0.16973697790466605
185,11.308,10.91,-3.1,0.0884036240201079,0.1472246923372549,0.12496738011706233,0.14709409310430968,0.19216052275715392,0.17082327656684962
186,11.349,10.96,-3.06,0.08926248976258305,0.14811500075371126,0.12589805376888977,0.1481531549187323,0.19269678028251438,0.17185998800259566
187,11.431,11.02,-3.23,0.09009616502656505,0.1489613118567419,0.12679420553683385,0.1491694433353466,0.19320879809258168,0.17284740027289336
188,11.452,11.07,-3.19,0.0909046950319086,0.1497639434781245,0.12765606425898318,0.1501431511412673,0.1936967409364157,0.17378584314186835
189,11.514,11.13,-3.09,0.09168814771431794,0.15052324900225852,0.12848388714851847,0.1510745076730971,0.19416079422472496,0.17467568680656473
190,11.576,11.18,-3.25,0.09244661284187407,0.1512396161167178,0.1292779586974704,0.15196377768063757,0.19460116312736697,0.17551734061940427
191,11.639,11.24,-3.28,0.09318020114084158,0.15191346556206056,0.13003858958660008,0.1528112601875949,0.19501807167966784,0.17631125180451876
192,11.7,11.29,-3.14,0.09388904343170307,0.15254524988207382,0.13076611560238305,0.15361728735039254,0.1954117618984361,0.1770579041691368
193,11.742,11.35,-3.2,0.09457328977634656,0.15313545217560426,0.13146089656204854,0.1543822233161875,0.19578249290851177,0.17775781681119232
194,11.804,11.4,-3.33,0.09523310863728944,0.15368458485110575,0.13212331524759116,0.1551064630811729,0.19613054008065076,0.17841154282430363
195,11.846,11.46,-3.18,0.09586868604976323,0.15419318838500948,0.1327537763496294,0.15579043135023238,0.19645619418150848,0.17901966800124813
196,11.887,11.51,-3.35,0.09648022480741433,0.15466183008499518,0.13335270542194175,0.15643458139898478,0.19675976053645292,0.17958280953702346
197,11.949,11.57,-3.51,0.09706794366230546,0.15509110285920785,0.13392054784746746,0.1570393939392171,0.19704155820589858,0.18010161473255187
198,12.012,11.62,-3.46,0.09763207653983176,0.1554816239924255,0.13445776781651508,0.15760537598865706,0.1973019191758026,0.18057675970005654
199,12.094,11.68,-3.31,0.09817287176911202,0.15583403393014175,0.13496484731788366,0.1581330597459874,0.19754118756289904,0.18100894807112608
200,12.114,11.73,-3.47,0.09869059132938429,0.15614899507148522,0.13544228514357493,0.15862300147195268,0.1977597188351704,0.18139890970848635
201,12.175,11.79,-3.45,0.09918551011291504,0.1564271905718601,0.13589059590774985,0.15907578037736908,0.1979578790479805,0.18174739942250265
202,12.217,11.84,-3.29,0.09965791520491322,0.15666932315616358,0.13631030908055536,0.15949199751881843,0.19813604409624183,0.1820551956934307
203,12.278,11.9,-3.36,0.10010810518091666,0.15687611394341036,0.13670196803741355,0.1598722747027888,0.19829459898295146,0.18232309940041652
204,12.341,11.95,-3.46,0.10053638942208587,0.1570483012835719,0.13706612912433044,0.1602172533990051,0.19843393710439713,0.18255193255822433
205,12.401,12.01,-3.27,0.10094308744879858,0.15718663960741636,0.13740336073973594,0.16052759366367778,0.19855445955230738,0.18274253706264287
206,12.442,12.06,-3.28,0.10132852827289351,0.15729189829010642,0.13771424243332714,0.16080397307337088,0.19865657443319237,0.18289577344549024
207,12.564,12.12,-3.44,0.10169304976886523,0.15736486052928067,0.13799936402234322,0.16104708567015608,0.1987406962050939,0.18301251964010248
208,12.584,12.17,-3.38,0.1020369980642593,0.1574063222383075,0.13825932472565702,0.16125764091867806,0.1988072450319327,0.18309366975815608
209,12.605,12.23,-3.27,0.10236072694946223,0.15741709095536324,0.1384947323160233,0.16143636267571626,0.19885664615561338,0.18314013287864267
210,12.666,12.28,-3.42,0.10266459730702489,0.15739798476894704,0.13870620229078562,0.16158398817278646,0.19888932928600808,0.18315283184978418
211,12.727,12.34,-3.4,0.10294897656059294,0.15734983126041235,0.13889435706130646,0.16170126701229817,0.19890572800889772,0.1831327021046592
212,12.768,12.39,-3.22,0.10321423814344445,0.15727346646406593,0.1390598251613438,0.16178896017776637,0.1989062792119053,0.1830806904912936
213,12.83,12.45,-3.22,0.1034607609865656,0.15716973384535735,0.13920324047455965,0.16184783905856923,0.19889142252842068,0.18299775411794714
214,12.932,12.5,-3.3,0.10368892902613634,0.15703948329765743,0.1393252414813046,0.16187868448973503,0.19886159979948545,0.18288485921430297
215,12.953,12.56,-3.11,0.10389913073025463,0.15688357015809462,0.13942647052477994,0.16188228580723307,0.19881725455358892,0.18274298000923192
216,13.014,12.61,-3.1,0.1040917586447012,0.15670285424288766,0.1395075730966389,0.1618594399192259,0.1987588315043216,0.1825730976257569
217,13.075,12.67,-3.23,0.10426720895753026,0.1564981989025778,0.13956919714205474,0.1618109503937068,0.19868677606583052,0.18237619899379703
218,13.117,12.72,-3.16,0.10442588108226043,0.15627047009752734,0.13961199238425082,0.1617376265629093,0.19860153388601762,0.1821532757812227
219,13.179,12.78,-3.05,0.10456817725943343,0.15602053549401532,0.13963660966846156,0.16164028264483693,0.1985035503974161,0.18190532334371573
220,13.282,12.83,-3.21,0.10469450217630792,0.15574926358122493,0.13964370032527476,0.16151973688222326,0.19839327038566437,0.1816333396938967
221,13.303,12.89,-3.2,0.10480526260444469,0.15545752280938643,0.13963391555328722,0.16137681069920884,0.19827113757547224,0.1813383244901648
222,13.363,12.94,-3.06,0.1049008670549182,0.15514618074931616,0.13960790582098417,0.1612123278760078,0.1981375942339498,0.18102127804567789
223,13.384,13.0,-3.11,0.104981725450858,0.15481610327356835,0.13956632028773108,0.16102711374183287,0.19799308079114214,0.18068320035788682
224,13.446,13.05,-3.21,0.10504824881697765,0.15446815375939868,0.13950980624373885,0.160821994386339,0.19783803547758433,0.18032509015901962
225,13.507,13.11,-3.03,0.10510084898569028,0.15410319231371677,0.13943900856883193,0.1605977958898399,0.19767289397866591,0.17994794398788724
226,13.548,13.16,-3.02,0.10513993831934802,0.1537220750201824,0.13935456920982053,0.16035534357252534,0.1974980891055741,0.17955275528334846
227,13.651,13.22,-3.17,0.10516592944808671,0.15332565320857217,0.13925712667625795,0.16009546126286675,0.19731405048256595,0.17914051349973187
228,13.673,13.27,-3.09,0.10517923502271334,0.15291477274651302,0.13914731555434795,0.15981897058534453,0.19712120425030288,0.17871220324447448
229,13.712,13.33,-2.95,0.10518026748204885,0.15249027335364887,0.13902576603875635,0.15952669026758065,0.19691997278496826,0.17826880343819987
230,13.773,13.38,-3.07,0.10516943883413209,0.1520529879382787,0.13889310348207656,0.15921943546691425,0.19671077443286988,0.17781128649743297
231,13.814,13.44,-3.06,0.10514716045068889,0.151603741956482,0.1387499479616946,0.1588980171164281,0.19649402326021084,0.1773406175401321
232,13.876,13.49,-2.89,0.10511384287427622,0.1511433527937301,0.1385969138637928,0.15856324129041866,0.19627012881769934,0.1768577536142045
233,13.939,13.55,-2.92,0.10506989563752452,0.15067262916896954,0.1384346094842304,0.15821590858929432,0.19603949591966088,0.17636364294915707
234,14.001,13.6,-3.03,0.10501572709391814,0.15019237056114926,0.1382636366460365,0.15785681354387465,0.19580252443730967,0.17585922423101857
235,14.043,13.66,-2.83,0.10495174425956733,0.149703366658152,0.13808459033324358,0.1574867440390568,0.1955596091058358,0.1753454259006485
236,14.104,13.71,-2.83,0.10487835266543537,0.14920639682807388,0.13789805834077987,0.15710648075679662,0.19531113934496547,0.17482316547552185
237,14.145,13.77,-3.02,0.10479595621949006,0.148702229612776,0.13770462094013508,0.1567167966383241,0.19505749909265294,0.1742933488950465
238,14.207,13.82,-2.95,0.10470495707824365,0.1481916222436085,0.13750485056051392,0.15631845636547465,0.19479906665156094,0.17375686988943878
239,14.267,13.88,-2.86,0.10460575552713561,0.1476753201791822,0.13729931148519736,0.15591221586097617,0.19453621454798153,0.17321460937215324
240,14.328,13.93,-3.06,0.1044987498691979,0.1471540566650385,0.13708855956284294,0.15549882180749475,0.19426930940283443,0.17266743485584443
241,14.389,13.99,-3.03,0.10438433632141463,0.14662855231504976,0.136873141933463,0.15507901118521614,0.19399871181435135,0.17211619989183047
242,14.47,14.04,-2.86,0.10426290891815258,0.14609951471437013,0.1366535967688295,0.1546535108277332,0.1937247762520265,0.17156174353302836
243,14.491,14.1,-2.87,0.10413485942101036,0.14556763804374784,0.13643045302706286,0.15422303699601783,0.19344785096138298,0.17100488982032958
244,14.533,14.15,-2.95,0.10400057723441644,0.14503360272500632,0.1362042302211538,0.15378829497029015,0.19316827787908117,0.1704464472923848
245,14.595,14.21,-2.75,0.10386044932630756,0.14449807508749463,0.13597543820113722,0.15334997865964442,0.192886392557885,0.16988720851875533
246,14.677,14.26,-2.74,0.1037148601532346,0.14396170705530137,0.13574457694961267,0.15290877022932123,0.1926025241010089,0.1693279496563671
247,14.758,14.32,-2.88,0.10356419158926562,0.1434251358550131,0.13551213639029583,0.15246533974550783,0.19231699510538242,0.16876943002917622
248,14.779,14.37,-2.79,0.1034088228580769,0.14288898374378564,0.13527859620928728,0.1520203448375213,0.1920301216133841,0.16821239173092417
249,14.822,14.43,-2.67,0.10324913046764503,0.14235385775748022,0.13504442568875247,0.15157443037719334,0.19174221307261236,0.1676575592508371
250,14.883,14.48,-2.82,0.10308548814697932,0.14182034947860236,0.13481008355271598,0.1511282281752472,0.19145357230326604,0.16710563912210766
251,14.945,14.54,-2.79,0.10291826678435431,0.14128903482377186,0.13457601782467643,0.1506823566944503,0.19116449547271044,0.16655731959299397
252,15.005,14.59,-2.65,0.10274783436651629,0.14076047385044513,0.13434266569674377,0.15023742077933494,0.1908752720768057,0.16601327032037
253,15.047,14.65,-2.67,0.10257455591835106,0.14023521058260888,0.13411045341000283,0.14979401140229884,0.1905861849275803,0.16547414208556288
254,15.149,14.7,-2.79,0.10239879344251022,0.13971377285515985,0.13387979614580842,0.14935270542590917,0.19029751014683252,0.1649405665323099
255,15.17,14.76,-2.59,0.10222090585849927,0.13919667217667944,0.1336510979277179,0.1489140653812464,0.19000951716525416,0.16441315592666025
256,15.211,14.81,-2.61,0.10204124894074433,0.13868440361030196,0.13342475153376823,0.1484786392621187,0.18972246872668028,0.1638925029386258
257,15.253,14.87,-2.76,0.10186017525517088,0.13817744567236018,0.13320113841880707,0.14804696033495993,0.1894366208970825,0.16337918044536082
258,15.314,14.92,-2.64,0.10167803409384603,0.13767626024847684,0.1329806286465864,0.14761954696419852,0.18915222307793253,0.1628737413556229
259,15.374,14.98,-2.52,0.1014951714072581,0.1371812925267554,0.13276358083133122,0.14719690245285927,0.18886951802357427,0.16237671845524446
260,15.435,15.03,-2.68,0.10131192973384114,0.1366929709477135,0.13255034208849872,0.14677951489814184,0.18858874186224764,0.1618886242733283
261,15.476,15.09,-2.61,0.10112864812639065,0.13621170717059772,0.13234124799444794,0.14636785706171535,0.1883101241204141,0.16140995096887895
262,15.559,15.14,-2.43,0.10094566207506087,0.1357378960557178,0.1321366225547375,0.14596238625448185,0.1880338877500447,0.1609411702375808
263,15.601,15.2,-2.48,0.10076330342668775,0.13527191566244207,0.1319367781807794,0.14556354423557238,0.18776024915855144,0.16048273323843734
264,15.642,15.25,-2.58,0.10058190030023732,0.13481412726249803,0.13174201567458746,0.14517175712534935,0.1874894182410642,0.16003507053998167
265,15.683,15.31,-2.41,0.10040177699823141,0.13436487536822544,0.13155262422137554,0.14478743533219032,0.18722159841478683,0.15959859208576327
266,15.745,15.36,-2.42,0.10022325391405225,0.13392448777542942,0.13136888138977496,0.14441097349282428,0.18695698665519966,0.15917368717879452
267,15.849,15.42,-2.6,0.10004664743507011,0.1334932756204759,0.13119105313945587,0.14404275042597153,0.18669577353390143,0.15876072448462467
268,15.87,15.47,-2.54,0.09987226984156251,0.13307153345126388,0.1310193938359473,0.14368312909901598,0.18643814325790412,0.15836005205268766
269,15.91,15.53,-2.48,0.09970042920140636,0.132659539311699,0.13085414627245992,0.14333245660741256,0.18618427371020566,0.15797199735555567
270,15.971,15.58,-2.67,0.09953142926052243,0.13225755483928478,0.13069554169852465,0.14299106416651206,0.18593433649146834,0.15759686734572226
271,16.054,15.64,-2.64,0.09936556932904086,0.13186582537544334,0.13054379985526116,0.1426592671154829,0.18568849696262163,0.15723494852954328
272,16.095,15.69,-2.49,0.09920314416314194,0.13148458008817865,0.13039912901708864,0.1423373649330225,0.18544691428819654,0.15688650705797538
273,16.137,15.75,-2.51,0.09904444384253021,0.13111403210669778,0.13026172603969044,0.1420256412645683,0.185209741480188,0.15655178883376536
274,16.22,15.8,-2.61,0.09888975364352168,0.13075437866761008,0.1301317764140474,0.14172436396073454,0.18497712544223346,0.15623101963475697
275,16.24,15.86,-2.36,0.09873935390776525,0.1304058012723283,0.13000945432636196,0.14143378512670957,0.18474920701390585,0.15592440525298315
276,16.303,15.91,-2.36,0.09859351990667821,0.13006846585529575,0.1298949227237091,0.14115414118234598,0.18452612101494167,0.15563213164920064
277,16.385,15.97,-2.53,0.09845252170174379,0.12974252296265967,0.1297883333852701,0.14088565293265823,0.1843079962892576,0.1553543651225033
278,16.405,16.02,-2.48,0.09831662400088638,0.12942810794100157,0.12968982699901913,0.14062852564842315,0.18409495574864668,0.15509125249462516
279,16.466,16.08,-2.38,0.09818608601119938,0.12912534113572993,0.129599533243746,0.14038294915656127,0.18388711641608343,0.15484292130852187
280,16.527,16.13,-2.54,0.09806116128835199,0.12883432809873427,0.1295175708763076,0.14014909793997068,0.1836845894685921,0.15460948004080585
281,16.589,16.19,-2.52,0.0979420975830346,0.1285551598049009,0.1294440478239963,0.13992713124650424,0.18348748027964154,0.15439101832761767
282,16.652,16.24,-2.37,0.09782913668482665,0.12828791287709645,0.12937906128189805,0.13971719320683168,0.18329588846103664,0.15418760720352717
283,16.693,16.3,-2.43,0.0977225142638952,0.12803264981923185,0.12932269781509617,0.13951941296098763,0.18310990790428222,0.1539992993530721
284,16.753,16.35,-2.55,0.09762245971095296,0.12778941925702678,0.12927503346556812,0.13933390479345975,0.18292962682140732,0.15382612937455079
285,16.815,16.41,-2.39,0.09752919597591553,0.12755825618609995,0.12923613386362087,0.13916076827670218,0.1827551277852548,0.15366811405568556
286,16.896,16.46,-2.41,0.0974429394056968,0.1273391822270136,0.12920605434371932,0.13900008842296654,0.1825864877692614,0.15352525266076447
287,16.957,16.52,-2.59,0.09736389958156969,0.127132205886898,0.1291848400645727,0.1388519358443253,0.18242377818677197,0.15339752722885555
288,16.978,16.57,-2.53,0.09729227915649845,0.12693732282727765,0.1291725261333499,0.13871636692073527,0.18226706492994124,0.15328490288267202
289,17.019,16.63,-2.43,0.09722827369283345,0.12675451613771213,0.12916913773389782,0.13859342397595953,0.182116408408288,0.1531873281476553
290,17.081,16.68,-2.6,0.09717207150075496,0.12658375661486213,0.12917469025884118,0.13848313546114624,0.18197186358696746,0.15310473528083773
291,17.121,16.74,-2.6,0.09712385347785696,0.12642500304659077,0.12918918944544172,0.13838551614585423,0.18183348002482624,0.15303704060905565
292,17.182,16.79,-2.45,0.09708379295027231,0.12627820250072122,0.12921263151509912,0.1383005673163245,0.18170130191230424,0.1529841448760957
293,17.244,16.85,-2.48,0.09705205551576099,0.12614329061808727,0.12924500331638428,0.1382282769808091,0.181575368109251,0.15294593359837383
294,17.327,16.9,-2.59,0.09702879888919923,0.1260201919095344,0.12928628247150845,0.13816862008178007,0.18145571218273013,0.15292227742875852
295,17.348,16.96,-2.41,0.09701417275091923,0.12590882005655482,0.12933643752614574,0.13812155871485046,0.18134236244489815,0.15291303252815702
296,17.41,17.01,-2.43,0.09700831859836435,0.12580907821525603,0.12939542810254226,0.13808704235423788,0.1812353419910675,0.1529180409444781
297,17.47,17.07,-2.62,0.09701136960154516,0.1257208593233713,0.12946320505586087,0.13806500808458672,0.18113466873808554,0.1529371309985737
298,17.511,17.12,-2.57,0.09702345046279645,0.1256440464100196,0.1295397106337209,0.1380553808389468,0.18104035546318276,0.15297011767674973
299,17.572,17.18,-2.48,0.09704467728134385,0.12557851290791894,0.12962487863889557,0.13805807364268755,0.1809524098434606,0.153016803029428
300,17.695,17.23,-2.67,0.09707515742318532,0.12552412296775325,0.12971863459512992,0.13807298786311573,0.18087083449619354,0.15307697657553918
301,17.716,17.29,-2.67,0.09711498939677246,0.12548073177439353,0.1298208959160333,0.13810001346457576,0.1807956270201133,0.1531504157122388
302,17.737,17.34,-2.55,0.0971642627349394,0.12544818586468012,0.12993157207698036,0.1381390292688367,0.1807267800378373,0.15323688612955047
303,17.777,17.4,-2.59,0.0972230578834854,0.12542632344647997,0.1300505647899419,0.1381899032206002,0.18066428123959682,0.1533361422295528
304,17.839,17.45,-2.72,0.09729144609677824,0.1254149747187422,0.1301777681811548,0.13825249265798426,0.18060811342841251,0.15344792754973305
305,17.901,17.51,-2.54,0.09736948934072066,0.12541396219228124,0.1303130689715337,0.1383266445878482,0.1805582545668685,0.15357197519012808
306,17.943,17.56,-2.58,0.09745724020342274,0.12542310101102094,0.13045634665972344,0.13841219596582235,0.18051467782564098,0.15370800824386108
307,18.066,17.62,-2.78,0.097554741813941,0.12544219927343192,0.13060747370769357,0.13850897398089038,0.18047735163394812,0.1538557402306672
308,18.087,17.67,-2.72,0.09766202776946509,0.12547105835389333,0.13076631572877234,0.13861679634435617,0.18044623973209353,0.15401487553298632
309,18.128,17.73,-2.62,0.0977791220713518,0.1255094732237093,0.13093273167802186,0.13873547158301078,0.1804213012262794,0.15418510983419634
310,18.189,17.78,-2.81,0.09790603907042077,0.12555723277151104,0.1311065740448659,0.1388647993363009,0.18040249064585756,0.15436613055856405
311,18.251,17.84,-2.8,0.09804278342193358,0.12561412012278195,0.13128768904789725,0.13900457065729702,0.18038975800316912,0.15455761731250803
312,18.293,17.89,-2.68,0.09818935005067915,0.12567991295825348,0.1314759168318074,0.13915456831726555,0.18038304885611403,0.1547592423267869
313,18.353,17.95,-2.76,0.09834572412658525,0.12575438383093207,0.13167109166639443,0.1393145671136638,0.18038230437358052,0.1549706708992445
314,18.416,18.0,-2.88,0.0985118810512615,0.12583730048153116,0.1318730421476182,0.13948433418138592,0.18038746140385817,0.15519156183776084
315,18.436,18.06,-2.75,0.0986877864558504,0.12592842615209304,0.13208159140067965,0.13966362930709453,0.18039845254615294,0.1554215679030639
316,18.498,18.11,-2.79,0.09887339621052599,0.12602751989759425,0.1322965572851159,0.13985220524645953,0.18041520622531987,0.15566033625105719
317,18.56,18.17,-2.98,0.09906865644593543,0.1261343368953296,0.13251775260191212,0.14004980804410136,0.18043764676992258,0.15590750887430815
318,18.621,18.22,-2.93,0.09927350358682567,0.12624862875186924,0.13274498530263482,0.14025617735600202,0.18046569449371802,0.1561627230423334
319,18.702,18.28,-2.84,0.09948786439804036,0.12637014380737938,0.1329780587005846,0.14047104677411837,0.18049926578064787,0.15642561174030828
320,18.742,18.33,-3.02,0.0997116560430266,0.12649862743709608,0.13321677168395954,0.1406941441529096,0.1805382731733945,0.15669580410583045
321,18.783,18.39,-3.0,0.09994478615495295,0.1266338223497431,0.1334609189310069,0.14092519193748432,0.18058262546553,0.15697292586337777
322,18.844,18.44,-2.85,0.10018715292051777,0.12677546888269672,0.13371029112712626,0.1411639074930847,0.18063222779726204,0.15725659975611744
323,18.905,18.5,-2.9,0.10043864517651967,0.12692330529371276,0.13396467518388036,0.14141000343563684,0.18068698175476477,0.15754644597474024
324,18.946,18.55,-3.01,0.10069914251926029,0.12707706804904548,0.13422385445986404,0.14166318796311256,0.18074678547306952,0.15784208258300772
325,18.987,18.61,-2.83,0.10096851542684888,0.1272364921078022,0.13448760898337758,0.14192316518745648,0.18081153374248898,0.1581431259397088
326,19.049,18.66,-2.83,0.10124662539447453,0.1274013112023868,0.13475571567684824,0.14218963546683316,0.18088111811855254,0.15844919111672026
327,19.11,18.72,-2.99,0.10153332508270531,0.12757125811489237,0.13502794858294453,0.1424622957379332,0.1809554270354373,0.1587598923128573
328,19.15,18.77,-2.97,0.10182845847885294,0.12774606494930643,0.13530407909232814,0.14274083984805405,0.1810343459228833,0.15907484326318985
329,19.211,18.83,-2.88,0.10213186107141545,0.12792546339939198,0.13558387617299136,0.14302495888664685,0.18111775732658963,0.15939365764349162
330,19.273,18.88,-3.08,0.10244336003757379,0.1281091850121104,0.13586710660113005,0.14331434151600114,0.18120554103207948,0.1597159494694879
331,19.314,18.94,-3.09,0.10276277444367167,0.12829696144645308,0.13615353519349754,0.14360867430073862,0.1812975741920071,0.16004133349058067
332,19.376,18.99,-2.94,0.10308991545854697,0.12848852472755798,0.13644292504117095,0.14390764203580636,0.18139373145685458,0.16036942557774897
333,19.437,19.05,-3.0,0.10342458657951757,0.1286836074959957,0.136735037744644,0.1442109280726887,0.1814938851089377,0.16069984310534216
334,19.581,19.1,-3.13,0.1037665838707587,0.12888194325211688,0.13702963365013957,0.14451821464358677,0.1815979051996138,0.16103220532650186
335,19.602,19.16,-2.95,0.10411569621374672,0.12908326659536268,0.13732647208701335,0.1448291831833399,0.18170565968956615,0.16136613374195455
336,19.622,19.21,-2.98,0.10447170556940472,0.12928731345844316,0.13762531160610392,0.14514351464886835,0.18181701459203037,0.16170125246191439
337,19.663,19.27,-3.13,0.10483438725156397,0.12949382133629064,0.13792591021887576,0.14546088983590347,0.18193183411881894,0.1620371885608302
338,19.704,19.32,-3.05,0.10520351021134543,0.12970252950969313,0.13822802563719847,0.1457809896927455,0.18204998082899315,0.16237357242470574
339,19.767,19.38,-2.92,0.10557883733206251,0.12991317926351229,0.1385314155136042,0.14610349563076108,0.18217131578002252,0.16271003809072176
340,19.829,19.43,-3.09,0.10596012573424457,0.13012551409939033,0.13883583768186805,0.146428089831316,0.1822956986812609,0.1630462235788944
341,19.892,19.49,-3.09,0.10634712709037508,0.13033927994285494,0.13914105039775052,0.14675445554883942,0.18242298804955542,0.16338177121552028
342,19.933,19.54,-2.93,0.10673958794892588,0.13055422534474137,0.13944681257972874,0.1470822774097371,0.182553041366798,0.16371632794817867
343,19.974,19.6,-2.97,0.10713725006726149,0.13077010167685968,0.13975288404953018,0.1474112417068997,0.1826857152392216,0.16404954565208038
344,20.057,19.65,-3.08,0.10753985075297823,0.13098666332184558,0.1400590257722669,0.14774103668957797,0.18282086555823954,0.16438108142757377
345,20.099,19.71,-2.92,0.10794712321322618,0.1312036678571398,0.1403650000959516,0.14807135284841927,0.18295834766261965,0.16471059788863204
346,20.161,19.76,-2.94,0.10835879691153982,0.13142087623304416,0.14067057099016195,0.1484018831954703,0.18309801650178859,0.16503776344214807
347,20.264,19.82,-3.12,0.10877459793167019,0.13163805294480363,0.14097550428360706,0.14873232353894747,0.1832397268000619,0.16536225255785858
348,20.285,19.87,-3.07,0.10919424934786516,0.1318549661986596,0.14127956790033885,0.1490623727525664,0.183383333221592,0.16568374602871544
349,20.325,19.93,-2.95,0.10961747160100052,0.13207138807181448,0.14158253209433766,0.14939173303920986,0.18352869053581763,0.1660019312215212
350,20.386,19.98,-3.09,0.11004398287992974,0.13228709466624572,0.14188416968219916,0.14972011018870243,0.1836756537831792,0.16631650231765746
351,20.448,20.04,-3.06,0.11047349950740125,0.13250186625630792,0.1421842562736432,0.15004721382946243,0.18382407844084028,0.16662716054375803
352,20.49,20.09,-2.86,0.11090573632988349,0.13271548743007022,0.1424825704995592,0.15037275767382008,0.18397382058813777,0.16693361439220616
353,20.552,20.15,-2.9,0.11134040711064513,0.13292774722434794,0.1427788942372999,0.15069645975681317,0.18412473707147628,0.1672355798313567
354,20.635,20.2,-3.01,0.11177722492544981,0.13313843925339836,0.14307301283292825,0.15101804266829458,0.1842766856683843,0.16753278050540393
355,20.656,20.26,-2.82,0.11221590256023725,0.13334736183126256,0.1433647153201222,0.15133723377820335,0.18442952525046233,0.1678249479238258
356,20.698,20.31,-2.8,0.11265615291018004,0.1335543180877425,0.14365379463543995,0.1516537654548549,0.18458311594497218,0.16811182164033628
357,20.759,20.37,-2.95,0.11309768937951836,0.13375911607800559,0.14394004782965855,0.151967375276092,0.18473731929483253,0.16839314942127942
358,20.801,20.42,-2.89,0.1135402262815794,0.13396156888580849,0.14422327627490628,0.1522778062331187,0.1848919984167969,0.16866868740339577
359,20.905,20.48,-2.8,0.11398347923838416,0.1341614947203315,0.1445032858673195,0.15258480692682183,0.18504701815760188,0.16893820024089193
360,20.926,20.53,-2.99,0.11442716557923313,0.1343587170066134,0.14477988722496796,0.15288813175637403,0.1852022452478771,0.16920146124174917
361,21.008,20.59,-2.95,0.1148710047376343,0.13455306446958248,0.145052895880796,0.15318754109992122,0.1853575484536013,0.1694582524932201
362,21.029,20.64,-2.8,0.1153147186458949,0.13474437121168942,0.14532213247032133,0.15348280148718607,0.18551279872488086,0.16970836497648323
363,21.09,20.7,-2.83,0.11575803212665654,0.13493247678415862,0.14558742291382593,0.15377368576384756,0.18566786934181045,0.1699515986704454
364,21.152,20.75,-2.93,0.11620067328062196,0.13511722625188727,0.14584859859276522,0.15405997324758713,0.18582263605716795,0.17018776264470242
365,21.212,20.81,-2.72,0.11664237386971184,0.1352984702520319,0.14610549652011262,0.15434144987571427,0.18597697723569184,0.17041667514167758
366,21.273,20.86,-2.65,0.11708286969490694,0.13547606504632734,0.1463579595043549,0.15461790834429406,0.18613077398970357,0.17063816364796042
367,21.294,20.92,-2.84,0.11752190096806601,0.13564987256718666,0.14660583630685645,0.15488914823869734,0.18628391031085206,0.17085206495486505
368,21.376,20.97,-2.74,0.1179592126770507,0.1358197604576283,0.14684898179232042,0.15515497615548388,0.18643627319777992,0.1710582252082239
369,21.437,21.03,-2.62,0.11839455494353772,0.1359856021050763,0.14708725707208936,0.15541520581552204,0.1865877527795342,0.17125649994742953
370,21.5,21.08,-2.78,0.11882768337294998,0.13614727666907714,0.14732052964005457,0.15566965816824124,0.1867382424345659,0.1714467541337408
371,21.521,21.14,-2.82,0.11925835939598622,0.1363046691029819,0.14754867350096884,0.15591816148692242,0.18688763890517107,0.17162886216788603
372,21.582,21.19,-2.63,0.11968635060126193,0.1364576701696503,0.1477715692909814,0.1561605514549528,0.18703584240723262,0.1718027078970184
373,21.623,21.25,-2.71,0.12011143105859437,0.13660617645124623,0.14798910439023522,0.15639667124299755,0.18718275673512505,0.171968184611104
374,21.727,21.3,-2.86,0.12053338163246662,0.13675009035320657,0.14820117302738667,0.15662637157706866,0.1873282893616408,0.1721251950288491
375,21.748,21.36,-2.68,0.12095199028519023,0.1368893201024779,0.1484076763759093,0.1568495107975008,0.18747235153279607,0.1722736512732918
376,21.789,21.41,-2.64,0.12136705236926551,0.13702377974012292,0.14860852264204527,0.15706595490886402,0.18761485835737263,0.1724134748371965
377,21.849,21.47,-2.83,0.12177837090841669,0.13715338910840127,0.148803627144267,0.15727557762084882,0.18775572889105077,0.17254459653839394
378,21.91,21.52,-2.75,0.12218575686676766,0.13727807383242804,0.1489929123841127,0.15747826038015697,0.18789488621498524,0.17266695646521807
379,21.972,21.58,-2.59,0.12258902940563618,0.13739776529650988,0.1491763081082667,0.15767389239342455,0.18803225750867875,0.172780503912196
380,22.014,21.63,-2.75,0.12298801612746789,0.13751240061525735,0.14935375136177792,0.15786237064120398,0.18816777411700936,0.17288519730616153
381,22.098,21.69,-2.73,0.12338255330648774,0.1376219225995738,0.14952518653233088,0.15804359988304542,0.1883013716112654,0.1729810041229849
382,22.139,21.74,-2.56,0.12377248610570196,0.13772627971763368,0.14969056538550202,0.15821749265375248,0.18843298984404944,0.17306790079513562
383,22.201,21.8,-2.6,0.12415766877993711,0.1378254260509752,0.149849847090951,0.15838396925092982,0.18856257299792142,0.17314587261032002
384,22.242,21.85,-2.7,0.12453796486465174,0.13791932124584705,0.15000299823950736,0.15854295771398189,0.18869006962766358,0.1732149136014577
385,22.284,21.91,-2.52,0.12491324735029406,0.1380079304599622,0.15014999285112002,0.15869439379476266,0.18881543269606546,0.17327502642827713
386,22.347,21.96,-2.52,0.12528339884201423,0.13809122430481804,0.1502908123736482,0.15883822092009572,0.18893861960314906,0.17332622225082092
387,22.408,22.02,-2.64,0.12564831170456398,0.13816917878374574,0.15042544567248978,0.15897439014638612,0.18905959220877155,0.17336852059515026
388,22.49,22.07,-2.56,0.1260078881922288,0.1382417752258475,0.15055388901106107,0.15910286010653446,0.1891783168485633,0.17340194921153698
389,22.51,22.13,-2.5,0.12636204056364223,0.13830900021597517,0.15067614602215698,0.15922359694935156,0.1892947643431755,0.17342654392542523
390,22.571,22.18,-2.66,0.12671069118133405,0.13837084552089463,0.1507922276702357,0.15933657427166276,0.1894089100008242,0.1734423484814399
391,22.632,22.24,-2.61,0.12705377259586437,0.13842730801177305,0.1509021522046855,0.15944177304328755,0.18952073361312402,0.17344941438072134
392,22.693,22.29,-2.56,0.12739122761439123,0.1384783895831233,0.15100594510414544,0.15953918152508678,0.1896302194442077,0.1734478007118687
393,22.775,22.35,-2.61,0.12772300935352285,0.13852409706834085,0.1511036390119661,0.15962879518027728,0.1897373562131259,0.17343757397578086
394,22.837,22.4,-2.68,0.12804908127632122,0.1385644421519708,0.15119527366290458,0.15971061657922994,0.189842137069518,0.17341880790469208
395,22.857,22.46,-2.47,0.1283694172133522,0.1385994412788485,0.1512808958011501,0.15978465529798272,0.1899445595625399,0.17339158327570045
396,22.899,22.51,-2.44,0.12868400136771826,0.1386291155602539,0.15136055908977686,0.15985092781070545,0.19004462560303376,0.17335598771908745
397,22.961,22.57,-2.55,0.12899282830405748,0.13865349067721847,0.1514343240117237,0.15990945737634885,0.19014234141893255,0.17331211552171738
398,23.001,22.62,-2.49,0.12929590292153834,0.13867259678111482,0.15150225776240578,0.15996027391969603,0.19023771750391064,0.17326006742579703
399,23.063,22.68,-2.42,0.12959324041092518,0.13868646839165485,0.15156443413407378,0.16000341390702358,0.1903307685593232,0.17319995042326275
400,23.125,22.73,-2.57,0.12988486619583844,0.1386951442924171,0.15162093339205696,0.16003892021656732,0.19042151342950595,0.173131877546057
401,23.207,22.79,-2.58,0.1301708158583763,0.13869866742401984,0.15167184214303883,0.16006684200399307,0.19050997503052064,0.17305596765255785
402,23.228,22.84,-2.47,0.13045113504929828,0.13869708477505713,0.15171725319552318,0.16008723456309024,0.19059618027244118,0.1729723452104323
403,23.289,22.9,-2.56,0.13072587938298794,0.13869044727091484,0.15175726541264853,0.16010015918192905,0.19068015997527238,0.17288114007619237
404,23.331,22.95,-2.62,0.1309951143174047,0.13867880966058727,0.15179198355750328,0.16010568299474112,0.1907619487785875,0.17278248727174303
405,23.413,23.01,-2.43,0.13125891501920636,0.13866223040161868,0.15182151813107922,0.16010387882979726,0.19084158504496498,0.1726765267582134
406,23.454,23.06,-2.4,0.13151736621418977,0.13864077154329374,0.15184598520298984,0.16009482505355288,0.19091911075730258,0.1725634032073569
407,23.495,23.12,-2.53,0.1317705620231811,0.13861449860819805,0.1518655062350731,0.16007860541131513,0.1909945714100938,0.17244326577079555
408,23.557,23.17,-2.44,0.13201860578351274,0.1385834804722633,0.1518802078980011,0.16005530886466343,0.19106801589476782,0.17231626784736884
409,23.619,23.23,-2.36,0.13226160985626081,0.13854778924340405,0.15189022188103263,0.1600250294258331,0.1911394963792215,0.17218256684883548
410,23.681,23.28,-2.51,0.13249969541947598,0.1385075001388474,0.15189568469506862,0.1599878659892556,0.191209068181696,0.17204232396416905
411,23.723,23.34,-2.5,0.13273299224770357,0.13846269136125114,0.15189673746919613,0.1599439221604415,0.19127678963917064,0.1718957039226937
412,23.786,23.39,-2.39,0.13296163847814782,0.13841344397370636,0.15189352574092854,0.1598933060823957,0.19134272197045724,0.17174287475631583
413,23.847,23.45,-2.48,0.13318578036388082,0.1383598417737251,0.15188619924037583,0.1598361302597577,0.19140692913418705,0.17158400756111686
414,23.927,23.5,-2.56,0.13340557201452655,0.13830197116631604,0.1518749116685936,0.15977251138086634,0.19146947768188288,0.1714192762585856
415,23.948,23.56,-2.41,0.1336211751248594,0.13823992103625743,0.15185982047036672,0.15970257013795242,0.19153043660631008,0.17124885735677284
416,24.009,23.61,-2.4,0.13383275869175593,0.13817378261967608,0.15184108660168463,0.15962643104566743,0.19158987718530035,0.17107292971165167
417,24.049,23.67,-2.54,0.13404049871992568,0.13810364937503974,0.15181887429216545,0.15954422225814555,0.19164787282124598,0.17089167428896126
418,24.112,23.72,-2.47,0.13424457791682776,0.1380296168536663,0.15179335080268705,0.1594560753847862,0.19170449887646762,0.17070527392680215
419,24.173,23.78,-2.4,0.13444518537715722,0.13795178256985052,0.15176468617848685,0.15936212530493382,0.19175983250466977,0.17051391309924166
420,24.234,23.83,-2.53,0.13464251625727,0.13787024587070765,0.1517330529980022,0.15926250998162256,0.19181395247870814,0.1703177776811806
421,24.295,23.89,-2.55,0.1348367714399147,0.1377851078058306,0.15169862611773763,0.159157370274554,0.1918669390148944,0.17011705471473723
422,24.336,23.94,-2.4,0.13502815718965272,0.13769647099686205,0.15166158241345953,0.15904684975247946,0.19191887359406656,0.16991193217740588
423,24.377,24.0,-2.46,0.13521688479938046,0.13760443950708537,0.1516221005180359,0.15893109450515863,0.19196983877965346,0.1697025987522569
424,24.438,24.05,-2.53,0.13540317022839946,0.1375091187111418,0.15158036055625318,0.1588102529550638,0.19201991803296,0.169489243600447
425,24.499,24.11,-2.37,0.1355872337325084,0.13741061516498781,0.15153654387694734,0.1586844756689882,0.1920691955259045,0.1692720561363074
426,24.561,24.16,-2.32,0.1357692994866158,0.1373090364762062,0.15149083278278927,0.1585539151697067,0.19211775595145095,0.16905122580526635
427,24.602,24.22,-2.44,0.13594959520039554,0.1372044911747834,0.15144341025806565,0.15841872574782395,0.1921656843319964,0.16882694186484876
428,24.664,24.27,-2.37,0.13612835172752488,0.13709708858446465,0.15139445969479612,0.15827906327394564,0.19221306582599595,0.16859939316897818
429,24.705,24.33,-2.3,0.1363058026690601,0.13698693869479994,0.1513441646175287,0.15813508501131976,0.19225998553313825,0.1683687679557922
430,24.788,24.38,-2.46,0.13648218397151504,0.1368741520339944,0.15129270840716794,0.15798694942910288,0.19230652829840947,0.1681352536391698
431,24.83,24.44,-2.51,0.13665773352021207,0.13675883954268078,0.15124027402420817,0.15783481601641347,0.19235277851540178,0.1678990366041657
432,24.87,24.49,-2.38,0.1368326907284646,0.1366411124487343,0.15118704373175887,0.15767884509733743,0.19239881992922941,0.16766030200654491
433,24.932,24.55,-2.43,0.13700729612312992,0.1365210821432521,0.15113319881876006,0.15751919764705058,0.1924447354394128,0.16741923357661131
434,25.033,24.6,-2.54,0.13718179092703944,0.13639886005781993,0.15107891932378914,0.15735603510921775,0.1924906069030811,0.1671760134275194
435,25.054,24.66,-2.44,0.13735641663878712,0.13627455754318665,0.15102438375985078,0.1571895192148198,0.192536514938835,0.1669308218682511
436,25.096,24.71,-2.38,0.13753141461034718,0.13614828574946047,0.1509697688405302,0.15701981180254923,0.19258253873160947,0.1666838372214236
437,25.158,24.77,-2.55,0.137707025623002,0.13602015550793609,0.1509152492078809,0.156847074640904,0.1926287558388765,0.16643523564608204
438,25.199,24.82,-2.44,0.137883489462078,0.13589027721465682,0.15086099716240717,0.15667146925210398,0.19267524199852723,0.16618519096562354
439,25.283,24.88,-2.36,0.13806104449100992,0.13575876071582038,0.15080718239550053,0.1564931567379627,0.19272207093877777,0.16593387450099545
440,25.387,24.93,-2.45,0.13823992722527972,0.13562571519513994,0.1507539717246894,0.15631229760786128,0.19276931419044993,0.1656814549093076
441,25.408,24.99,-2.59,0.13842037190680676,0.1354912490632804,0.1507015288320657,0.15612905160899082,0.192817040901987,0.16542809802799519
442,25.428,25.04,-2.47,0.1386026100793906,0.1353554698494909,0.1506500140062508,0.1559435775590511,0.19286531765757414,0.16517396672466111
443,25.491,25.1,-2.54,0.13878687016583227,0.1352184840955577,0.15059958388826955,0.15575603318159967,0.19291420829873906,0.16491922075271478
444,25.532,25.15,-2.67,0.13897337704737073,0.13508039725219403,0.15055039122169903,0.1555665749442432,0.19296377374979798,0.16466401661291444
445,25.594,25.21,-2.6,0.13916235164607202,0.13494131357797365,0.15050258460745772,0.1553753578998521,0.1930140718474885,0.16440850742090996
446,25.654,25.26,-2.58,0.13935401051079788,0.13480133604090075,0.15045630826359124,0.1551825355309677,0.19306515717511163,0.1641528427808745
447,25.715,25.32,-2.75,0.1395485654073621,0.13466056622268954,0.1504117017904047,0.15498825959755766,0.1931170809014778,0.16389716866531004
448,25.776,25.37,-2.67,0.13974622291344627,0.13451910422581959,0.15036889994127836,0.15479267998827057,0.1931698906249291,0.1636416273011167
449,25.816,25.43,-2.58,0.13994718401881046,0.13437704858342556,0.15032803239949286,0.15459594457533946,0.1932236302226867,0.16338635706202123
450,25.878,25.48,-2.63,0.14015164373130862,0.1342344961720843,0.15028922356138522,0.154398199073288,0.19327833970575634,0.1631314923674674
451,25.94,25.54,-2.68,0.1403597906892164,0.13409154212756227,0.15025259232615554,0.15419958690159596,0.19333405507960782,0.1628771635880745
452,25.98,25.59,-2.52,0.1405718067803948,0.13394827976358997,0.15021825189264107,0.15400024905148232,0.19339080821084556,0.1626234969577639
453,26.042,25.65,-2.56,0.14078786676884145,0.13380480049372923,0.15018630956337814,0.1538003239569598,0.19344862670009294,0.16237061449263882
454,26.165,25.7,-2.7,0.1410081379292101,0.1336611937563955,0.15015686655627414,0.1535999473702967,0.19350753376132115,0.1621186339166846
455,26.185,25.76,-2.63,0.14123277968990366,0.13351754694309018,0.150130017824211,0.15339925224199952,0.19356754810786347,0.16186766859433716
456,26.206,25.81,-2.58,0.14146194328536588,0.13337394532988844,0.150105851882904,0.15319836860540473,0.19362868384535903,0.1616178274699514
457,26.246,25.87,-2.73,0.14169577141820486,0.13323047201222069,0.15008445064733514,0.15299742346594727,0.1936909503718653,0.1613692150141909
458,26.307,25.92,-2.68,0.14193439793177606,0.13308720784298092,0.15006588927707573,0.15279654069516815,0.1937543522853635,0.16112193117736198
459,26.369,25.98,-2.62,0.14217794749383095,0.13294423137399555,0.15005023603079756,0.1525958409295312,0.193818889298865,0.16087607134971493
460,26.43,26.03,-2.71,0.1424265352918148,0.13280161880088734,0.150037552130261,0.15239544147413603,0.19388455616331365,0.16063172632873948
461,26.513,26.09,-2.75,0.14268026674036266,0.1326594439113695,0.1500278916340523,0.15219545621142927,0.19395134259846422,0.16038898229347778
462,26.533,26.14,-2.61,0.14293923720150475,0.13251777803700643,0.15002130132132455,0.15199599551503193,0.19401923323190598,0.16014792078587398
463,26.574,26.2,-2.65,0.14320353171804917,0.13237669000847266,0.15001782058577662,0.15179716616880307,0.19408820754638867,0.15990861869916306
464,26.677,26.25,-2.76,0.14347322476057198,0.13223624611433704,0.15001748134008733,0.15159907129125208,0.1941582398355998,0.15967114827328271
465,26.696,26.31,-2.69,0.14374837998842072,0.13209651006338924,0.15002030793100155,0.15140181026539676,0.1942292991685369,0.15943557709726705
466,26.757,26.36,-2.64,0.1440290500251346,0.13195754295051582,0.15002631706525787,0.15120547867414028,0.19430134936261784,0.15920196811856083
467,26.798,26.42,-2.8,0.14431527624870572,0.13181940322612423,0.15003551774654736,0.15101016824121222,0.19437434896566325,0.15897037965917765
468,26.86,26.47,-2.76,0.1446070885971278,0.13168214666910777,0.15004791122369288,0.15081596677770306,0.19444825124687495,0.15874086543862478
469,26.921,26.53,-2.68,0.1449045053897003,0.13154582636334566,0.15006349095024107,0.15062295813421533,0.19452300419691892,0.1585134746035204
470,26.982,26.58,-2.75,0.1452075331645672,0.13141049267773486,0.15008224255565383,0.1504312221586583,0.19459855053720354,0.1582882517638354
471,27.045,26.64,-2.8,0.14551616653296864,0.1312761932497542,0.15010414382827866,0.1502408346597198,0.1946748277384277,0.15806523703569922
472,27.088,26.69,-2.68,0.1458303880506674,0.1311429729725655,0.1501291647102586,0.150051867376057,0.1947517680484568,0.1578444660907038
473,27.149,26.75,-2.7,0.14615016810698295,0.1310108739856563,0.1501572673045192,0.14986438795125262,0.1948292985295758,0.15762597021163127
474,27.272,26.8,-2.83,0.1464754648318294,0.130879935669026,0.1501884058939457,0.14967845991457393,0.19490734110516023,0.15740977635450978
475,27.293,26.86,-2.77,0.14680622402111046,0.13075019464090695,0.15022252697284127,0.1494941426675596,0.1949858126157978,0.15719590721688267
476,27.313,26.91,-2.73,0.14714237908078173,0.13062168475900165,0.1502595692907381,0.1493114914764374,0.19506462488488485,0.1569843813121553
477,27.354,26.97,-2.84,0.1474838509898522,0.13049443712520226,0.15029946390862065,0.14913055747035348,0.19514368479370806,0.15677521304987171
478,27.416,27.02,-2.84,0.1478305482825557,0.13036848009375115,0.15034213426760928,0.1489513876453759,0.19522289436599927,0.15656841282176714
479,27.478,27.08,-2.73,0.14818236704988583,0.13024383928279523,0.15038749627013495,0.14877402487423033,0.19530215086193237,0.15636398709343755
480,27.52,27.13,-2.79,0.14853919096066162,0.13012053758928657,0.1504354583736188,0.14859850792172039,0.19538134688151074,0.15616193850146268
481,27.604,27.19,-2.87,0.14890089130227221,0.12999859520718327,0.15048592169664762,0.14842487146578226,0.19546037047727607,0.15596226595581475
482,27.625,27.24,-2.72,0.14926732704122792,0.1298780296489056,0.1505387801376117,0.1482531461241166,0.19553910527625368,0.15576496474737583
483,27.687,27.3,-2.68,0.14963834490362252,0.12975885577000454,0.1505939205057449,0.14808335848632645,0.19561743061104048,0.1555700266603727
484,27.749,27.35,-2.85,0.15001377947558847,0.12964108579699793,0.15065122266448075,0.14791553115147033,0.19569522165993225,0.15537744008952514
485,27.79,27.41,-2.79,0.1503934533238036,0.1295247293583272,0.15071055968700692,0.14774968277092798,0.19577234959598452,0.15518719016168714
486,27.852,27.46,-2.67,0.15077717713608876,0.12940979351838489,0.15077179802386206,0.14758582809647447,0.1958486817448991,0.1549992588617513
487,27.894,27.52,-2.86,0.15116474988212308,0.12929628281455915,0.15083479768238245,0.14742397803346635,0.19592408175162537,0.1548136251625816
488,27.996,27.57,-2.92,0.15155595899428195,0.1291841992972388,0.15089941241777352,0.14726413969905958,0.19599840975555044,0.15463026515874348
489,28.016,27.63,-2.78,0.15195058056856833,0.1290735425727213,0.1509654899355533,0.1471063164853989,0.1960715225741371,0.15444915220380454
490,28.077,27.68,-2.85,0.1523483795855623,0.1289643098489656,0.15103287210509814,0.14695050812772809,0.19614327389484454,0.15427025705098046
491,28.138,27.74,-2.98,0.15274911015125572,0.1288564959841266,0.1511013951840007,0.14679671077736767,0.19621351447513585,0.15409354799689903
492,28.18,27.79,-2.85,0.15315251575756458,0.12875009353780303,0.15117089005292805,0.14664491707949515,0.196282092350343,0.15391899102824963
493,28.242,27.85,-2.8,0.15355832956223692,0.12864509282492254,0.15124118246064003,0.14649511625564396,0.19634885304913305,0.15374654997107276
494,28.344,27.9,-2.96,0.153966274687804,0.1285414819721785,0.15131209327880343,0.1463472941908144,0.19641363981629237,0.15357618664243447
495,28.364,27.96,-2.91,0.15437606453916952,0.1284392469769292,0.1513834387662102,0.14620143352507675,0.19647629384252183,0.15340786100422624
496,28.406,28.01,-2.79,0.15478740313939895,0.12833837176846855,0.15145503084198528,0.1460575137495468,0.19653665450092128,0.15324153131883114
497,28.468,28.07,-2.86,0.15519998548325734,0.12823883827157856,0.15152667736735634,0.1459155113066209,0.19659455958982266,0.15307715430640464
498,28.53,28.12,-2.92,0.15561349790803805,0.12814062647227992,0.1515981824355603,0.145775399694363,0.1966498455816172,0.15291468530352653
499,28.573,28.18,-2.76,0.15602761848121707,0.12804371448569635,0.1516693466694698,0.14563714957494228,0.19670234787720958,0.1527540784229851
500,28.614,28.23,-2.8,0.15644201740446256,0.1279480786259504,0.15173996752653443,0.1455007288870109,0.19675190106572724,0.1525952867144532
501,28.698,28.29,-2.93,0.1568563574335222,0.12785369347799996,0.15180983961064076,0.14536610296189456,0.19679833918910597,0.15243826232580632
502,28.738,28.34,-2.85,0.15727029431348985,0.12776053197131773,0.15187875499049158,0.1452332346434388,0.1968414960111666,0.15228295666482367
503,28.799,28.4,-2.78,0.15768347722892115,0.12766856545530442,0.1519465035240999,0.14510208441132483,0.19688120529078784,0.15212932056100167
504,28.841,28.45,-2.96,0.15809554926821953,0.12757776377631935,0.1520128731889816,0.14497261050764004,0.1969173010587623,0.15197730442720822
505,28.903,28.51,-2.89,0.15850614790165787,0.12748809535620703,0.15207765041761204,0.14484476906647628,0.196949617897902,0.15182685842091162
506,28.983,28.56,-2.78,0.15891490547233283,0.12739952727220036,0.1521406204376921,0.14471851424633433,0.19697799122593646,0.15167793260473114
507,29.004,28.62,-2.84,0.15932144969928722,0.12731202533808292,0.15220156761674894,0.14459379836512515,0.1970022575807269,0.15153047710606776
508,29.066,28.67,-2.87,0.1597254041919797,0.12722555418649514,0.15226027581058257,0.1444705720375693,0.1970222549073004,0.15138444227558165
509,29.13,28.73,-2.69,0.16012638897524523,0.12714007735226648,0.15231652871505777,0.14434878431480333,0.19703782284619872,0.15123977884428555
510,29.173,28.78,-2.72,0.16052402102387586,0.12705555735665067,0.1523701102207311,0.1442283828259947,0.197048803022633,0.15109643807901252
511,29.233,28.84,-2.82,0.1609179148059519,0.12697195579233392,0.15242080476979625,0.1441093139217479,0.19705503933594018,0.15095437193600317
512,29.315,28.89,-2.74,0.16130768283405214,0.12688923340908087,0.1524683977148199,0.1439915228190614,0.19705637824884326,0.1508135332123411
513,29.357,28.95,-2.67,0.16169293622347353,0.12680735019987902,0.15251267567873306,0.14387495374757078,0.19705266907602398,0.15067387569495178
514,29.459,29.0,-2.8,0.16207328525659628,0.12672626548743943,0.15255342691553764,0.14375955009679672,0.19704376427151987,0.1505353543068781
515,29.48,29.06,-2.75,0.16244833995253283,0.12664593801091376,0.15259044167118085,0.14364525456411714,0.19702951971444954,0.15039792525055373
516,29.523,29.11,-2.65,0.16281771064120096,0.12656632601269202,0.15262351254404105,0.14353200930319548,0.19700979499256496,0.15026154614781012
517,29.563,29.17,-2.76,0.1631810085409654,0.12648738732515097,0.15265243484446334,0.14341975607261778,0.19698445368312298,0.15012617617636798
518,29.626,29.22,-2.8,0.16353784633898671,0.12640907945723034,0.15267700695277578,0.14330843638450957,0.19695336363055996,0.14999177620258206
519,29.687,29.28,-2.63,0.16388783877340754,0.12633135968071862,0.15269703067521026,0.14319799165292357,0.196916397220447,0.14985830891021887
520,29.729,29.33,-2.5,0.1642306032164872,0.12625418511613484,0.15271231159714493,0.1430883633417982,0.19687343164919605,0.1497257389250578
521,29.834,29.39,-2.59,0.16456576025777078,0.12617751281809222,0.15272265943308178,0.14297949311228766,0.19682434918898278,0.1495940329351113
522,29.855,29.44,-2.5,0.1648929342863498,0.1261012998600281,0.1527278883727697,0.14287132296925945,0.1967690374473638,0.14946315980626104
523,29.895,29.5,-2.4,0.16521175407125493,0.12602550341818206,0.15272781742289188,0.14276379540674639,0.19670738962109716,0.14933309069310274
524,29.958,29.55,-2.53,0.1655218533390279,0.12595008085469855,0.15272227074375266,0.14265685355213037,0.1966393047437171,0.14920379914479304
525,29.997,29.61,-2.5,0.16582287134754523,0.12587498979973272,0.1527110779804222,0.14255044130883063,0.19656468792644669,0.1490752612056985
526,30.079,29.66,-2.36,0.1661144534551998,0.12580018823244044,0.15269407458781592,0.14244450349727475,0.19648345059205782,0.1489474555106619
527,30.1,29.72,-2.39,0.16639625168457844,0.12572563456074198,0.1526711021492046,0.14233898599394065,0.19639551070130443,0.14882036337471716
528,30.182,29.77,-2.45,0.16666792527980498,0.1256512876997571,0.1526420086876551,0.1422338358682722,0.19630079297156677,0.14869396887710118
529,30.224,29.83,-2.29,0.16692914125673733,0.12557710714881637,0.15260664896990297,0.14212900151728408,0.1961992290873617,0.14856825893942044
530,30.284,29.88,-2.25,0.1671795749452257,0.12550305306695947,0.15256488480215186,0.14202443279767735,0.19609075790239694,0.14844322339783206
531,30.344,29.94,-2.47,0.1674189105226499,0.1254290863468318,0.15251658531730275,0.14192008115527902,0.195975325632873,0.14831885506909723
532,30.385,29.99,-2.41,0.16764684153795853,0.12535516868689106,0.15246162725312576,0.1418158997516098,0.1958528860417615,0.14819514981036583
533,30.467,30.05,-2.33,0.1678630714254337,0.12528126266183603,0.15239989522090613,0.1417118435873766,0.19572340061380794,0.14807210657256106
534,30.488,30.1,-2.45,0.1680673140073989,0.12520733179117174,0.15233128196411874,0.14160786962268268,0.19558683872101337,0.14794972744725512
535,30.551,30.16,-2.48,0.16825929398507677,0.12513334060582626,0.1522556886067071,0.14150393689375382,0.19544317777833836,0.1478280177069604
536,30.633,30.21,-2.3,0.16843874741678894,0.12505925471273927,0.15217302489056317,0.14140000662598803,0.19529240338936463,0.14770698583879113
537,30.674,30.27,-2.32,0.16860542218268876,0.12498504085734456,0.15208320940182438,0.1412960423431442,0.19513450948164446,0.14758664357147175
538,30.716,30.32,-2.41,0.16875907843522958,0.12491066698387165,0.1519861697856243,0.14119200997248524,0.19496949843146874,0.1474670058956828
539,30.779,30.38,-2.25,0.16889948903459787,0.12483610229339429,0.15188184294894586,0.14108787794569164,0.19479738117779927,0.14734809107774086
540,30.841,30.43,-2.17,0.16902643996837666,0.1247613172995556,0.15177017525123845,0.14098361729535736,0.19461817732513315,0.1472299206666105
541,30.923,30.49,-2.32,0.1691397307547559,0.12468628388189935,0.15165112268247394,0.14087920174687893,0.1944319152350973,0.14711251949424986
542,30.944,30.54,-2.26,0.16923917482865344,0.1246109753367372,0.15152465102832913,0.14077460780555504,0.19423863210660045,0.1469959156692983
543,30.985,30.6,-2.14,0.16932459991016113,0.12453536642548725,0.15139073602219982,0.14066981483873522,0.19403837404440538,0.14688014056412763
544,31.048,30.65,-2.35,0.1693958483547766,0.12445943342042595,0.15124936348377874,0.14056480515287917,0.19383119611601302,0.14676522879529555
545,31.11,30.71,-2.38,0.16945277748491927,0.1243831541478057,0.1511005294439613,0.1404595640654139,0.1936171623967684,0.14665121819746169
546,31.151,30.76,-2.22,0.1694952599022616,0.12430650802829975,0.1509442402558717,0.14035407997129903,0.19339634600311226,0.14653814979085042
547,31.213,30.82,-2.3,0.16952318378043618,0.12422947611474106,0.15078051269183662,0.14024834440421852,0.1931688291139032,0.14642606774236028
548,31.275,30.87,-2.41,0.16953645313769997,0.12415204112712165,0.15060937402616087,0.14014235209231146,0.19293470297973234,0.14631501932043517
549,31.316,30.93,-2.31,0.16953498808914846,0.12407418748481791,0.15043086210358358,0.1400361010083423,0.19269406792014926,0.14620505484382018
550,31.378,30.98,-2.22,0.16951872507807625,0.12399590133600412,0.15024502539330792,0.13992959241420033,0.1924470333087251,0.14609622762433105
551,31.419,31.04,-2.36,0.16948761708608878,0.12391717058421754,0.15005192302850912,0.13982283089961797,0.19219371754588283,0.14598859390377578
552,31.481,31.09,-2.3,0.16944163382158853,0.12383798491204243,0.1498516248312311,0.13971582441501604,0.19193424801943404,0.14588221278518357
553,31.542,31.15,-2.19,0.16938076188628762,0.12375833580188964,0.14964421132259265,0.13960858429841663,0.1916687610527746,0.1457771461585165
554,31.583,31.2,-2.23,0.1693050049194439,0.12367821655386137,0.14942977371824298,0.13950112529639835,0.19139740184071305,0.14567345862105757
555,31.666,31.26,-2.28,0.16921438371957087,0.12359762230070015,0.14920841390903342,0.13939346557909643,0.19112032437292667,0.14557121739268883
556,31.748,31.31,-2.13,0.16910893634342786,0.12351655001983253,0.14898024442689825,0.1392856267492729,0.19083769134506695,0.14547049222628242
557,31.768,31.37,-2.18,0.16898871818215636,0.12343499854252377,0.14874538839596618,0.13917763384549123,0.19054967405756895,0.14537135531343143
558,31.81,31.42,-2.32,0.1688538020144807,0.12335296856016215,0.14850397946895216,0.13906951533942927,0.1902564523022486,0.14527388118574333
559,31.871,31.48,-2.28,0.16870427803693597,0.12327046262769246,0.1482561617489028,0.1389613031273548,0.18995821423679998,0.14517814661191425
560,31.912,31.53,-2.15,0.16854025387112356,0.12318748516421632,0.14800208969639228,0.13885303251577763,0.18965515624732318,0.145084230490793
561,32.015,31.59,-2.32,0.16836185454802863,0.1231040424507766,0.14774192802229097,0.13874474220127714,0.1893474827990229,0.14499221374064272
562,32.036,31.64,-2.28,0.16816922246945631,0.12302014262534493,0.14747585156624787,0.13863647424450004,0.1890354062752205,0.14490217918480544
563,32.077,31.7,-2.15,0.16796251734665651,0.12293579567503715,0.14720404516104432,0.13852827403833184,0.18871914680483157,0.14481421143397596
564,32.139,31.75,-2.21,0.1677419161162195,0.1228510134255871,0.14692670348299364,0.13842019027026214,0.18839893207847708,0.14472839676529028
565,32.201,31.81,-2.19,0.1675076128333465,0.12276580952811708,0.14664403088858108,0.13831227487898506,0.18807499715341477,0.1446448229984377
566,32.263,31.86,-2.04,0.1672598185426353,0.12268019944324803,0.14635624123755925,0.13820458300529456,0.1877475842475055,0.14456357936900605
567,32.306,31.92,-2.06,0.16699876112656992,0.12259420042259608,0.1460635577027445,0.1380971729373417,0.18741694252246494,0.1444847563992633
568,32.429,31.97,-2.19,0.16672468513196056,0.12250783148770318,0.14576621256678923,0.13799010605031345,0.18708332785669618,0.1444084457665643
569,32.45,32.03,-2.13,0.16643785157463017,0.12242111340644861,0.14546444700623745,0.13788344674058292,0.18674700260805005,0.1443347401695515
570,32.492,32.08,-2.07,0.1661385377226975,0.12233406866698719,0.14515851086320292,0.1377772623543734,0.18640823536689927,0.14426373319230407
571,32.534,32.14,-2.23,0.16582703685886152,0.12224672144925673,0.1448486624050471,0.13767162311097556,0.18606730069994798,0.1441955191665847
572,32.596,32.19,-2.23,0.16550365802214068,0.12215909759409792,0.14453516807246827,0.137566602020571,0.18572447888521076,0.14413019303234043
573,32.656,32.25,-2.14,0.1651687257295587,0.12207122457003353,0.1442183022164408,0.13746227479673873,0.1853800556386104,0.14406785019662358
574,32.759,32.3,-2.22,0.1648225796782939,0.12198313143776175,0.1438983468244661,0.13735871976375166,0.18503432183265253,0.1440085863911106
575,32.78,32.36,-2.29,0.16446557442881507,0.12189484881242756,0.1435755912366107,0.1372560177588035,0.18468757320764206,0.14395249752840608
576,32.801,32.41,-2.18,0.16409807906952156,0.12180640882374565,0.14325033185181,0.13715425202934153,0.1843401100759162,0.14389967955732239
577,32.883,32.47,-2.19,0.16372047686340116,0.12171784507405421,0.14292287182491617,0.13705350812570688,0.18399223701957992,0.14385022831732222
578,32.904,32.52,-2.34,0.16333316487722818,0.12162919259437735,0.14259352075497392,0.136953873789291,0.18364426258224625,0.14380423939229844
579,32.966,32.58,-2.28,0.16293655359385445,0.1215404877985702,0.1422625943652142,0.13685543883641466,0.18329649895529776,0.14376180796385662
580,33.007,32.63,-2.21,0.1625310665081989,0.12145176843561256,0.14193041417526805,0.1367582950381268,0.18294926165920375,0.14372302866425649
581,33.111,32.69,-2.39,0.1621171397076112,0.12136307354010963,0.1415973071661166,0.1366625359961178,0.18260286922044014,0.143687995429169
582,33.131,32.74,-2.43,0.16169522143735368,0.12127444338105532,0.14126360543830982,0.1365682570149444,0.18225764284456408,0.14365680135041733
583,33.192,32.8,-2.33,0.16126577165200204,0.12118591940891522,0.14092964586399806,0.13647555497077848,0.18191390608600144,0.14362953852888102
584,33.232,32.85,-2.41,0.16082926155360233,0.1210975442010911,0.14059576973333698,0.13638452817690397,0.18157198451510556,0.14360629792775698
585,33.314,32.91,-2.56,0.16038617311743686,0.1210093614058366,0.14026232239583222,0.1362952762462005,0.18123220538303805,0.14358716922638168
586,33.355,32.96,-2.44,0.15993699860624122,0.1209214156847001,0.1399296528971878,0.13620789995086485,0.1808948972850183,0.14357224067482402
587,33.396,33.02,-2.45,0.15948224007369458,0.12083375265357475,0.13959811361221863,0.13612250107962123,0.18056038982248332,0.14356159894945666
588,33.479,33.07,-2.64,0.1590224088579775,0.12074641882243284,0.1392680598743893,0.13603918229266038,0.18022901326469382,0.14355532900970913
589,33.519,33.13,-2.61,0.15855802506615999,0.12065946153381879,0.13893984960254246,0.13595804697453362,0.17990109821031386,0.14355351395620183
590,33.561,33.18,-2.57,0.15808961705015226,0.12057292890017018,0.13861384292538326,0.13587919908521914,0.17957697524948718,0.143556234890458
591,33.622,33.24,-2.73,0.1576177208749363,0.12048686974003273,0.13829040180429122,0.13580274300957196,0.17925697462691845,0.14356357077638982
592,33.683,33.29,-2.81,0.1571428797797979,0.12040133351323432,0.13796988965502988,0.135728783405375,0.17894142590645015,0.14357559830376002
593,33.723,33.35,-2.67,0.15666564363329413,0.12031637025508686,0.13765267096891992,0.1356574250502188,0.17863065763760277,0.14359239175382277
594,33.787,33.4,-2.73,0.1561865683827135,0.12023203050968949,0.13733911093403464,0.13558877268744698,0.17832499702452317,0.14361402286735037
595,33.847,33.46,-2.86,0.1557062154988057,0.12014836526241296,0.137029575056967,0.13552293087140793,0.17802476959776137,0.14364056071525197
596,33.908,33.51,-2.73,0.1552251514165688,0.12006542587164881,0.1367244287857019,0.1354600038122507,0.1777302988892803,0.1436720715719859
597,33.969,33.57,-2.71,0.15474394697288996,0.11998326399990746,0.13642403713410897,0.13540009522049445,0.17744190611109212,0.14370861879195673
598,34.011,33.62,-2.9,0.15426317684184054,0.11990193154434478,0.13612876430855378,0.13534330815158685,0.17715990983791263,0.14375026268907629
599,34.094,33.68,-2.85,0.15378341896841982,0.11982148056679527,0.13583897333710537,0.1352897448506633,0.17688462569421992,0.14379706041965798
600,34.114,33.73,-2.79,0.15330525400152686,0.11974196322339063,0.13555502570179592,0.13523950659773296,0.17661636604610154,0.14384906586880716
601,34.237,33.79,-2.97,0.15282926472691752,0.11966343169384662,0.13527728097437203,0.1351926935535357,0.17635543969826928,0.14390632954046662
602,34.258,33.84,-3.06,0.15235603550087343,0.11958593811050722,0.1350060964559667,0.13514940460633448,0.17610215159660345,0.1439688984512789
603,34.299,33.9,-2.92,0.1518861516852717,0.11950953448724021,0.1347418268211105,0.13510973721991767,0.17585680253657254,0.1440368160284283
604,34.36,33.95,-2.98,0.1514201990847029,0.11943427264828134,0.13448482376649387,0.13507378728308553,0.17561968887784501,0.14411012201162804
605,34.403,34.01,-3.09,0.15095876338623748,0.11936020415712509,0.13423543566488144,0.1350416489608851,0.1753911022653804,0.14418885235941725
606,34.464,34.06,-2.98,0.15050242960239074,0.11928738024556114,0.1339940072245608,0.13501341454784319,0.17517132935725568,0.14427303915992823
607,34.527,34.12,-2.95,0.15005178151779242,0.11921585174295639,0.13376087915468568,0.13498917432342955,0.17496065155946774,0.14436271054627026
608,34.588,34.17,-3.11,0.1496074011400369,0.1191456690058827,0.13353638783685018,0.1349690164099647,0.1747593447679399,0.14445789061666348
609,34.609,34.23,-3.06,0.1491698681551683,0.119076881848192,0.1333208650032035,0.1349530266331789,0.17456767911795287,0.1445585993594436
610,34.669,34.28,-3.0,0.14873975938824185,0.11900953947164342,0.1331146374213853,0.13494128838563235,0.1743859187412162,0.1446648525830532
611,34.73,34.34,-3.12,0.14831764826939742,0.11894369039719091,0.13291802658654375,0.1349338824932119,0.17421432153078717,0.14477666185113033
612,34.771,34.39,-3.18,0.14790410430588022,0.11887938239704189,0.13273134842068504,0.1349308870849207,0.17405313891403132,0.1448940344228089
613,34.833,34.45,-3.11,0.1474996925604397,0.11881666242759832,0.1325549129795918,0.1349323774661745,0.1739026156338047,0.14501697319834342
614,34.895,34.5,-3.17,0.14710497313653342,0.11875557656338853,0.132389024167541,0.1349384259958026,0.1737629895380186,0.1451454766701657
615,34.975,34.56,-3.28,0.14672050067075323,0.11869616993208973,0.13223397946004148,0.13494910196692173,0.17363449137772285,0.14527953887946982
616,34.996,34.61,-3.25,0.1463468238328684,0.11863848665073175,0.13209006963479894,0.13496447149181395,0.17351734461381774,0.14541914937840728
617,35.059,34.67,-3.26,0.14598448483384502,0.11858256976316074,0.13195757851110002,0.13498459739090118,0.17341176523247226,0.1455642931979549
618,35.1,34.72,-3.37,0.1456340189421509,0.11852846117883066,0.13183678269778187,0.13500953908588595,0.17331796156929732,0.14571495082150593
619,35.162,34.78,-3.3,0.1452959540085909,0.11847620161298456,0.13172795134991663,0.13503935249713436,0.1732361341422851,0.1458710981642276
620,35.223,34.83,-3.22,0.14497080999985665,0.11842583052828427,0.13163134593429487,0.13507408994540282,0.1731664754934919,0.14603270655822703
621,35.326,34.89,-3.31,0.1446590985409316,0.1183773860779468,0.13154722000375577,0.13511380005803866,0.17310917003941284,0.1461997427435659
622,35.347,34.94,-3.31,0.14436132246647626,0.1183309050504441,0.13147581898038574,0.1351585276797991,0.17306439392997716,0.14637216886516294
623,35.389,35.0,-3.19,0.14407797538132763,0.11828642281582019,0.13141737994759323,0.13520831378843645,0.17303231491608473,0.14654994247561423
624,35.451,35.05,-3.15,0.14380954123027806,0.11824397327367195,0.13137213145106016,0.13526319541518655,0.17301309222559944,0.14673301654394855
625,35.493,35.11,-3.22,0.1435564938773335,0.11820358880283005,0.13134029330856767,0.1353232055702756,0.17300687644771562,0.1469213394703184
626,35.574,35.16,-3.15,0.14331929669468002,0.11816530021276697,0.13132207642868834,0.1353883731735319,0.17301380942561936,0.14711485510660258
627,35.594,35.22,-3.12,0.1430984021616008,0.11812913669675085,0.13131768263833046,0.1354587229901607,0.17303402415738134,0.14731350278286587
628,35.698,35.27,-3.23,0.14289425147359106,0.11809512578675921,0.131327304519112,0.13553427557171407,0.1730676447050324,0.14751721733959233
629,35.718,35.33,-3.18,0.14270727416190995,0.11806329331016402,0.13135112525253448,0.1356150472022724,0.17311478611178183,0.14772592916559008
630,35.76,35.38,-3.14,0.1425378877237937,0.11803366334820066,0.1313893184739192,0.13570104984984874,0.17317555432733914,0.14793956424145716
631,35.822,35.44,-3.2,0.14238649726353925,0.11800625819623534,0.13144204813506863,0.13579229112302477,0.17325004614129436,0.14815804418849843
632,35.883,35.49,-3.24,0.1422534951446479,0.11798109832584727,0.13150946837561503,0.13588877423282847,0.1733383491245029,0.14838128632298292
633,35.944,35.55,-3.12,0.14213926065319585,0.1179582023487448,0.13159172340301925,0.13599049795986154,0.17344054157841193,0.14860920371563097
634,36.006,35.6,-3.16,0.14204415967257336,0.1179375869825331,0.1316889473811855,0.1360974566266727,0.17355669249225547,0.14884170525620832
635,36.067,35.66,-3.24,0.14196854436971132,0.11791926701834894,0.13180126432765982,0.1362096400753481,0.1736868615080384,0.14907869572309287
636,36.109,35.71,-3.16,0.1419127528928967,0.11790325529037125,0.13192878801937663,0.13632703365026483,0.17383109889322473,0.14932007585766058
637,36.17,35.77,-3.1,0.14187710908127624,0.11788956264720991,0.1320716219069127,0.13644961818592732,0.1739894455210411,0.149565742443321
638,36.211,35.82,-3.22,0.14186192218615912,0.11787819792516965,0.1322298590371969,0.13657736999979478,0.1741619328583038,0.14981558838902495
639,36.273,35.88,-3.14,0.14186748660424484,0.117869167923383,0.1324035819846105,0.13671026089000987,0.17434858296066982,0.1500695028170647
640,36.333,35.93,-3.07,0.1418940816229226,0.11786247738080811,0.13259286279039983,0.13684825813795407,0.17454940847521214,0.1503273711549923
641,36.418,35.99,-3.11,0.14194197117780957,0.11785812895509157,0.13279776291031561,0.13699132451557225,0.17476441265021986,0.15058907523148715
642,36.437,36.04,-3.14,0.14201140362271586,0.11785612320330191,0.13301833317039258,0.13713941829742018,0.17499358935212736,0.15085449337600845
643,36.478,36.1,-3.04,0.1421026115122355,0.11785645856454581,0.13325461373078232,0.13729249327739837,0.17523692308948005,0.15112350052206963
644,36.54,36.15,-3.09,0.14221581139716494,0.11785913134448234,0.1335066340575542,0.13745049879013388,0.17549438904385475,0.15139596831396462
645,36.601,36.21,-3.2,0.14235120363293924,0.11786413570175168,0.1337744129023809,0.13761337973696167,0.1757659531076544,0.15167176521676656
646,36.662,36.26,-3.14,0.14250897220124892,0.11787146363633104,0.1340579582900248,0.13778107661643943,0.1760515719287016,0.15195075662940916
647,36.724,36.32,-3.11,0.14268928454496438,0.11788110497982557,0.13435726751353871,0.13795352555930707,0.17635119296154547,0.15223280500065295
648,36.828,36.37,-3.24,0.1428922914164469,0.11789304738769524,0.1346723271370953,0.13813065836777882,0.17666475452538377,0.15251776994773844
649,36.848,36.43,-3.17,0.14311812673927019,0.11790727633341684,0.13500311300635398,0.1383124025590415,0.17699218586847848,0.1528055083775358
650,36.868,36.48,-3.04,0.14336690748332662,0.11792377510458141,0.13534959026627022,0.13849868141283564,0.17733340723892502,0.1530958746100109
651,36.929,36.54,-3.09,0.14363873355326057,0.11794252480093209,0.13571171338624788,0.13868941402300786,0.17768832996161749,0.1533887205038399
652,36.971,36.59,-3.17,0.14393368769015683,0.1179635043343544,0.13608942619253125,0.13888451535294316,0.1780568565212475,0.15368389558401246
653,37.032,36.65,-2.99,0.14425183538641426,0.1179866904308349,0.13648266190773356,0.13908389629480186,0.17843888065117883,0.15398124717126524
654,37.093,36.7,-3.01,0.14459322481374773,0.11801205763440639,0.1368913431974064,0.1392874637324873,0.17883428742805058,0.15428062051318084
655,37.154,36.76,-3.13,0.1449578867642749,0.11803957831309367,0.13731538222357095,0.13949512060825317,0.17924295337197205,0.15458185891677836
656,37.215,36.81,-3.07,0.14534583460464967,0.11806922266686873,0.13775468070514663,0.1397067659928326,0.17966474655217768,0.15488480388241546
657,37.256,36.87,-2.99,0.14575706424320167,0.11810095873761836,0.1382091299852269,0.13992229515894405,0.1800995266980162,0.15518929523881553
658,37.317,36.92,-3.15,0.14619155411003248,0.11813475242112147,0.13867861110516438,0.14014159965801343,0.18054714531514526,0.1554951712790365
659,37.379,36.98,-3.12,0.14664926514999768,0.11817056748103179,0.1391629948854243,0.14036456739995604,0.18100744580679345,0.1558022688972107
660,37.441,37.03,-3.02,0.14713014082847115,0.11820836556486357,0.1396621420131493,0.14059108273588836,0.18148026359993955,0.1561104237258993
661,37.543,37.09,-3.08,0.14763410714974814,0.11824810622198112,0.14017590313635883,0.1408210265436666,0.18196542627624482,0.15641947027392447
662,37.565,37.14,-3.13,0.14816107268789902,0.11828974692359734,0.14070411896468718,0.1410542763161679,0.18246275370756165,0.15672924206455358
663,37.605,37.2,-3.08,0.1487109286298401,0.11833324308478867,0.14124662037655106,0.1412907062522411,0.1829720581958282,0.15703957177392167
664,37.665,37.25,-3.06,0.14928354883035935,0.11837854808853411,0.1418032285326283,0.1415301873502478,0.1834931446171535,0.15735029136957449
665,37.706,37.31,-3.18,0.1498787898788299,0.11842561331177978,0.1423737549955298,0.14177258750409655,0.1840258105698836,0.15766123224901632
666,37.767,37.36,-3.08,0.15049649117735794,0.11847438815352347,0.1429580018555416,0.14201777160164794,0.18456984652642786,0.15797222537814806
667,37.83,37.42,-2.96,0.15113647503014355,0.1185248200649033,0.1435557618623163,0.1422656016253458,0.18512503598860364,0.15828310142949215
668,37.891,37.47,-3.08,0.15179854674386528,0.11857685458126753,0.14416681856238867,0.14251593675490867,0.18569115564624594,0.1585936909201137
669,37.912,37.53,-3.05,0.1524824947389222,0.11863043535620058,0.14479094644239238,0.14276863347191074,0.18626797553881858,0.15890382434916345
670,37.974,37.58,-2.89,0.15318809067137729,0.11868550419748428,0.1454279110778476,0.14302354566608774,0.18685525921976717,0.1592133323349785
671,38.015,37.64,-2.95,0.15391508956545283,0.11874200110497964,0.14607746928738663,0.14328052474322095,0.18745276392336058,0.15952204575168763
672,38.096,37.69,-3.0,0.1546632299564233,0.11879986431042103,0.14673936929227457,0.14353941973447512,0.18806024073377386,0.15982979586527435
673,38.137,37.75,-2.83,0.15543223404374368,0.11885903031912017,0.1474133508810688,0.1438000774070882,0.18867743475617388,0.16013641446905422
674,38.199,37.8,-2.83,0.15622180785423698,0.11891943395357694,0.1480991455792484,0.1440623423763235,0.18930408528957915,0.16044173401851552
675,38.26,37.86,-2.95,0.157031641415148,0.118981008398989,0.14879647682363256,0.1443260572185971,0.18993992600127582,0.16074558776546619
676,38.301,37.91,-2.85,0.15786140893684603,0.11904368525064297,0.14950506014139356,0.14459106258568913,0.1905846851025795,0.16104780989141593
677,38.342,37.97,-2.76,0.15871076900494085,0.1191073945631606,0.150224603333464,0.14485719731994542,0.1912380855257435,0.16134823564011366
678,38.404,38.02,-2.86,0.15957936478157353,0.1191720649015621,0.15095480666214275,0.14512429857037112,0.19189984510181776,0.1616467014491541
679,38.465,38.08,-2.81,0.16046682421565692,0.11923762339410532,0.15169536304271017,0.1453922019095283,0.19256967673926634,0.16194304508057347
680,38.528,38.13,-2.64,0.1613727602618669,0.1193039957868589,0.15244595823887053,0.14566074145116858,0.19324728860315563,0.16223710575036518
681,38.632,38.19,-2.65,0.16229677110822052,0.11937110649996999,0.15320627106185258,0.1459297499685519,0.19393238429473603,0.16252872425685932
682,38.652,38.24,-2.7,0.1632384404121124,0.11943887868559133,0.15397597357300946,0.14619905901342253,0.1946246630312543,0.1628177431079215
683,38.673,38.3,-2.51,0.1641973375447119,0.11950723428743341,0.154754731289769,0.14646849903562464,0.19532381982585684,0.163104006646929
684,38.734,38.35,-2.51,0.16517301784365312,0.11957609410190789,0.15554220339479824,0.1467378995033418,0.19602954566747657,0.16338736117747368
685,38.797,38.41,-2.65,0.1661650228739765,0.11964537784082122,0.15633804294825634,0.14700708902393395,0.19674152770062664,0.16366765508672526
686,38.858,38.46,-2.56,0.16717288069729863,0.1197150041955705,0.15714189710302137,0.1472758954653271,0.19745944940505197,0.16394473896737533
687,38.899,38.52,-2.48,0.16819610614919955,0.11978489090278321,0.15795340732278565,0.14754414607789465,0.19818299077521287,0.1642184657380698
688,39.003,38.57,-2.66,0.16923420112481846,0.1198549548113332,0.1587722096029275,0.14781166761675313,0.19891182849958428,0.16448869076223754
689,39.024,38.63,-2.63,0.17028665487263278,0.11992511195066048,0.15959793469407335,0.14807828646439405,0.1996456361397553,0.16475527196522982
690,39.066,38.68,-2.5,0.17135294429636175,0.11999527760032008,0.16043020832826388,0.14834382875358812,0.20038408430930688,0.16501806994969945
691,39.128,38.74,-2.55,0.17243253426489347,0.12006536636068718,0.1612686514476317,0.14860812049051925,0.20112684085243743,0.1652769481091618
692,39.169,38.79,-2.62,0.1735248779300907,0.12013529222474993,0.16211288043548888,0.1488709876781302,0.2018735710222961,0.1655317727396951
693,39.23,38.85,-2.42,0.17462941705229104,0.12020496865092835,0.1629625073497062,0.14913225643968117,0.20262393765897604,0.16578241314974657
694,39.293,38.9,-2.41,0.17574558233329599,0.12027430863686371,0.1638171401582585,0.14939175314252576,0.2033776013671255,0.1660287417680116
695,39.435,38.96,-2.54,0.17687279375663728,0.12034322479412357,0.16467638297680628,0.14964930452209674,0.20413422069314208,0.16627063424934935
696,39.456,39.01,-2.46,0.17801046093491812,0.1204116294237631,0.16553983630818508,0.1499047378060711,0.20489345230192993,0.16650796957869154
697,39.476,39.07,-2.36,0.1791579834640468,0.12047943459267554,0.16640709728368247,0.15015788083866116,0.2056549511532141,0.16674063017289548
698,39.497,39.12,-2.52,0.1803147512842122,0.1205465522106557,0.16727775990599958,0.15040856220495902,0.2064183706774173,0.1669685019804938
699,39.556,39.18,-2.49,0.18148014504747603,0.1206128941080951,0.1681514152938058,0.1506566113552546,0.20718336295110185,0.16719147457930422
700,39.617,39.23,-2.37,0.1826535364918721,0.12067837211422734,0.16902765192780417,0.150901858729256,0.20794957887198076,0.167409441271875
701,39.679,39.29,-2.46,0.18383428882190717,0.12074289813584499,0.16990605589822855,0.15114413588015235,0.20871666833349525,0.1676222991787516
702,39.741,39.34,-2.55,0.18502175709535032,0.1208063842364131,0.1707862111536899,0.15138327559847212,0.20948428039895076,0.16782994932955328
703,39.803,39.4,-2.34,0.1862152886161787,0.1208687427155105,0.17166769975126508,0.151619112035699,0.21025206347519634,0.16803229675183937
704,39.845,39.45,-2.37,0.1874142233335226,0.12092988618853263,0.17255010210769836,0.15185148082760544,0.21101966548582454,0.16822925055772586
705,39.907,39.51,-2.51,0.1886178942464242,0.12098972766658811,0.17343299725156092,0.15208021921724332,0.21178673404386142,0.168420724028191
706,39.967,39.56,-2.4,0.1898256278141985,0.12104818063651757,0.17431596307619734,0.15230516617750847,0.21255291662391282,0.16860663469498927
707,40.008,39.62,-2.3,0.1910367443721757,0.12110515914095601,0.1751985765932848,0.15252616253317325,0.21331786073373216,0.16878690442008043
708,40.11,39.67,-2.42,0.1922505585526178,0.12116057785835507,0.17608041418684173,0.15274305108227051,0.21408121408517103,0.1689614594724817
709,40.131,39.73,-2.35,0.19346637971063171,0.12121435218287907,0.1769610518675415,0.15295567671671148,0.21484262476446747,0.1691302306024603
710,40.171,39.78,-2.19,0.19468351235493753,0.12126639830409205,0.17784006552721343,0.15316388654203367,0.2156017414018261,0.16929315311299778
711,40.233,39.84,-2.24,0.19590125658339375,0.12131663328635996,0.1787170311934402,0.15336752999619,0.21635821334025213,0.16945016692846784
712,40.274,39.89,-2.3,0.19711890852321187,0.1213649751479013,0.17959152528418568,0.1535664589673089,0.2171116908036102,0.1696012166604778
713,40.335,39.95,-2.11,0.19833576077581594,0.12141134293943143,0.18046312486239374,0.15376052791037512,0.21786182506389953,0.16974625167082696
714,40.397,40.0,-2.14,0.19955110286630823,0.12145565682235225,0.18133140789050245,0.15394959396279376,0.21860826860775495,0.16988522613152876
715,40.48,40.06,-2.17,0.20076422169750593,0.1214978381464425,0.18219595348482256,0.154133517058797,0.21935067530219893,0.1700180990818372
716,40.5,40.11,-2.1,0.2019744020085006,0.12153780952699876,0.18305634216973293,0.1543121600426436,0.22008870055968593,0.17014483448220746
717,40.561,40.17,-2.06,0.20318092683768607,0.12157549492136878,0.18391215613165707,0.1544853887805467,0.22082200150249606,0.1702654012651079
718,40.602,40.22,-2.26,0.20438307799018765,0.12161081970480568,0.18476297947279804,0.15465307227124853,0.22155023712654928,0.1703797733825889
719,40.725,40.28,-2.23,0.2055801365096083,0.12164371074556235,0.18560839846462118,0.15481508275515135,0.22227306846471973,0.1704879298505068
720,40.746,40.33,-2.08,0.2067713831539838,0.12167409647914176,0.18644800180107574,0.15497129582191682,0.22299015874972378,0.17058985478930422
721,40.829,40.39,-2.12,0.20795609887581692,0.12170190698162071,0.18728138085154689,0.1551215905164513,0.22370117357663788,0.17068553746126383
722,40.849,40.44,-2.19,0.209133565306046,0.12172707404197237,0.1881081299135218,0.15526584944320784,0.2244057810650763,0.17077497230417024
723,40.89,40.5,-2.0,0.21030306524179018,0.1217495312333201,0.18892784646493602,0.15540395886875188,0.22510365202104649,0.1708581589613259
724,40.952,40.55,-2.0,0.21146388313771183,0.12176921398306201,0.1897401314161492,0.15553580882255005,0.2257944600984996,0.17093510230786554
725,41.013,40.61,-2.14,0.2126153056008407,0.12178605964180561,0.1905445893614822,0.15566129319593855,0.22647788196060306,0.17100581247330637
726,41.054,40.66,-2.04,0.21375662188871647,0.12180000755104849,0.1913408288302405,0.15578030983921692,0.22715359744076843,0.17107030486026067
727,41.117,40.72,-1.95,0.21488712441071486,0.12181099910953544,0.19212846253714677,0.1558927606567987,0.22782128970348065,0.1711286001592308
728,41.201,40.77,-2.16,0.21600610923243152,0.12181897783821759,0.19290710763210828,0.1559985517003359,0.22848064540497465,0.17118072435940396
729,41.221,40.83,-2.16,0.2171128765829919,0.12182388944373782,0.19367638594925,0.15609759325973852,0.2291313548538001,0.17122670875537258
730,41.284,40.88,-2.0,0.21820673136513308,0.12182568188037139,0.19443592425514358,0.15618979995201918,0.2297731121713043,0.17126658994971825
731,41.345,40.94,-2.06,0.21928698366786492,0.12182430541035726,0.19518535449616134,0.15627509080791271,0.2304056154520441,0.17130040985141304
732,41.387,40.99,-2.14,0.22035294928146318,0.121819712662564,0.19592431404487287,0.15635338935623444,0.23102856692411547,0.17132821567000633
733,41.45,41.05,-1.93,0.22140395021447964,0.1218118586894425,0.19665244594537415,0.15642462370596055,0.231641673109366,0.1713500599055717
734,41.511,41.1,-1.91,0.22243931521240887,0.12180070102222157,0.1973693991574077,0.1564887266260212,0.23224464498345243,0.1713660003343831
735,41.572,41.16,-2.07,0.22345838027762968,0.12178619972429967,0.1980748287991074,0.15654563562278992,0.2328371981356995,0.1713760999902775
736,41.592,41.21,-1.96,0.22446048919024475,0.12176831744278008,0.19876839638818877,0.15659529301523614,0.2334190529287263,0.17138042714164842
737,41.654,41.27,-1.83,0.22544499402946505,0.12174701945808841,0.1994497700814056,0.15663764600768867,0.23398993465781215,0.17137905526400513
738,41.717,41.32,-2.02,0.22641125569521403,0.12172227373160581,0.20011862491210966,0.15667264676014422,0.2345495737099807,0.17137206300803717
739,41.757,41.38,-2.02,0.2273586444296571,0.1216940509512475,0.2007746430257627,0.15670025245605715,0.23509770572277675,0.17135953416313532
740,41.819,41.43,-1.85,0.22828654033837756,0.12166232457492034,0.2014175139132595,0.15672042536756595,0.23563407174270493,0.17134155761634007
741,41.88,41.49,-1.93,0.229194333910925,0.12162707087179869,0.20204693464192564,0.15673313291812882,0.23615841838329224,0.17131822730670682
742,41.941,41.54,-2.06,0.23008142654045063,0.12158826896136546,0.202662610084057,0.15673834774255063,0.23667049798272116,0.1712896421750935
743,42.002,41.6,-1.88,0.23094723104210987,0.12154590085017056,0.20326425314285754,0.15673604774438227,0.23717006876096672,0.17125590610938596
744,42.043,41.65,-1.85,0.23179117216987055,0.12149995146626204,0.20385158497562686,0.1567262161506575,0.2376568949763598,0.1712171278851798
745,42.086,41.71,-2.01,0.23261268713131505,0.12145040869124125,0.20442433521403985,0.15670884156390436,0.238130747081485,0.1711734211019322
746,42.148,41.76,-1.9,0.23341122609998366,0.12139726338988856,0.20498224218135158,0.1566839180113456,0.23859140187830777,0.1711249041145999
747,42.21,41.82,-1.77,0.23418625272478427,0.12134050943729842,0.20552505310635588,0.1566514449911848,0.2390386426724203,0.1710716999607757
748,42.313,41.87,-1.93,0.2349372446360007,0.12128014374345777,0.20605252433392968,0.15661142751586954,0.23947225942628783,0.1710139362833455
749,42.332,41.93,-1.9,0.23566369394745368,0.12121616627520078,0.20656442153200216,0.15656387615222955,0.23989204891137236,0.17095174524870194
750,42.373,41.98,-1.72,0.23636510775439068,0.12114858007547961,0.20706051989479363,0.15650880705840828,0.24029781485900656,0.17088526346057087
751,42.414,42.04,-1.79,0.2370410086267021,0.12107739127989993,0.20754060434217622,0.1564462420175266,0.24068936810988778,0.17081463186952284
752,42.477,42.09,-1.9,0.23769093509706687,0.12100260913047974,0.20800446971501033,0.15637620846803563,0.2410665267620593,0.17073999567825576
753,42.538,42.15,-1.69,0.23831444214362726,0.12092424598659937,0.20845192096629744,0.15629873953073029,0.24142911631724442,0.17066150424274087
754,42.681,42.2,-1.66,0.2389111016667783,0.12084231733311546,0.208882773347978,0.1562138740323997,0.2417769698254036,0.1705793109693211
755,42.702,42.26,-1.86,0.2394805029596419,0.12075684178561173,0.209296852593189,0.15612165652607968,0.24210992802738496,0.17049357320784678
756,42.723,42.31,-1.76,0.24002225317176548,0.12066784109276175,0.20969399509379483,0.15602213730785866,0.24242783949553987,0.17040445214092775
757,42.743,42.37,-1.66,0.240535977765548,0.12057534013578307,0.21007404807300867,0.1559153724301747,0.24273056077217822,0.17031211266938054
758,42.805,42.42,-1.82,0.24102132096485537,0.12047936692496913,0.21043686975294149,0.1558014237115317,0.24301795650573332,0.17021672329395293
759,42.867,42.48,-1.81,0.24147794619524784,0.12037995259329169,0.21078232951693152,0.15568035874256209,0.24328989958449365,0.17011845599342174
760,42.929,42.53,-1.64,0.2419055365152152,0.12027713138707358,0.21111030806651757,0.1555522508883718,0.24354627126774175,0.17001748609917278
761,42.97,42.59,-1.71,0.24230379503780172,0.12017094065373796,0.21142069757292542,0.15541717928711177,0.24378696131412855,0.1699139921663841
762,43.031,42.64,-1.77,0.24267244534200616,0.12006142082665061,0.21171340182293596,0.15527522884472786,0.24401186810709652,0.16980815584194175
763,43.093,42.7,-1.54,0.2430112318733461,0.11994861540708257,0.2119883363589898,0.15512649022585034,0.24422089877715922,0.16970016172922334
764,43.153,42.75,-1.48,0.24331992033299485,0.11983257094332898,0.212245428613372,0.15497105984078635,0.24441396932084836,0.169590197249878
765,43.215,42.81,-1.67,0.2435982980549241,0.1197133370070227,0.21248461803631266,0.1548090398285718,0.24459100471615022,0.16947845250272556
766,43.256,42.86,-1.57,0.24384617437051417,0.11959096616667947,0.21270585621783614,0.15464053803603234,0.24475193903427273,0.16936512011988392
767,43.318,42.92,-1.46,0.24406338096011845,0.11946551395851122,0.21290910700319948,0.15446566799279818,0.24489671554760759,0.16925039512022938
768,43.422,42.97,-1.65,0.24424977219109278,0.11933703885454196,0.21309434660177598,0.15428454888222257,0.2450252868337691,0.16913447476029442
769,43.443,43.03,-1.67,0.24440522544181623,0.11920560222806399,0.21326156368925042,0.15409730550817222,0.24513761487559058,0.1690175583827223
770,43.485,43.08,-1.5,0.24452964141122926,0.11907126831647648,0.21341075950299399,0.1539040682576907,0.24523367115695474,0.1688998472624129
771,43.528,43.14,-1.58,0.24462294441340662,0.11893410418155434,0.21354194793048312,0.15370497305956432,0.24531343675432213,0.16878154445051005
772,43.588,43.19,-1.66,0.2446850826566539,0.11879417966719996,0.2136551555906152,0.1535001613388407,0.24537690242380436,0.1686628546163914
773,43.65,43.25,-1.44,0.24471602850658583,0.1186515673547343,0.21375042190775637,0.15328977996736332,0.2454240686836161,0.16854398388782435
774,43.693,43.3,-1.36,0.24471577873261888,0.11850634251578579,0.2138277991783372,0.15307398121038457,0.24545494589173508,0.16842513968944547
775,43.774,43.36,-1.51,0.24468435473730482,0.11835858306283555,0.21388735262980066,0.15285292266931239,0.24546955431860523,0.16830653057970874
776,43.795,43.41,-1.4,0.24462180276794682,0.11820836949747694,0.2139291604716977,0.15262676722063376,0.24546792421473212,0.1681883660864348
777,43.855,43.47,-1.36,0.24452819410997625,0.11805578485644617,0.213953313938737,0.1523956829510479,0.2454500958730494,0.16807085654108073
778,43.937,43.52,-1.53,0.24440362526162515,0.11790091465547742,0.21395991732562833,0.15215984308882224,0.2454161196859591,0.16795421291184592
779,43.958,43.58,-1.55,0.24424821808948616,0.11774384683103574,0.21394908801359902,0.15191942593137,0.24536605619696172,0.16783864663573683
780,44.019,43.63,-1.39,0.24406211996459914,0.11758467167998346,0.21392095648849982,0.15167461476904842,0.24529997614678967,0.16772436944972938
781,44.081,43.69,-1.46,0.24384550387873585,0.11742348179724289,0.21387566635044067,0.15142559780518797,0.24521796051394504,0.1676115932211893
782,44.142,43.74,-1.54,0.24359856854056422,0.11726037201152684,0.21381337431490546,0.15117256807237714,0.24512010054952274,0.16750052977772517
783,44.203,43.8,-1.38,0.24332153845136154,0.11709543931921708,0.21373425020528997,0.15091572334504078,0.2450064978061889,0.16739139073665735
784,44.265,43.85,-1.34,0.24301466395992552,0.11692878281647605,0.21363847693679314,0.1506552660483529,0.2448772641611806,0.16728438733427245
785,44.307,43.91,-1.58,0.24267822129631167,0.11676050362967501,0.21352625049158033,0.1503914031635198,0.2447325218332003,0.1671797302550198
786,44.348,43.96,-1.47,0.24231251258401662,0.11659070484421821,0.21339777988512448,0.15012434612946213,0.24457240339308006,0.1670776294607908
787,44.408,44.02,-1.34,0.24191786583023406,0.11641949143183522,0.21325328712362854,0.14985431074091615,0.24439705176809787,0.16697829402041509
788,44.45,44.07,-1.5,0.2414946348938414,0.11624697017640888,0.21309300715244317,0.14958151704296915,0.24420662023982345,0.16688193193951742
789,44.552,44.13,-1.51,0.24104319943082433,0.116073249598404,0.21291718779540622,0.14930618922204614,0.2440012724353625,0.16678874999089718
790,44.572,44.18,-1.34,0.24056396481690115,0.11589843987796551,0.21272608968504644,0.14902855549337954,0.2437811823118613,0.16669895354561343
791,44.633,44.24,-1.43,0.24005736204716605,0.11572265277676011,0.21251998618360807,0.14874884798500562,0.24354653413413646,0.16661274640497006
792,44.695,44.29,-1.52,0.2395238476126191,0.11554600155864266,0.21229916329486678,0.14846730261833743,0.2432975224452908,0.16653033063360403
793,44.736,44.35,-1.34,0.23896390335348533,0.11536860090923423,0.21206391956670992,0.14818415898536194,0.24303435203017817,0.16645190639388013
794,44.798,44.4,-1.33,0.23837803628925308,0.11519056685450142,0.21181456598445533,0.14789966022250028,0.24275723787158587,0.16637767178179128
795,44.88,44.46,-1.48,0.23776677842538632,0.11501201667842371,0.2115514258548818,0.1476140528811532,0.24246640509900622,0.1663078226645537
796,44.901,44.51,-1.45,0.2371306865366843,0.11483306883983145,0.2112748346809457,0.14732758679494443,0.24216208892987867,0.16624255252007958
797,44.963,44.57,-1.34,0.23647034192728045,0.11465384288849255,0.21098514002716048,0.14704051494367057,0.24184453460319202,0.16618205227850133
798,45.005,44.62,-1.52,0.2357863501672899,0.11447445938052075,0.21068270137562617,0.14675309331397643,0.24151399730533968,0.16612651016592053
799,45.068,44.68,-1.52,0.23507934080612175,0.1142950397931763,0.21036788997269726,0.14646558075679764,0.24117074208811506,0.16607611155055593
800,45.11,44.73,-1.36,0.23434996706247047,0.11411570643913028,0.21004108866627455,0.14617823884165074,0.24081504377872237,0.16603103879146838
801,45.172,44.79,-1.42,0.23359890549100298,0.11393658238026742,0.2097026917337035,0.14589133170787855,0.24044718688166866,0.1659914710900413
802,45.254,44.84,-1.48,0.23282685562576397,0.11375779134110561,0.2093531047002595,0.1456051259129693,0.2400674654723946,0.16595758434439709
803,45.275,44.9,-1.32,0.232034539600342,0.11357945762191494,0.20899274414819374,0.1453198902780696,0.23967618308249997,0.16592955100692547
804,45.336,44.95,-1.25,0.23122270174487394,0.11340170601161911,0.208622037516306,0.1450358957308055,0.23927365257643474,0.1659075399450889
805,45.398,45.01,-1.41,0.2303921081600096,0.1132246617005596,0.20824142289000783,0.14475341514551424,0.238860196019541,0.16589171630565608
806,45.439,45.06,-1.3,0.22954354626800594,0.11304845019319838,0.20785134878184372,0.14447272318098098,0.23843614453735731,0.16588224138250174
807,45.501,45.12,-1.22,0.22867782434116954,0.11287319722083192,0.20745227390245935,0.14419409611576406,0.2380018381661224,0.16587927248809722
808,45.562,45.17,-1.4,0.2277957710079162,0.11269902865438543,0.20704466692203785,0.1439178116811897,0.2375576256944437,0.16588296282881387
809,45.624,45.23,-1.43,0.2268982347367609,0.11252607041735684,0.2066290062222632,0.14364414889210098,0.237103864496114,0.1658934613841641
810,45.687,45.28,-1.31,0.225986083298583,0.11235444839898173,0.2062057796388958,0.14337338787546214,0.23664092035407128,0.16591091279011197
811,45.728,45.34,-1.42,0.22506020320753495,0.11218428836769387,0.20577548419507255,0.14310580969692863,0.23616916727550108,0.16593545722659037
812,45.812,45.39,-1.48,0.22412149914096646,0.11201571588495639,0.2053386258254624,0.14284169618549297,0.23568898729807142,0.16596723030936802
813,45.832,45.45,-1.31,0.2231708933387257,0.11184885621953952,0.20489571909141274,0.1425813297563113,0.23520077028727937,0.1660063629864061
814,45.976,45.5,-1.27,0.22220932498217516,0.11168383426231686,0.20444728688721706,0.1423249932318053,0.2347049137248848,0.1660529814388327
815,45.997,45.56,-1.41,0.22123774955324754,0.11152077444164567,0.20399386013761997,0.14207296966112884,0.23420182248840762,0.16610720698664422
816,46.018,45.61,-1.36,0.22025713817386716,0.11135980063938923,0.2035359774866609,0.14182554213809023,0.23369190862167843,0.166169155999218
817,46.059,45.67,-1.26,0.2192684769260941,0.11120103610763195,0.20307418497795182,0.14158299361762708,0.2331755910964573,0.16623893981070142
818,46.1,45.72,-1.43,0.21827276615340344,0.11104460338613342,0.20260903572649835,0.14134560673093194,0.23265329556515668,0.16631666464032877
819,46.161,45.78,-1.4,0.2172710197435777,0.11089062422056599,0.20214108958219973,0.1411136635993296,0.23212545410471874,0.16640243151771936
820,46.223,45.83,-1.25,0.21626426439375768,0.11073921948158248,0.20167091278519472,0.1408874456470126,0.2315925049517092,0.16649633621321336
821,46.283,45.89,-1.35,0.21525353885825677,0.1105905090847649,0.20119907761325584,0.14066723341274712,0.23105489222869696,0.16659846917330556
822,46.346,45.94,-1.45,0.21423989317979505,0.11044461191150756,0.20072616202145283,0.1404533063606702,0.23051306566200236,0.16670891546123728
823,46.406,46.0,-1.18,0.21322438790484452,0.11030164573089038,0.20025274927430242,0.14024594269031546,0.22996748029090852,0.1668277547027998
824,46.468,46.05,-1.14,0.21220809328380322,0.11016172712259688,0.19977942757061087,0.14004541914601634,0.2294185961684538,0.16695506103739027
825,46.488,46.11,-1.32,0.21119208845674267,0.11002497140092381,0.19930678966120552,0.13985201082583706,0.22886687805394387,0.16709090307434085
826,46.569,46.16,-1.25,0.21017746062549267,0.10989149253992021,0.19883543245975052,0.13966599099018112,0.2283127950973606,0.16723534385451574
827,46.611,46.22,-1.18,0.20916530421284202,0.10976140309968406,0.1983659566468463,0.13948763087022256,0.22775682051589177,0.16738844081713666
828,46.652,46.27,-1.36,0.20815672000964264,0.10963481415383566,0.1978989662676282,0.13931719947630739,0.22719943126284656,0.16755024577177274
829,46.714,46.33,-1.38,0.20715281431059795,0.10951183521818246,0.19743506832309496,0.13915496340647884,0.22664110768924464,0.1677208048754224
830,46.776,46.38,-1.21,0.20615469803950873,0.10939257418058852,0.19697487235541075,0.13900118665529246,0.22608233319837595,0.16790015861461163
831,46.837,46.44,-1.28,0.2051634858647507,0.10927713723206264,0.19651899002744333,0.13885613042309047,0.22552359389363416,0.16808834179243543
832,46.879,46.49,-1.39,0.20418029530577528,0.10916562879908097,0.1960680346968199,0.13872005292589748,0.22496537821992948,0.16828538352046862
833,46.941,46.55,-1.19,0.20320624583144778,0.10905815147716276,0.19562262098479435,0.13859320920609192,0.22440817659900056,0.1684913072154634
834,47.002,46.6,-1.15,0.20224245795107149,0.10895480596571704,0.1951833643402302,0.1384758509439945,0.22385248105896885,0.16870613060073578
835,47.105,46.66,-1.34,0.20129005229898092,0.10885569100417572,0.19475088059901258,0.13836822627050185,0.22329878485850807,0.1689298657121252
836,47.125,46.71,-1.26,0.2003501487136283,0.10876090330942399,0.1943257855392121,0.13827057958088307,0.22274758210603454,0.16916251890839512
837,47.167,46.77,-1.2,0.1994238653121235,0.10867053751453622,0.19390869443233755,0.13818315134985965,0.22219936737436397,0.16940409088593072
838,47.249,46.82,-1.41,0.1985123175612316,0.10858468610882252,0.19350022159103608,0.13810617794809307,0.22165463531131058,0.1696545766975883
839,47.291,46.88,-1.48,0.19761661734586947,0.10850343937918994,0.1931009799136237,0.1380398914602184,0.2211138802467249,0.16991396577555873
840,47.331,46.93,-1.33,0.1967378720361699,0.10842688535282063,0.19271158042585235,0.13798451950457244,0.22057759579647557,0.17018224195812126
841,47.391,46.99,-1.47,0.19587718355419723,0.10835510974116958,0.19233263182033686,0.13794028505477224,0.2200462744638765,0.1704593835201784
842,47.452,47.04,-1.61,0.19503564744138976,0.10828819588528318,0.19196473999407626,0.13790740626329967,0.21952040723904973,0.17074536320747596
843,47.474,47.1,-1.44,0.19421435192776695,0.10822622470244163,0.1916085075844969,0.13788609628724668,0.21900048319670085,0.17104014827441819
844,47.534,47.15,-1.44,0.1934143770038851,0.10816927463412543,0.19126453350443556,0.13787656311636615,0.21848698909277794,0.17134370052538186
845,47.595,47.21,-1.64,0.19263679349647161,0.1081174215953041,0.19093341247647022,0.13787900940355402,0.21798040896047882,0.17165597635942703
846,47.637,47.26,-1.56,0.19188266214863292,0.10807073892503725,0.19061573456699965,0.1378936322978705,0.2174812237060727,0.1719769268182927
847,47.698,47.32,-1.46,0.19115303270552844,0.10802929733837296,0.19031208472047467,0.13792062328019855,0.21698991070501106,0.1723064976375619
848,47.76,47.37,-1.66,0.19044894300643203,0.10799316487952342,0.19002304229419545,0.1379601680016369,0.2165069433988112,0.17264462930088392
849,47.822,47.43,-1.69,0.18977141808414263,0.1079624068762962,0.18974918059410548,0.13801244612473543,0.2160327908931999,0.1729912570971558
850,47.885,47.48,-1.53,0.1891214692727477,0.10793708589576262,0.18949106641202526,0.1380776311677005,0.21556791755801066,0.17334631118057583
851,47.927,47.54,-1.61,0.18850009332477569,0.10791726170114717,0.18924925956478542,0.1381558903517094,0.21511278262932976,0.17370971663349744
852,47.968,47.59,-1.73,0.1879082715387861,0.10790299120992806,0.18902431243572798,0.13824738445147977,0.21466783981438997,0.17408139353201435
