,Time_Host,Time_Arduino,easingdata,CH1_Oxy,CH1_Deoxy,CH2_Oxy,CH2_Deoxy,CH3_Oxy,CH3_Deoxy
0,0.003,16.3,10.66,1.0,1.0,1.0,1.0,1.0,1.0
1,0.065,0.04,0.0,0.9820936590257405,0.9819475435963656,0.9823175335939174,0.9818165363264891,0.9836166651169511,0.9820087577469903
2,0.128,0.1,0.0,0.9641954234590808,0.9639024017524771,0.964639378948318,0.9636430365192592,0.9672376799844861,0.9640241002750216
3,0.189,0.15,0.0,0.9463125747360009,0.9458719215414425,0.9469726915603092,0.9454869147687819,0.9508696151593622,0.9460533613241645
4,0.23,0.21,0.0,0.9284523777901842,0.9278634354488408,0.9293246131775349,0.9273555684813185,0.9345190268924423,0.9281038605046327
5,0.292,0.26,0.0,0.9106220738683659,0.9098842542076689,0.911702264747229,0.9092563710428717,0.9181924506702609,0.9101828961055941
6,0.353,0.32,0.0,0.8928288733938821,0.8919416596824741,0.8941127394120044,0.8911966646342337,0.9018963948016434,0.8922977379511812
7,0.415,0.37,0.0,0.8750799488928468,0.8740428978171011,0.8765630955667917,0.8731837531115461,0.8856373340623527,0.8744556203182398
8,0.498,0.43,0.0,0.8573824279966383,0.8561951716597259,0.8590603499905671,0.8552248949660395,0.8694217034100568,0.8566637349295934
9,0.518,0.48,0.0,0.8397433865336285,0.8384056344780884,0.8416114710657441,0.8373272963758828,0.8532558917812431,0.8389292240358515
10,0.58,0.54,0.0,0.822169841722368,0.8206813829771151,0.8242233720973645,0.8194981043623507,0.8371462359810489,0.8212591735980566
11,0.64,0.59,0.02,0.8046687454777344,0.8030294506303971,0.8069029047434945,0.8017444000618206,0.8210990146763399,0.8036606065827522
12,0.682,0.65,-0.01,0.7872469778408568,0.7854568011362938,0.7896568525675217,0.7840731921244175,0.8051204425017449,0.7861404763803522
13,0.723,0.7,0.02,0.7699113405429696,0.7679703220087505,0.7724919247223706,0.7664914102494557,0.7892166642877483,0.7687056603570163
14,0.785,0.76,0.03,0.752668550712714,0.7505768183122422,0.7554147497759983,0.7490058988671504,0.7733937494193542,0.7513629535495677
15,0.906,0.81,0.01,0.7355252347357789,0.7332830065496087,0.7384318696869051,0.7316234109754298,0.757657686333252,0.7341190625123555
16,0.948,0.87,0.0,0.7184879222751737,0.7160955087109159,0.7215497339377841,0.7143506021400283,0.7420143771608652,0.7169805993243261
17,0.969,0.92,0.02,0.7015630404598353,0.6990208464908756,0.7047746938348493,0.6971940246654389,0.7264696325241178,0.6999540757639708
18,1.01,0.98,-0.02,0.6847569082486926,0.682065435681753,0.6881129969797927,0.6801601219436968,0.7110291664902282,0.6830458976592094
19,1.053,1.03,-0.05,0.6680757309767491,0.6652355807481102,0.6715707819207608,0.6632552229873795,0.6956985916913176,0.6662623594186895
20,1.114,1.09,-0.01,0.6515255950891884,0.6485374695891559,0.6551540729881798,0.6464855371526455,0.680483414614119,0.6496096387504151
21,1.176,1.14,-0.0,0.6351124630689681,0.6319771684939026,0.6388687753207012,0.6298571490575716,0.6653890310645675,0.6330937915730602
22,1.237,1.2,-0.03,0.6188421685628397,0.6155606172937632,0.6227206700860033,0.61337601370052,0.6504207218115727,0.6167207471247864
23,1.32,1.25,-0.0,0.6027204117102298,0.599293624716682,0.6067154099006519,0.597047951782752,0.6355836484138007,0.6004963032738594
24,1.341,1.31,0.02,0.5867527546789234,0.5831818639463641,0.5908585144526992,0.5808786452390101,0.6208828492328493,0.5844261220348576
25,1.381,1.36,-0.01,0.5709446174110276,0.5672308683896738,0.5751553663302266,0.5648736329793131,0.6063232356357804,0.5685157252937733
26,1.443,1.42,-0.01,0.5553012735822389,0.5514460276548164,0.5596112070585608,0.5490383068447534,0.5919095883895512,0.5527704907448422
27,1.524,1.47,0.01,0.5398278467769844,0.5358325837424738,0.5442311333484581,0.5333779077796283,0.5776465542495025,0.5371956480414847
28,1.607,1.53,-0.02,0.5245293068815822,0.520395627451653,0.5290200935571205,0.51789752222182,0.5635386427436694,0.5217962751633028
29,1.628,1.58,-0.06,0.5094104666971425,0.5051400950015991,0.5139828843634927,0.502602078712913,0.5495902231543093,0.5065772950006614
30,1.669,1.64,-0.04,0.4944759787735189,0.4900707648707268,0.49912414765887575,0.48749634472913905,0.5358055216976781,0.49154347215796174
31,1.731,1.69,-0.08,0.47973033246521557,0.47519225485314254,0.48444836765349286,0.4725849237338541,0.5221886189027267,0.4766994099763329
32,1.773,1.75,-0.14,0.46517785120976357,0.46050901933294425,0.4699598681992448,0.4578722524518672,0.5087434471890414,0.46204954777607526
33,1.835,1.8,-0.13,0.45082269002870173,0.4460253467761157,0.45566281032850525,0.4433625983655875,0.49547378864401304,0.44759815831882693
34,1.897,1.86,-0.13,0.4366688332509325,0.43174535743946907,0.44156119000844635,0.42906005743259396,0.48238327299888073,0.4333493454890711
35,1.979,1.91,-0.16,0.4227200924578793,0.4176730012957365,0.4276588361100311,0.41496855202389704,0.4694753758029725,0.4193070421942621
36,1.999,1.97,-0.14,0.40898010464954376,0.40381205617358307,0.41395940859049724,0.40109182908182944,0.4567534167951493,0.4054750084825278
37,2.041,2.02,-0.12,0.39545233063024743,0.39016612611100515,0.400466396887874,0.3874334584961759,0.4442205584711647,0.3918568298765996
38,2.103,2.08,-0.14,0.38214005361254555,0.3767386399203026,0.38718311852584225,0.37399683169683495,0.4318798048453768,0.3784559159223299
39,2.164,2.13,-0.14,0.36904637803750223,0.3635328499625693,0.3741127179270414,0.3607851604609883,0.4197340004049912,0.36527549894987865
40,2.226,2.19,-0.1,0.3561742286092205,0.35055183112942173,0.36125816543271344,0.34780147593246896,0.40778582925477935,0.3523186330453864
41,2.287,2.24,-0.13,0.3435263495412399,0.3377984800294667,0.34862225652634604,0.3350486278507607,0.3960378144499861,0.33958819323070044
42,2.348,2.3,-0.15,0.3311053040121479,0.3252755143767913,0.3362076112587299,0.32252928398682196,0.38449231751493296,0.3270868748484722
43,2.389,2.35,-0.14,0.3189134738275035,0.3129854725785374,0.3240166738716016,0.3102459297826989,0.37315153814462004,0.314817193149717
44,2.45,2.41,-0.15,0.30695305928494415,0.3009307135184051,0.312051712616811,0.29820086819167424,0.36201751408643723,0.30278148308069996
45,2.512,2.46,-0.21,0.2952260792391281,0.2891134165327181,0.3003148197677355,0.2863962197154846,0.3510921211989102,0.2909818992658064
46,2.574,2.52,-0.21,0.28373437136294893,0.277535581575487,0.28880791181945914,0.27483392263494305,0.340377073684224,0.27942041618285546
47,2.615,2.57,-0.2,0.2724795926012548,0.26619902956872754,0.27753272987404076,0.2635157334301224,0.32987392449108854,0.2680988285271361
48,2.717,2.63,-0.22,0.2614632198131052,0.2551054029341268,0.2664908402070192,0.2524432273860904,0.3195840658843443,0.2570187517602722
49,2.737,2.68,-0.22,0.2506865505984161,0.24425616630200772,0.25568363501113567,0.2416177993800316,0.3095087301775407,0.24618162283986328
50,2.799,2.74,-0.17,0.24015070430467877,0.23365260739341154,0.24511233331310567,0.23104066484544855,0.2996489906245748,0.23558870112569927
51,2.82,2.79,-0.19,0.22985662320929573,0.22329583807099973,0.23477798205913558,0.22071286090899633,0.2900057624663447,0.2252410694582091
52,2.881,2.85,-0.2,0.21980507387295709,0.21318679555436376,0.2246814573647602,0.21063524769537323,0.2805798041282574,0.21513963540467293
53,2.922,2.9,-0.16,0.20999664865937184,0.20332624379521796,0.21482346592446416,0.20080850979557316,0.2713717185643329,0.20528513266861295
54,2.984,2.96,-0.14,0.20043176741657107,0.1937147750078447,0.20520454657644355,0.191233157893698,0.26238195474355624,0.19567812265766857
55,3.086,3.01,-0.19,0.19111067931490594,0.18435281135005815,0.19582507201777008,0.1819095305474322,0.25361080927405455,0.18631899620516537
56,3.106,3.07,-0.17,0.1820334648367712,0.17524060674987157,0.1866852506651319,0.17283779611720335,0.24505842816060933,0.1772079754404986
57,3.146,3.12,-0.16,0.17320003791299424,0.1663782488729853,0.1777851286562469,0.16401795483899206,0.23672480869095516,0.1683451158033741
58,3.227,3.18,-0.21,0.1646101482007457,0.157765661226163,0.16912459198697674,0.15544984103570933,0.22860980144626775,0.15973030819687964
59,3.268,3.23,-0.23,0.1562633834977513,0.14940260539152767,0.1607033687791097,0.1471331254620222,0.22071311243119035,0.15136328127430204
60,3.309,3.29,-0.23,0.14815917228751238,0.1412886833867804,0.1525210316737325,0.13906731777747064,0.2130343053187008,0.14324360385455376
61,3.37,3.34,-0.28,0.14029678641018944,0.1334233401463209,0.14457700034506746,0.1312517691426835,0.20557280380507484,0.13537068746103156
62,3.472,3.4,-0.28,0.13267534385375054,0.12580586611822928,0.13687054412961625,0.12368567493346821,0.19832789407015444,0.1277437889786924
63,3.493,3.45,-0.23,0.12529381165994483,0.11843539997205237,0.12940078476541225,0.11636807756752413,0.1912987273380868,0.12036201342410521
64,3.555,3.51,-0.24,0.11815100893962885,0.11131093141231942,0.12216669923614783,0.10929786943851148,0.18448432253366231,0.11322431682321521
65,3.617,3.56,-0.25,0.11124560999195468,0.10443130409269133,0.11516712271491157,0.10247379595219555,0.17788356902935673,0.10632950919154395
66,3.658,3.62,-0.21,0.10457614752192128,0.09779521862563013,0.10840075160224914,0.09589445865938405,0.171495229478179,0.0996762576115414
67,3.72,3.67,-0.2,0.09814101595079769,0.09140123568246794,0.10186614665325741,0.08955831848037983,0.16531794272743744,0.09326308940180753
68,3.761,3.73,-0.24,0.09193847481394608,0.08524777917875824,0.0955617361884398,0.083463699015679,0.15935022680855893,0.08708839537291019
69,3.822,3.78,-0.21,0.08596665224060088,0.07933313953981368,0.0894858193830845,0.07760878993765638,0.15359048199812556,0.0811504331645447
70,3.903,3.84,-0.19,0.0802235485101908,0.07365547704136859,0.08363656962997745,0.07199165045799757,0.1480369939453263,0.07544733065880598
71,3.924,3.89,-0.24,0.07470703967982338,0.06821282522035106,0.07801203797032316,0.06661021286565812,0.14268793686106074,0.06997708946437467
72,3.985,3.95,-0.25,0.06941488127757772,0.06300309435080416,0.07261015658781254,0.061462286130159,0.1375413767639729,0.06473758846645639
73,4.026,4.0,-0.23,0.06434471205627422,0.058024074980056364,0.06742874236083345,0.0565455595650673,0.1325952747787359,0.059726587437351396
74,4.088,4.06,-0.28,0.059494057802417705,0.05327344152029597,0.06246550046786768,0.05185760654655703,0.12784749048195296,0.05494173070257492
75,4.191,4.11,-0.3,0.054860335195046864,0.04874875589074855,0.05771802804115972,0.04739588828199311,0.12329578529108152,0.05038055085749298
76,4.212,4.17,-0.27,0.05044085570926875,0.04444747120569155,0.05318381786378036,0.04315775762353406,0.11893782589182889,0.046040472529487585
77,4.254,4.22,-0.27,0.04623282955931388,0.04036693550357062,0.04886026210525074,0.03914046292180398,0.11477118769951261,0.04191881618071921
78,4.317,4.28,-0.29,0.04223336967600793,0.03650439551251754,0.044744656090942206,0.03534115191474146,0.11079335834992673,0.03801280194661404
79,4.357,4.33,-0.25,0.03843949571361686,0.03285700044762144,0.0408342021005255,0.031756875646796856,0.10700174121531361,0.03431955350527088
80,4.42,4.39,-0.23,0.034848138081085375,0.029421805835381256,0.03712601319080898,0.028384592413721675,0.1033936589411118,0.030836101973055585
81,4.483,4.44,-0.24,0.031456141992755114,0.026195777360862274,0.03361711703838131,0.025221171728274372,0.09996635699923109,0.027559389821730545
82,4.586,4.5,-0.25,0.028260271533723545,0.023175794733187437,0.030304459797553966,0.022263398302257324,0.09671700725369511,0.02448627481255023
83,4.607,4.55,-0.22,0.02525721373509864,0.02035865556509255,0.027184909969182335,0.01950797604039542,0.09364271153458688,0.021613533942840015
84,4.648,4.61,-0.25,0.02244358265452854,0.017741079262346547,0.02425526227603301,0.016951532041661818,0.09074050521633233,0.01893786740066316
85,4.71,4.66,-0.28,0.019815923457529208,0.015319710918888252,0.02151224154045476,0.014590620603747016,0.08800736079645331,0.01645590252327035
86,4.75,4.72,-0.27,0.01737071649526882,0.013091125213582092,0.01895250656020095,0.012421727226457431,0.08544019147101939,0.01416419775511753
87,4.79,4.77,-0.28,0.01510438137458828,0.011051830304558252,0.016572653978342834,0.0104412726099188,0.08303585470312158,0.012059246601330354
88,4.912,4.83,-0.33,0.013013281016146263,0.009198271717173061,0.01436922214330605,0.008645616643553455,0.08079115578078322,0.0101374815725886
89,4.933,4.88,-0.34,0.011093725696686863,0.0075268362216950775,0.012338694955155055,0.0070310623818995565,0.07870285136081052,0.008395278117501648
90,4.974,4.94,-0.35,0.009341977071542374,0.0060338556968900225,0.010477505694345003,0.005593860003446241,0.07676765299517371,0.006828958538647227
91,5.015,4.99,-0.39,0.007754252173595354,0.004715610975756844,0.008782040829255568,0.004330210748769453,0.07498223063659361,0.005434795888548108
92,5.078,5.05,-0.38,0.006326727385023949,0.003568335669764413,0.007248643798913868,0.0032362708343692194,0.07334321612008969,0.0042090178419680714
93,5.139,5.1,-0.33,0.005055542378249853,0.0025882199680491804,0.0058736187674068895,0.0023081553387270517,0.07184720661732802,0.0031478105410152435
94,5.201,5.16,-0.35,0.0039368040226103315,0.0017714144081500838,0.004653234346582126,0.0015419420572153277,0.07049076806069604,0.002247322409648847
95,5.284,5.21,-0.35,0.002966590253388282,0.0011140336149720812,0.0035837272837390306,0.0009336753225971674,0.06927043853413005,0.0015036679342931934
96,5.304,5.27,-0.31,0.0021409538999537167,0.00061216000478296,0.0026613061111208846,0.0004793697879574072,0.06818273162783325,0.0009129314073693962
97,5.347,5.32,-0.3,0.0014559264698959032,0.00026184745115712837,0.0018821547541255702,0.00017501416900610748,0.0672241397541428,0.000471170630661245
98,5.408,5.38,-0.34,0.0009075218861476568,5.912490988773512e-05,0.0012424360952641444,1.657494279586669e-05,0.0663911374219311,0.00017442057553940699
99,5.47,5.43,-0.33,0.0004917401742214764,0.0,0.0007382954910050995,0.0,0.06568018446705307,1.8696997176908604e-05
100,5.532,5.49,-0.32,0.0002045710967964491,8.046253811249704e-05,0.00036586423875874274,0.00012122224800699778,0.06508772923647735,0.0
101,5.572,5.54,-0.37,4.199773301892254e-05,0.0002964880235082055,0.00012126299138429538,0.0003761631621928952,0.06461021172386311,0.00011431755173288068
102,5.655,5.6,-0.4,0.0,0.0006440410713985056,6.05116745407109e-07,0.0007607362828371586,0.06424406665445703,0.00035762894351195674
103,5.675,5.65,-0.4,7.455811410786088e-05,0.0011190787919874304,0.0,0.001270850655246576,0.0639857265172982,0.0007259081936619081
104,5.738,5.71,-0.46,0.00026165598976168777,0.0017175541130680534,0.00011555628647522464,0.0019024142107494605,0.06383162454282124,0.0012151273928424937
105,5.799,5.76,-0.5,0.0005572845735345156,0.0024354190440058596,0.00034338506312662484,0.0026513370863240023,0.06377819762404408,0.0018212599883883319
106,5.861,5.82,-0.46,0.0009574451114671953,0.0032686278790807753,0.0006796029766994736,0.003513534880734436,0.06382188917961572,0.002540284005776987
107,5.924,5.87,-0.49,0.0014581523475915648,0.004213140338263977,0.001120335286810294,0.004484931845158354,0.06395915195708234,0.00336818520527069
108,6.048,5.93,-0.52,0.0020554376517589543,0.00526492464360077,0.0016617188522594466,0.00556146400639429,0.06418645077481391,0.004300960171886786
109,6.068,5.98,-0.49,0.002745352074972865,0.0064199605294640505,0.002299905048980717,0.0067390822208401886,0.06450026520112212,0.005334619336960643
110,6.089,6.04,-0.51,0.0035239693305376936,0.0076742421850388995,0.0030310626181423712,0.008013755157531898,0.06489709216919669,0.0064651899296733015
111,6.13,6.09,-0.54,0.00438738869945637,0.009023781127505723,0.003851380443034564,0.009381472208627461,0.06537344852658712,0.007688718857027234
112,6.171,6.15,-0.54,0.005331737858629886,0.010464609004506572,0.004757070253503527,0.010838246325823263,0.06592587351805743,0.009001275510865431
113,6.254,6.2,-0.52,0.006353175630529802,0.01199278032460268,0.005744369256819636,0.01238011678129384,0.06655093120074236,0.01039895450064212
114,6.315,6.26,-0.56,0.007447894653133602,0.013604375114550963,0.006809542693987953,0.014003151851857965,0.06724521279063099,0.011877878310764799
115,6.376,6.31,-0.58,0.0086121239690291,0.015295501502341217,0.007948886320616803,0.015703451425198658,0.0680053389395004,0.013434199881436692
116,6.398,6.37,-0.58,0.009842131532708156,0.017062298225042575,0.009158728811549492,0.017477149527106772,0.06882796194151815,0.015064105112034881
117,6.46,6.42,-0.62,0.011134226635180459,0.018900937060606044,0.010435434088540476,0.019320416768865648,0.06970976786882653,0.016763815286160083
118,6.501,6.48,-0.66,0.012484762245142169,0.020807625182860764,0.011775403570332093,0.021229462714028383,0.07064747863551,0.0185295894175928
119,6.563,6.53,-0.67,0.01389013726603242,0.02277860743902886,0.013175078344564706,0.02320053816395383,0.07163785398942993,0.02035772651648578
120,6.646,6.59,-0.69,0.015346798708405255,0.024810168549165037,0.014630941261036088,0.025229937361563922,0.07267769343148651,0.022244567775218032
121,6.686,6.64,-0.74,0.016851243777135427,0.026898635227009374,0.016139518945915324,0.02731400011286905,0.0737638380619373,0.02418649867342898
122,6.747,6.7,-0.72,0.018400021873057025,0.029040378221827617,0.0176973837366081,0.029449113825889696,0.07489317235346529,0.026179951001844823
123,6.787,6.75,-0.71,0.01998973650870881,0.031231814280907582,0.019301155537063727,0.031631715466683995,0.07606262585075341,0.02822140480460204
124,6.827,6.81,-0.72,0.021617047137933814,0.033469408032482044,0.020947503593408422,0.03385829343227428,0.07726917479638665,0.030307390239864337
125,6.889,6.86,-0.73,0.023278670899152486,0.03574967378895989,0.022633148189881973,0.03612538934035203,0.0785098436829746,0.03243448935861987
126,6.951,6.92,-0.69,0.024971384272199887,0.038069177270463744,0.024354862265141605,0.038429599735730444,0.07978170673146624,0.03459933780163381
127,7.012,6.97,-0.71,0.026692024648694166,0.040424537248780604,0.026109472949079584,0.04076757771360313,0.08108188929571418,0.03679862641461545
128,7.053,7.03,-0.74,0.02843749181598384,0.04281242711192655,0.02789386302037703,0.04313603445975307,0.08240756919343258,0.03902910278173936
129,7.115,7.08,-0.73,0.030204749354804588,0.0452295763496059,0.02970497228508829,0.04553174070793693,0.08375597796377894,0.041287572677736806
130,7.197,7.14,-0.73,0.03199082595086169,0.047672771959914644,0.03153979887662234,0.047951528114745616,0.08512440205187301,0.043570901438847946
131,7.217,7.19,-0.78,0.03379281662063586,0.05013885977770221,0.03339540047756132,0.05039229055231232,0.08651018392064169,0.045876015252999794
132,7.278,7.25,-0.79,0.03560788385178741,0.052624745725073106,0.03526889546382686,0.05285098531931165,0.08791072309044984,0.04819990236964957
133,7.339,7.3,-0.8,0.037433258658605396,0.05512739698457999,0.03715746397177329,0.055324634270771146,0.08932347710704049,0.05053961422980603
134,7.381,7.36,-0.86,0.03926624155302019,0.05764384309573152,0.039058348888852276,0.05781032486729715,0.09074596243836852,0.0528922665168123
135,7.483,7.41,-0.9,0.041104203431761466,0.060171176975510464,0.04096885676855356,0.06030521114439718,0.09217575530096099,0.055255040128542425
136,7.522,7.47,-0.87,0.042944586380304954,0.06270655586366652,0.04288635867038024,0.06280651460266028,0.09361049241648116,0.05762518207172833
137,7.56,7.52,-0.91,0.04478490439430827,0.06524720219360815,0.04480829092566732,0.06531152501962466,0.09504787169920856,0.06000000627919493
138,7.62,7.58,-0.93,0.04662274401929452,0.06779040438976655,0.0467321558300988,0.06781760118421953,0.0964856528751799,0.06237689435083731
139,7.682,7.63,-0.9,0.04845576490940104,0.07033351759234496,0.04865552226382125,0.07032217155471321,0.09792165803377031,0.06475329621922622
140,7.743,7.69,-0.91,0.050281700306074234,0.07287396431040233,0.050576026240096945,0.07282273484114037,0.09935377211253286,0.06712673074077889
141,7.865,7.74,-0.93,0.052098357437656416,0.07540923500425825,0.052491371383486723,0.07531686051321941,0.1007799433161588,0.06949478621348244
142,7.885,7.8,-0.91,0.05390361784087205,0.07793688859825447,0.05439932933860246,0.07780218923481604,0.1021981834704656,0.07185512082220978
143,7.906,7.85,-0.91,0.055695437605285,0.0804545529249583,0.05629774011051948,0.08027643322605879,0.10360656831236872,0.0742054630127198
144,7.926,7.91,-0.94,0.057471847541865156,0.08295992510194544,0.05818451233799106,0.08273737655426386,0.10500323771684257,0.07654361179548605
145,7.989,7.96,-0.95,0.059230953276869704,0.08545077184234989,0.06005762350065645,0.08518287535487716,0.1063863958619235,0.07886743698054761
146,8.051,8.02,-0.93,0.060970935272307326,0.08792492970041728,0.06191512006148144,0.08761085798369359,0.10775431133285585,0.08117487934462292
147,8.093,8.07,-0.98,0.06269004877431408,0.09038030525334098,0.06375511754571613,0.09001932510165797,0.10910531716652432,0.08346395073176986
148,8.154,8.13,-1.02,0.06438662369082626,0.09281487522069477,0.06557580055769666,0.09240634969359056,0.11043781083735302,0.08573273408891409
149,8.217,8.18,-0.98,0.06605906439998384,0.09522668652280107,0.06737542273685178,0.09477007702221082,0.11175025418588314,0.08797938343760164
150,8.279,8.24,-1.01,0.0677058494907406,0.09761385627938944,0.06915230665430125,0.09710872451885923,0.11304117329126617,0.09020212378336073
151,8.34,8.29,-1.04,0.06932553143718503,0.09997457174991115,0.07090484365145022,0.09942058161234217,0.1143091582889292,0.09239925096408384
152,8.402,8.35,-1.01,0.07091673620808919,0.10230709021689141,0.07263149362199112,0.10170400949735384,0.11555286313468677,0.09456913143886247
153,8.442,8.4,-1.0,0.07247816281321205,0.10460973881372182,0.07433078473872701,0.10395744084396691,0.11677100531659473,0.09671020201872549
154,8.524,8.46,-1.03,0.07400858278789997,0.1068809142983219,0.07600131312663799,0.10617937944972015,0.11796236551586407,0.09882096954075034
155,8.608,8.51,-1.04,0.07550683961755468,0.10911908277412863,0.07764174248362363,0.10836839983586824,0.11912578721817782,0.10090001048703713
156,8.628,8.57,-1.0,0.07697184810357881,0.11132277935990377,0.07925080365037383,0.11052314678939026,0.12026017627678257,0.10294597055005801
157,8.669,8.62,-1.04,0.07840259367246022,0.11349060780987216,0.08082729413084477,0.11264233485237446,0.12136450042875226,0.10495756414591687
158,8.73,8.68,-1.06,0.07979813162970885,0.11562124008571928,0.08237007756483952,0.11472474776041187,0.12243778876584634,0.10693357387707612
159,8.793,8.73,-1.03,0.08115758636040614,0.11771341588198386,0.08387808315421207,0.11676923783163855,0.12347913116140645,0.10887284994612582
160,8.813,8.79,-1.04,0.08248015047816594,0.11976594210638203,0.08535030504422605,0.11877472530807077,0.12448767765475703,0.11077430952218463
161,8.876,8.84,-1.09,0.08376508392433449,0.12177769231659478,0.08678580166160929,0.12074019765087697,0.12546263779459293,0.11263693606153341
162,8.958,8.9,-1.09,0.08501171301928093,0.12374760611504361,0.08818369501085087,0.12266470879123142,0.12640327994285266,0.114459778584092
163,8.978,8.95,-1.11,0.08621942946765276,0.12567468850316846,0.08954316993029524,0.12454737833839581,0.12730893054058842,0.11624195090735645
164,9.04,9.01,-1.17,0.08738768931949434,0.12755800919671076,0.09086347330959604,0.1263873907466745,0.1281789733373518,0.11798263083942122
165,9.103,9.06,-1.25,0.08851601188914297,0.12939670190349814,0.09214391327010123,0.12818399444288758,0.1290128485856101,0.11968105933271556
166,9.165,9.12,-1.26,0.08960397863382208,0.13118996356522394,0.09338385830974892,0.12993650091600395,0.12981005220169828,0.12133653960008983
167,9.206,9.17,-1.28,0.09065123199384745,0.13293705356471283,0.09458273641406195,0.1316442837705696,0.1305701348947826,0.12294843619489082
168,9.246,9.23,-1.29,0.09165747419634683,0.13463729290015858,0.09574003413483194,0.13330677774555538,0.13129270126527487,0.12451617405666755
169,9.349,9.28,-1.25,0.09262246602437452,0.1362900633278114,0.09685529563807309,0.13492347770023988,0.13197740887409115,0.12603923752414836
170,9.37,9.34,-1.26,0.09354602555328682,0.13789480647457428,0.09792812172280649,0.13649393756873227,0.1326239672841146,0.1275171693171238
171,9.411,9.39,-1.28,0.09442802685624274,0.13945102292194078,0.09895816881220983,0.1380177692847312,0.13323213707520326,0.1289495694888634
172,9.472,9.45,-1.24,0.09526839868070155,0.14095827126267702,0.0999451479186426,0.13949464167810696,0.13380172883407734,0.13033609435068408
173,9.533,9.5,-1.23,0.09606712309780786,0.14241616713162106,0.1008888235840394,0.14092427934488388,0.1343326021204218,0.13167645537028233
174,9.594,9.56,-1.23,0.09682423412657483,0.14382438221194652,0.10178901279715419,0.14230646149218665,0.1348246644105448,0.13297041804543222
175,9.635,9.61,-1.22,0.09753981633479453,0.14518264321822077,0.10264558388913382,0.1436410207597024,0.13527787001993807,0.13421780075464496
176,9.697,9.67,-1.21,0.09821400341861757,0.146490730857575,0.10345845540889463,0.14492784201920175,0.1356922190060975,0.13541847358637432
177,9.759,9.72,-1.25,0.09884697676275389,0.14774847877029113,0.10422759497976973,0.14616686115365465,0.13606775605297108,0.13657235714834076
178,9.842,9.78,-1.27,0.09943896398324852,0.1489557724510999,0.10495301813888294,0.1473580638174662,0.13640456933841313,0.13767942135853348
179,9.863,9.83,-1.25,0.09999023745477865,0.1501125481524675,0.10563478716068742,0.14850148417934556,0.13670278938602082,0.13873968421943328
180,9.924,9.89,-1.29,0.10050111282441132,0.15121879177111922,0.10627300986608479,0.14959720364930126,0.13696258790272461,0.13975321057698317
181,9.966,9.94,-1.32,0.1009719475137543,0.15227453771900515,0.10686783841851727,0.15064534959122983,0.13718417660348423,0.1407201108658126
182,10.068,10.0,-1.33,0.10140313921142463,0.1532798677798588,0.10741946810839599,0.1516460940225451,0.13736780602442458,0.14164053984219943
183,10.089,10.05,-1.35,0.10179512435774955,0.1542349099524428,0.10792813612719457,0.15259965230228617,0.13751376432571924,0.1425146953062283
184,10.129,10.11,-1.38,0.10214837662359763,0.1551398372815195,0.1083941203324967,0.15350628180915302,0.1376223760855034,0.1433428168145786
185,10.211,10.16,-1.36,0.1024634053852135,0.1559948666775362,0.10881773800524365,0.15436628061094151,0.13769400108606408,0.14412518438535277
186,10.253,10.22,-1.33,0.10274075419690254,0.15680025772597625,0.10919934460039116,0.15517998612686268,0.13772903309352394,0.1448621171963327
187,10.314,10.27,-1.35,0.10298099926339067,0.15755631148730098,0.10953933249216051,0.15594777378422986,0.13772789863220675,0.1455539722780344
188,10.376,10.33,-1.34,0.10318474791366819,0.1582633692883941,0.1098381297150475,0.15667005567098446,0.13769105575485266,0.14620114320290728
189,10.497,10.38,-1.3,0.10335263707811608,0.15892181150640974,0.1100961987017281,0.1573472791855192,0.13761899280984438,0.14680405877200153
190,10.518,10.44,-1.32,0.10348533177070832,0.15953205634591133,0.11031403501897388,0.15797992568524183,0.13751222720660097,0.1473631817003987
191,10.539,10.49,-1.35,0.10358352357807782,0.16009455861016156,0.1104921661026624,0.1585685091353,0.13737130418029814,0.14787900730266862
192,10.581,10.55,-1.34,0.10364792915722332,0.16060980846738745,0.11063114999294324,0.15911357475885102,0.13719679555706968,0.1483520621795848
193,10.623,10.6,-1.35,0.10367928874362717,0.16107833021279824,0.11073157407060072,0.1596156976902149,0.13698929852084107,0.14878290290729862
194,10.686,10.66,-1.4,0.10367836467154566,0.16150068102708628,0.11079405379563756,0.16007548163219382,0.13674943438293152,0.14917211473014436
195,10.748,10.71,-1.38,0.10364593990821368,0.1618774497320971,0.11081923144908533,0.16049355751879446,0.1364778473555394,0.1495203102582216
196,10.788,10.77,-1.39,0.10358281660366195,0.16220925554433915,0.11080777487902796,0.16087058218455086,0.1361752033302019,0.14982812817087607
197,10.85,10.82,-1.44,0.10348981465774444,0.1624967468270431,0.11076037625180556,0.161207237041613,0.13584218866229356,0.15009623192717156
198,10.911,10.88,-1.49,0.1033677703057945,0.1627405998416027,0.11067775080934501,0.16150422676573392,0.1354795089625993,0.1503253084844151
199,10.973,10.93,-1.49,0.10321753472410843,0.16294151749938673,0.11056063563353753,0.16176227799225892,0.1350878878969678,0.15051606702576503
200,11.014,10.99,-1.53,0.10303997265627113,0.16310022811502442,0.11040978841855165,0.16198213802318417,0.13466806599501194,0.15066923769791438
201,11.076,11.04,-1.55,0.10283596106122336,0.16321748416228904,0.11022598625193485,0.16216457354631125,0.13422079946877707,0.15078557035980983
202,11.159,11.1,-1.53,0.10260638778390468,0.16329406103367058,0.11001002440531653,0.1623103693674758,0.13374685904224595,0.1508658333433275
203,11.2,11.15,-1.53,0.10235215024925899,0.16333075580467155,0.10976271513548887,0.16242032715677662,0.1332470287925016,0.15091081222679287
204,11.241,11.21,-1.56,0.10207415418035092,0.16332838600380972,0.10948488649661747,0.16249526420967844,0.13272210500332737,0.15092130862219494
205,11.303,11.26,-1.52,0.10177331234130496,0.16328778838927183,0.10917738116432155,0.1625360122238122,0.1321728950319907,0.15089813897691454
206,11.363,11.32,-1.51,0.10145054330574485,0.1632098177331386,0.10884105527236759,0.16254341609224976,0.13160021618993387,0.15084213339075536
207,11.426,11.37,-1.53,0.10110677025137109,0.16309534561409894,0.1084767772627261,0.16251833271398824,0.13100489463807258,0.15075413444904012
208,11.528,11.43,-1.53,0.10074291978126039,0.16294525921958175,0.10808542674973726,0.16246162982234377,0.1303877642973902,0.15063499607250377
209,11.569,11.48,-1.51,0.10035992077240591,0.16276046015825676,0.10766789339911667,0.16237418483192967,0.1297496657755024,0.15048558238468634
210,11.59,11.54,-1.54,0.0999587032519512,0.16254186328386458,0.10722507582251074,0.16225688370486827,0.12909144530985847,0.15030676659749323
211,11.631,11.59,-1.58,0.09954019730151419,0.16229039553133395,0.10675788048828656,0.16211061983685568,0.12841395372823164,0.15009942991555666
212,11.673,11.65,-1.56,0.09910533198995677,0.1620069947661162,0.10626722064921577,0.1619362929636629,0.12771804542713106,0.14986446045999727
213,11.777,11.7,-1.58,0.09865503433492813,0.1616926086476211,0.10575401528768807,0.1617348080886125,0.1270045773687483,0.14960275221214706
214,11.797,11.76,-1.64,0.0981902282934868,0.16134819350758267,0.10521918807906384,0.16150707443152668,0.12627440809701881,0.14931520397776135
215,11.838,11.81,-1.64,0.0977118337820753,0.16097471324412943,0.10466366637374462,0.16125400439960522,0.12552839677334962,0.14900271837221235
216,11.9,11.87,-1.66,0.09722076572608489,0.16057313823228622,0.10408838019850299,0.16097651258066448,0.1247674022325273,0.14866620082712467
217,11.961,11.92,-1.68,0.09671793313921022,0.1601444442515905,0.103494261277578,0.16067551475914693,0.12399228205928137,0.148306558618882
218,12.002,11.98,-1.69,0.09620423823275284,0.15968961143146676,0.1028822420740024,0.16035192695529338,0.12320389168593388,0.1479246999194042
219,12.062,12.03,-1.65,0.09568057555499447,0.15920962321497026,0.10225325485158955,0.16000666448785242,0.12240308351152389,0.14752153286956643
220,12.123,12.09,-1.68,0.09514783116072369,0.1587054653414795,0.10160823075796872,0.15964064106067818,0.12159070604275896,0.14709796467559955
221,12.183,12.14,-1.69,0.09460688181097066,0.15817812484888946,0.10094809892902139,0.15925476787353635,0.12076760305711597,0.14665490072878523
222,12.266,12.2,-1.65,0.09405859420298116,0.1576285890958227,0.10027378561503565,0.15884995275740135,0.11993461278839165,0.14619324374872622
223,12.286,12.25,-1.64,0.09350382423044687,0.1570578448043375,0.099586213328864,0.1584270993344922,0.11909256713498553,0.14571389295044415
224,12.327,12.31,-1.67,0.09294341627399336,0.15646687712357213,0.09888630001634029,0.15798710620325715,0.11824229089118372,0.14521774323552733
225,12.387,12.36,-1.65,0.09237820252191271,0.1558566687147237,0.09817495824918435,0.1575308661484899,0.11738460100170123,0.144705684407523
226,12.448,12.42,-1.65,0.09180900232111594,0.15522819885772088,0.0974530944406022,0.15705926537673412,0.11652030583973345,0.14417860041173963
227,12.51,12.47,-1.69,0.09123662155827185,0.15458244257991702,0.09672160808377675,0.1565731827771087,0.11565020450876205,0.14363736859959897
228,12.55,12.53,-1.73,0.09066185207107216,0.1539203698071157,0.09598139101343245,0.1560734892076631,0.11477508616834925,0.1430828590176505
229,12.631,12.58,-1.73,0.09008547108950955,0.15324294453725487,0.09523332669064352,0.1555610468073553,0.11389572938414096,0.14251593372133722
230,12.672,12.64,-1.79,0.08950824070698445,0.15255112403710083,0.0944782895110371,0.15503670833372704,0.11301290150227424,0.14193744611357836
231,12.714,12.69,-1.83,0.08893090738098838,0.1518458580623169,0.09371714413651602,0.1545013165263356,0.1121273580483517,0.14134824030821325
232,12.775,12.75,-1.82,0.08835420146305906,0.15112808810126002,0.09295074485058892,0.15395570349598076,0.11123984215110276,0.14074915051832834
233,12.856,12.8,-1.83,0.08777883675766049,0.15039874664282737,0.092179934937351,0.1534006901397422,0.11035108399080376,0.14014100046946634
234,12.897,12.86,-1.85,0.08720551010960564,0.14965875646862464,0.09140554608411484,0.1528370855818132,0.10946180027248147,0.13952460283769047
235,13.002,12.91,-1.82,0.08663490101960482,0.14890902996968103,0.09062839780765096,0.1522656866400848,0.10857269372388072,0.13890075871244964
236,13.023,12.97,-1.8,0.08606767128749951,0.1481504684878855,0.08984929690396662,0.15168727731840562,0.10768445261814263,0.13827025708416157
237,13.085,13.02,-1.82,0.08550446468273296,0.14738396168228143,0.08906903692153104,0.15110262832441676,0.10679775032111724,0.13763387435640712
238,13.105,13.08,-1.81,0.08494590664160957,0.14661038692032685,0.08828839765784004,0.15051249661284796,0.1059132448632203,0.1369923738826052
239,13.167,13.13,-1.79,0.0843926039908985,0.1458306086942087,0.08750814467920555,0.14991762495414912,0.10503157853573886,0.13634650552701902
240,13.208,13.19,-1.82,0.0838451446973426,0.14504547806228338,0.08672902886365344,0.1493187415283147,0.10415337751148607,0.13569700524992342
241,13.268,13.24,-1.84,0.08330409764263916,0.14425583211569729,0.08595178596681237,0.14871655954374036,0.10327925148970028,0.13504459471674837
242,13.373,13.3,-1.8,0.0827700124234606,0.14346249347021908,0.08517713621066929,0.14811177688092908,0.10240979336507615,0.13438998093099208
243,13.394,13.35,-1.83,0.08224341917608283,0.1426662697832878,0.08440578389505479,0.14750507576084235,0.10154557892080525,0.13373385589068276
244,13.435,13.41,-1.87,0.08172482842518503,0.14186795329624574,0.08363841703170428,0.1468971224376671,0.10068716654549312,0.1330768962681468
245,13.498,13.46,-1.86,0.08121473095638038,0.14106832040168665,0.08287570700071988,0.14628856691574746,0.09983509697380678,0.13241976311282416
246,13.54,13.52,-1.89,0.08071359771203547,0.14026813123580606,0.08211830822924109,0.14568004269040763,0.09898989305069313,0.13176310157685153
247,13.601,13.57,-1.94,0.08022187970993461,0.13946812929559838,0.08136685789211773,0.14507216651236826,0.09815205951898755,0.13110754066311778
248,13.683,13.63,-1.94,0.07974000798433378,0.13866904108071296,0.08062197563436403,0.14446553817544197,0.09732208283020714,0.13045369299548104
249,13.744,13.68,-1.93,0.07926839354892891,0.13787157575975983,0.07988426331515878,0.14386074032717672,0.09650043097829211,0.12980215461082475
250,13.764,13.74,-1.95,0.07880742738123832,0.13707642486084196,0.07915430477314117,0.14325833830210696,0.0956875533560273,0.12915350477261864
251,13.826,13.79,-1.94,0.07835748042787614,0.13628426198608395,0.07843266561273787,0.14265887997726148,0.09488388063384479,0.12850830580563957
252,13.888,13.85,-1.89,0.07791890363017519,0.1354957425499221,0.07771989301124158,0.14206289564956823,0.09408982466068502,0.12786710295149778
253,13.95,13.9,-1.91,0.07749202796960745,0.1347115035409145,0.07701651554634907,0.1414708979347862,0.09330577838658008,0.12723042424460157
254,14.011,13.96,-1.94,0.07707716453244813,0.13393216330682328,0.0763230430438573,0.14088338168757972,0.09253211580661606,0.1265987804081825
255,14.117,14.01,-1.91,0.0766746045931332,0.13315832136270522,0.07563996644520583,0.14030082394233415,0.09176919192593207,0.12597266476998914
256,14.138,14.07,-1.9,0.07628461971577306,0.13239055822172305,0.07496775769454805,0.1397236838742919,0.09101734274541644,0.12535255319724634
257,14.157,14.12,-1.95,0.07590746187329803,0.13162943524836676,0.0743068696450262,0.13915240278056837,0.09027688526776033,0.12473890405046702
258,14.22,14.18,-1.94,0.07554336358371887,0.13087549453375213,0.07365773598391541,0.1385874040805949,0.08954811752352593,0.1241321581556979
259,14.281,14.23,-1.94,0.07519253806299327,0.13012925879265239,0.07302077117629648,0.13802909333553076,0.08883131861688214,0.12353273879477715
260,14.343,14.29,-1.99,0.07485517939400524,0.12939123128190047,0.0723963704269181,0.13747785828618092,0.08812674879065437,0.12294105171317873
261,14.364,14.34,-2.0,0.0745314627111841,0.12866189573978515,0.0717849096599178,0.13693406890895174,0.08743464951032368,0.1223574851450166
262,14.465,14.4,-1.98,0.07422154440030185,0.12794171634605078,0.07118674551607512,0.13639807748937136,0.08675524356659592,0.12178240985477962
263,14.485,14.45,-2.03,0.07392556231298791,0.12723113770210157,0.07060221536727287,0.13587021871269567,0.0860887351961429,0.12121617919536384
264,14.526,14.51,-2.08,0.07364363599549044,0.1265305848309975,0.07003163734783552,0.13535080977111266,0.08543531022009634,0.12065912918196327
265,14.59,14.56,-2.06,0.07337586693119715,0.12584046319680706,0.06947531040240182,0.13484015048704706,0.08479513619985368,0.12011157858137167
266,14.651,14.62,-2.05,0.07312233879641646,0.1251611587428508,0.06893351434997107,0.13433852345205877,0.08416836260973042,0.1195738290162387
267,14.692,14.67,-2.08,0.0728831177289087,0.124493037948336,0.06840650996374335,0.1338461941808168,0.08355512102596704,0.1190461650838163
268,14.754,14.73,-2.04,0.07265825260864547,0.12383644790286004,0.06789453906635658,0.13336341127962412,0.08295552533157272,0.11852885448872733
269,14.834,14.78,-2.02,0.07244777535026375,0.12319171639825653,0.06739782464011222,0.13289040662896504,0.08236967193647214,0.11802214818928734
270,14.856,14.84,-2.04,0.07225170120667407,0.12255915203726814,0.06691657095178112,0.13242739557954708,0.08179764001241649,0.11752628055690997
271,14.917,14.89,-2.04,0.07207002908327484,0.12193904435855199,0.06645096369158246,0.13197457716131533,0.08123949174212282,0.1170414695481282
272,14.98,14.95,-2.0,0.07190274186222123,0.12133166397754742,0.06600117012592796,0.1315321343049315,0.08069527258211413,0.11656791688876346
273,15.041,15.0,-2.03,0.07174980673619996,0.1207372627427506,0.0655673392635202,0.13110023407522325,0.08016501153874256,0.11610580826977505
274,15.083,15.06,-2.05,0.07161117555117373,0.12015607390694294,0.06514960203438949,0.13067902791611757,0.07964872145688275,0.11565531355432287
275,15.145,15.11,-2.01,0.07148678515757717,0.11958831231290945,0.06474807148144895,0.13026865190657483,0.07914639932078914,0.11521658699557481
276,15.206,15.17,-2.03,0.07137655776946422,0.11903417459316569,0.06436284296414124,0.12986922702703774,0.07865802656661411,0.11478976746478958
277,15.268,15.22,-2.07,0.07128040133111967,0.11849383938319462,0.06399399437374408,0.12948085943591142,0.07818356940608667,0.11437497868920296
278,15.309,15.28,-2.06,0.07119820989064873,0.11796746754768439,0.06364158635989076,0.12910364075559774,0.07772297916085089,0.11397232949924435
279,15.371,15.33,-2.07,0.07112986398005436,0.11745520241925607,0.06330566256785487,0.12873764836761928,0.07727619260696164,0.11358191408461063
280,15.433,15.39,-2.13,0.07107523100130286,0.11695717004917261,0.06298624988614497,0.12838294571638073,0.07684313232902884,0.11320381225872483
281,15.516,15.44,-2.13,0.07103416561786831,0.11647347946952781,0.06268335870395349,0.1280395826211254,0.0764237070834888,0.11283808973111131
282,15.557,15.5,-2.09,0.07100651015123721,0.11600422296642188,0.06239698317800429,0.12770759559565592,0.07601781217046608,0.11248479838722326
283,15.64,15.55,-2.12,0.07099209498185513,0.11554947636363133,0.062127101508342074,0.12738700817539575,0.07562532981366936,0.11214397657526176
284,15.66,15.61,-2.12,0.07099073895400383,0.11510929931627938,0.061873676222607726,0.1270778312513692,0.07524612954774866,0.11181564939953073
285,15.7,15.66,-2.07,0.07100224978411332,0.11468373561400486,0.06163665446834412,0.12678006341067793,0.07488006861253146,0.11149982901987547
286,15.761,15.72,-2.07,0.07102642447203604,0.11427281349312053,0.06141596831288168,0.12649369128304627,0.07452699235355324,0.11119651495675682
287,15.823,15.77,-2.07,0.07106304971483476,0.11387654595724189,0.06121153505036259,0.12621868989299492,0.07418673462830525,0.11090569440151928
288,15.864,15.83,-2.03,0.07111190232265573,0.11349493110586532,0.061023257515481516,0.12595502301717673,0.0738591182176339,0.1106273425314161
289,15.946,15.88,-2.01,0.07117274963628019,0.11312795247037348,0.06085102440355359,0.1257026435463632,0.07354395524174501,0.11036142282896146
290,15.967,15.94,-2.06,0.07124534994597158,0.1127755793569487,0.060694710596562604,0.12546149385151745,0.07324104758028846,0.11010788740518447
291,16.027,15.99,-2.05,0.07132945291125482,0.11243776719588564,0.060554177494880485,0.12523150615335404,0.0729501872960213,0.10986667732636847
292,16.068,16.05,-2.03,0.07142479998127584,0.11211445789681364,0.060429273354377054,0.1250126028947775,0.07267115706156697,0.10963772294386603
293,16.128,16.1,-2.07,0.0715311248153941,0.11180558020936084,0.06031983362865879,0.1248046971156015,0.07240373058880416,0.10942094422659006
294,16.189,16.16,-2.09,0.07164815370365936,0.11151105008881305,0.0602256813161842,0.1246076928289711,0.07214767306042463,0.10921625109579045
295,16.229,16.21,-2.07,0.07177560598681768,0.11123077106633449,0.060146627312002314,0.12442148539893141,0.07190274156320249,0.10902354376173466
296,16.311,16.27,-2.11,0.07191319447548605,0.11096463462332225,0.06008247076385309,0.1242459619186047,0.07166868552251579,0.1088427130619169
297,16.352,16.32,-2.15,0.07206062586812864,0.11071252056946221,0.06003299943235822,0.12408100158845022,0.07144524713765654,0.1086736408004254
298,16.414,16.38,-2.12,0.07221760116746286,0.11047429742404244,0.05999799005501733,0.12392647609409294,0.0712321618174555,0.10851620008810185
299,16.495,16.43,-2.1,0.07238381609492583,0.1102498228000658,0.05997720871370936,0.12378224998322039,0.0710291586157367,0.10837025568313012
300,16.516,16.49,-2.12,0.07255896150284223,0.1100389437906871,0.05997041120538131,0.12364818104106252,0.07083596066610472,0.10823566433169808
301,16.577,16.54,-2.09,0.0727427237839507,0.10984149735749335,0.05997734341558935,0.12352412066398563,0.0706522856155624,0.1081122751083837
302,16.681,16.6,-2.06,0.07293478527796747,0.10965731072014959,0.05999774169454835,0.12340991423074928,0.07047784605646196,0.10799992975592686
303,16.701,16.65,-2.07,0.07313482467488709,0.10948620174695009,0.06003133323535116,0.12330540147099082,0.07031234995630503,0.10789846302405881
304,16.743,16.71,-2.07,0.0733425174147325,0.10932797934584301,0.06007783645403087,0.12321041683051535,0.0701555010849261,0.10780770300707393
305,16.826,16.76,-2.02,0.07355753608346893,0.1091824438555315,0.06013696137115044,0.12312478983298772,0.0700069994386142,0.10772747147983856
306,16.908,16.82,-2.04,0.07377955080479663,0.10904938743628403,0.06020840999461396,0.12304834543763836,0.0698665416607506,0.10765758423194162
307,16.928,16.87,-2.07,0.07400822962753581,0.10892859446010923,0.06029187670340101,0.12298090439260902,0.06973382145856213,0.10759785139969909
308,16.969,16.93,-2.05,0.07424323890831726,0.10881984189996262,0.06038704863193019,0.12292228358357457,0.06960853001561186,0.10754807779573178
309,17.051,16.98,-2.05,0.07448424368929665,0.10872289971765539,0.060493606054761576,0.12287229637728644,0.06949035639966704,0.10750806323584297
310,17.072,17.04,-2.1,0.07473090807062406,0.108637531250127,0.060611222771354584,0.12283075295968841,0.06937898796559545,0.10747760286293277
311,17.133,17.09,-2.09,0.07498289557741471,0.10856349359373343,0.06073956649060344,0.12279746066826677,0.06927411075294673,0.10745648746769713
312,17.173,17.15,-2.1,0.07523986952098066,0.10850053798619848,0.06087829921488114,0.12277222431830992,0.0691754098778767,0.10744450380587184
313,17.234,17.2,-2.11,0.07550149335408879,0.10844841018587902,0.06102707762333252,0.12275484652276976,0.06908256991907266,0.10744143491179416
314,17.296,17.26,-2.11,0.07576743102000764,0.10840685084800966,0.061185553454164224,0.12274512800543491,0.06899527529733349,0.10744706040806754
315,17.358,17.31,-2.06,0.07603734729509747,0.10837559589761146,0.061353373885680386,0.1227428679071495,0.06891321064845428,0.10746115681112572
316,17.399,17.37,-2.07,0.07631090812469508,0.10835437689876813,0.061530181915812644,0.12274786408482792,0.06883606118906616,0.10748349783250072
317,17.461,17.42,-2.07,0.07658778095205362,0.1083429214199873,0.06171561673989263,0.12275991340303027,0.06876351307508884,0.10751385467560567
318,17.522,17.48,-2.02,0.07686763504011469,0.10834095339537364,0.06190931412641614,0.12277881201787072,0.06869525375247018,0.10755199632785081
319,17.563,17.53,-1.99,0.07715014178591438,0.10834819348134528,0.06211090679055263,0.12280435565304001,0.06863097229991041,0.1075976898479168
320,17.624,17.59,-2.0,0.07743497502743982,0.10836435940863211,0.06232002476516029,0.12283633986773479,0.06857035976329486,0.10765070064801878
321,17.686,17.64,-1.97,0.07772181134275485,0.10838916632931188,0.06253629576907323,0.12287456031630253,0.06851310948159221,0.10771079277100262
322,17.809,17.7,-1.97,0.07801033034120844,0.1084223271586657,0.06275934557243705,0.12291881299943253,0.06845891740401051,0.10777772916212305
323,17.829,17.75,-1.99,0.07830021494653666,0.10846355291166293,0.06298879835888337,0.12296889450674532,0.06840748239824046,0.10785127193536292
324,17.85,17.81,-2.01,0.07859115167167352,0.10851255303391517,0.06322427708434976,0.12302460225066059,0.06835850654964855,0.10793118263416401
325,17.892,17.86,-1.98,0.07888283088509508,0.10856903572696425,0.06346540383236807,0.12308573469145558,0.06831169545130769,0.10801722248645308
326,17.953,17.92,-2.02,0.07917494706853716,0.1086327082677877,0.06371180016566302,0.12315209155345101,0.06826675848477169,0.10810915265385858
327,18.016,17.97,-2.04,0.07946719906594216,0.1087032773224169,0.06396308747391886,0.1232234740322769,0.06822340909150947,0.10820673447502493
328,18.057,18.03,-2.03,0.07975929032350397,0.10878044925356649,0.06421888731758338,0.12329968499317766,0.0681813650349228,0.10830972970293985
329,18.221,18.08,-2.05,0.08005092912069262,0.10886393042216756,0.06447882176758159,0.12338052916031915,0.06814034865287402,0.10841790073619528
330,18.242,18.14,-2.07,0.08034182879215239,0.1089534274826818,0.06474251374080854,0.12346581329706177,0.0681000871006519,0.1085310108441078
331,18.262,18.19,-2.04,0.08063170794037805,0.10904864767205517,0.06500958733126297,0.12355534637716867,0.0680603125843038,0.1086488243856257
332,18.283,18.25,-2.02,0.08092029063908836,0.10914929909215174,0.06527966813667674,0.12364893974692286,0.06802076258426476,0.10877110702195239
333,18.323,18.3,-2.05,0.0812073066272395,0.10925509098549406,0.06555238358049677,0.12374640727813122,0.06798118006921827,0.1088976259228175
334,18.384,18.36,-2.02,0.0814924914936468,0.10936573400413588,0.06582736322908292,0.12384756551200186,0.0679413137001341,0.109028149966334
335,18.446,18.41,-2.0,0.08177558685220773,0.10948094047150843,0.066104239103996,0.12395223379389489,0.06790091802444337,0.10916244993238654
336,18.528,18.47,-2.01,0.08205634050773623,0.10960042463711407,0.06638264598926445,0.12406023439896478,0.06785975366033266,0.10930029868950723
337,18.549,18.52,-2.02,0.08233450661241812,0.10972390292398207,0.06666222173352936,0.12417139264873256,0.06781758747116112,0.1094414713752054
338,18.611,18.58,-1.98,0.08260984581288607,0.10985109416884335,0.06694260754697255,0.12428553701864599,0.06777419273002916,0.10958574556972754
339,18.653,18.63,-2.0,0.08288212538790148,0.1099817198550098,0.06722344829293675,0.12440249923670342,0.0677293492745503,0.1097329014632318
340,18.714,18.69,-2.03,0.08315111937662958,0.1101155043379603,0.06750439277414333,0.12452211437322988,0.06768284365189972,0.10988272201636738
341,18.795,18.74,-2.02,0.0834166086975046,0.1102521750636377,0.0677850940134064,0.1246442209219078,0.0676344692542326,0.11003499311425445
342,18.817,18.8,-2.03,0.08367838125770295,0.11039146277945297,0.06806520952873026,0.12476866087218115,0.06758402644458229,0.11018950371386313
343,18.878,18.85,-2.07,0.08393623205326672,0.11053310173797981,0.06834440160266281,0.12489527977316671,0.06753132267335961,0.11034604598479608
344,18.94,18.91,-2.08,0.08418996325993756,0.1106768298933111,0.06862233754576044,0.12502392678922697,0.06747617258557649,0.11050441544348592
345,19.004,18.96,-2.09,0.08443938431477539,0.110822389090047,0.06889868995400536,0.1251544547473794,0.0674183981189173,0.11066441108082661
346,19.044,19.02,-2.12,0.08468431198864498,0.11096952524488714,0.06917313696000735,0.1252867201767395,0.06735782859277548,0.11082583548326612
347,19.107,19.07,-2.12,0.08492457044965543,0.11111798852080906,0.06944536247781445,0.1254205833402165,0.06729430078836582,0.11098849494739418
348,19.148,19.13,-2.08,0.08515999131763537,0.11126753349382688,0.06971505644114868,0.1255559082587034,0.06722765902001437,0.1111521995880647
349,19.25,19.18,-2.1,0.0853904137097277,0.11141791931233354,0.06998191503487466,0.12569256272801985,0.06715775519772177,0.11131676344009571
350,19.271,19.24,-2.11,0.08561568427719665,0.11156890984903535,0.07024564091950257,0.12583041832887795,0.06708444888109599,0.1114820045535933
351,19.332,19.29,-2.07,0.08583565723355767,0.11172027384548941,0.07050594344852482,0.12596935043014665,0.0670076073247571,0.11164774508294704
352,19.373,19.35,-2.06,0.08605019437416382,0.11187178504925256,0.07076253887838908,0.12610923818568945,0.06692710551532949,0.1118138113695469
353,19.435,19.4,-2.1,0.08625916508740764,0.11202322234364737,0.07101515057092225,0.1262499645250469,0.06684282620015199,0.11198003401827476
354,19.538,19.46,-2.07,0.08646244635771735,0.11217436987015075,0.07126350918803799,0.12639141613823318,0.06675465990785366,0.11214624796782897
355,19.559,19.51,-2.06,0.08665992276054753,0.11232501714341607,0.07150735287858398,0.12653348345491988,0.06666250496096104,0.11231229255494672
356,19.621,19.57,-2.1,0.08685148644958009,0.11247495915895092,0.07174642745720766,0.1266760606182919,0.06656626748071906,0.11247801157259732
357,19.641,19.62,-2.11,0.08703703713636227,0.11262399649349157,0.07198048657513789,0.1268190454538748,0.06646586138432212,0.11264325332222752
358,19.703,19.68,-2.09,0.08721648206260994,0.11277193539813736,0.07220929188279489,0.1269623394336471,0.06636120837476296,0.11280787066014658
359,19.765,19.73,-2.14,0.08738973596540171,0.11291858788432944,0.07243261318415577,0.12710584763575722,0.0662522379235146,0.11297172103814351
360,19.806,19.79,-2.17,0.08755672103548061,0.11306377180277277,0.07265022858281461,0.1272494787001672,0.06613888724626311,0.11313466653843186
361,19.869,19.84,-2.15,0.08771736686886869,0.11320731091540764,0.07286192461967836,0.12739314478054367,0.0660211012719071,0.11329657390301838
362,19.929,19.9,-2.18,0.08787161041198477,0.11334903496053653,0.07306749640223821,0.12753676149270413,0.06589883260503321,0.11345731455759046
363,19.992,19.95,-2.2,0.08801939590044151,0.11348877971120212,0.07326674772535459,0.12768024785990173,0.06577204148206778,0.11361676463001483
364,20.035,20.01,-2.17,0.08816067479168348,0.11362638702690046,0.07345949118349013,0.12782352625519697,0.06564069572129234,0.11377480496353663
365,20.095,20.06,-2.16,0.08829540569162547,0.11376170489869603,0.07364554827432655,0.12796652234113667,0.06550477066690062,0.11393132112476538
366,20.136,20.12,-2.18,0.08842355427546289,0.11389458748779088,0.07382474949370575,0.1281091650069437,0.06536424912727093,0.11408620340653321
367,20.198,20.17,-2.22,0.08854509320284482,0.11402489515759515,0.07399693442184577,0.12825138630341562,0.06521912130763119,0.11423934682571245
368,20.26,20.23,-2.2,0.0886600020276208,0.11415249449935533,0.07416195180079439,0.12839312137573697,0.06506938473730128,0.11439065111608353
369,20.362,20.28,-2.23,0.08876826710238717,0.11427725835141592,0.07431965960309707,0.12853430839441563,0.06491504419170388,0.11454002071635437
370,20.383,20.34,-2.23,0.0888698814780639,0.11439906581221565,0.07446992509166503,0.1286748884845645,0.0647561116093313,0.11468736475344898
371,20.444,20.39,-2.2,0.08896484479872828,0.11451780224714493,0.0746126248708319,0.12881480565376133,0.0645926060038455,0.11483259702120203
372,20.485,20.45,-2.24,0.08905316319192054,0.11463335928941382,0.0747476449285917,0.1289540067187283,0.06442455337147983,0.11497563595461112
373,20.547,20.5,-2.28,0.08913484915462608,0.11474563483508976,0.07487488067002016,0.1290924412310724,0.0642519865939053,0.11511640459980467
374,20.61,20.56,-2.28,0.08920992143513196,0.1148545330324635,0.0749942369418965,0.12923006140231744,0.06407494533672459,0.11525483057988445
375,20.672,20.61,-2.28,0.08927840491095954,0.11495996426588755,0.07510562804855313,0.12936682202844646,0.06389347594375003,0.11539084605680006
376,20.733,20.67,-2.34,0.08934033046308244,0.115061845134212,0.07520897775898873,0.12950268041416246,0.06370763132721151,0.11552438768941477
377,20.754,20.72,-2.34,0.08939573484664658,0.11516009842392504,0.07530421930528004,0.12963759629706784,0.06351747085402161,0.11565539658792462
378,20.816,20.78,-2.33,0.08944466055841128,0.11525465307709304,0.07539129537233165,0.12977153177196304,0.06332306022820583,0.11578381826479624
379,20.899,20.83,-2.34,0.08948715570112802,0.11534544415419244,0.07547015807901095,0.12990445121545782,0.06312447136958682,0.11590960258239026
380,20.919,20.89,-2.34,0.08952327384505965,0.11543241279193056,0.07554076895072616,0.13003632121107803,0.06292178228879318,0.11603270369743907
381,20.981,20.94,-2.3,0.08955307388682861,0.11551550615616607,0.07560309888351971,0.13016711047502888,0.0627150769586496,0.11615308000254698
382,21.084,21.0,-2.33,0.08957661990577431,0.1155946773900504,0.07565712809976605,0.130296789782743,0.06250444518200073,0.1162706940648799
383,21.105,21.05,-2.33,0.08959398101800312,0.11566988555751764,0.07570284609557694,0.13042533189631086,0.06228998245601877,0.11638551256221022
384,21.145,21.11,-2.23,0.0896052312283219,0.1157410955822506,0.07574025158002183,0.13055271149287,0.06207178983305078,0.11649750621648046
385,21.208,21.16,-2.23,0.08961044928025957,0.11580827818224543,0.07576935240627221,0.13067890509401572,0.061849973778069334,0.11660664972504524
386,21.25,21.22,-2.24,0.0896097185043944,0.11587140980009068,0.07579016549477675,0.13080389099628323,0.0616246460228059,0.11671292168974305
387,21.311,21.27,-2.22,0.08960312666521562,0.11593047252906978,0.07580271674857213,0.13092764920274616,0.06139592341667335,0.11681630454393575
388,21.353,21.33,-2.23,0.08959076580676,0.11598545403519392,0.07580704096083692,0.13105016135577247,0.061163927774616565,0.11691678447763555
389,21.457,21.38,-2.27,0.08957273209726911,0.11603634747527145,0.07580318171480617,0.13117141067097873,0.06092878572206089,0.11701435136082605
390,21.478,21.44,-2.29,0.08954912567310716,0.11608315141112964,0.07579119127617662,0.1312913818724284,0.06069062853714515,0.11710899866507529
391,21.519,21.49,-2.29,0.0895200504821601,0.11612586972012179,0.07577113047814739,0.13141006112912654,0.0604495919904307,0.11720072338353804
392,21.582,21.55,-2.35,0.08948561412691278,0.11616451150207188,0.0757430685992532,0.1315274359928721,0.06020581618227291,0.11728952594944422
393,21.623,21.6,-2.38,0.08944592770737368,0.1161990909828256,0.07570708323415302,0.13164349533753694,0.059959445378027,0.11737541015317199
394,21.685,21.66,-2.36,0.08940110566398461,0.11622962741458658,0.07566326015753315,0.13175822929984593,0.05971062784124005,0.11745838305800442
395,21.745,21.71,-2.35,0.08935126562062456,0.11625614497321692,0.07561169318127461,0.131871629221734,0.05945951566495612,0.11753845491466662
396,21.826,21.77,-2.37,0.08929652822779448,0.11627867265267153,0.07555248400502455,0.13198368759434814,0.059206264601236645,0.11761563907473731
397,21.847,21.82,-2.34,0.0892370170060544,0.1162972441567232,0.0754857420603013,0.13209439800375342,0.05895103388897954,0.11768995190302428
398,21.908,21.88,-2.33,0.08917285818977984,0.11631189778812,0.0754115843482582,0.13220375507839233,0.05869398608011539,0.11776141268898915
399,21.97,21.93,-2.35,0.08910418057131206,0.11632267633530274,0.07533013527123375,0.13231175443833515,0.058435286864261166,0.1178300435573036
400,22.013,21.99,-2.33,0.08903111534558794,0.11632962695680142,0.07524152645822522,0.13241839264634966,0.05817510489191961,0.1178958693776204
401,22.074,22.04,-2.31,0.08895379595535198,0.11633280106342939,0.07514589658443643,0.13252366716081299,0.05791361159632306,0.11795891767364429
402,22.136,22.1,-2.33,0.0888723579370657,0.11633225419840347,0.07504339118506527,0.13262757629048885,0.05765098101402961,0.11801921853159085
403,22.177,22.15,-2.33,0.0887869387676395,0.11632804591553497,0.07493416246351008,0.13273011915119823,0.05738738960438908,0.11807680450812426
404,22.26,22.21,-2.31,0.08869767771211703,0.11632023965565584,0.07481836909418312,0.1328312956244209,0.05712301606800524,0.11813171053786606
405,22.302,22.26,-2.34,0.08860471567244509,0.11630890262145716,0.07469617602012672,0.13293110631786886,0.056858041164330624,0.11818397384056553
406,22.344,22.32,-2.38,0.08850819503746254,0.11629410565091859,0.07456775424563214,0.1330295525280679,0.05659264752853925,0.11823363382801937
407,22.406,22.37,-2.37,0.08840825953423795,0.11627592308949738,0.07443328062406,0.133126636204972,0.05632701948782685,0.11828073201082405
408,22.448,22.43,-2.39,0.08830505408087891,0.11625443266122648,0.07429293764105815,0.13322235991861903,0.056061342877286806,0.11832531190504031
409,22.55,22.48,-2.44,0.08819872464092698,0.11622971533884972,0.07414691319336597,0.1333167268278231,0.05579580485550096,0.1183674189388464
410,22.57,22.54,-2.42,0.08808941807943342,0.11620185521310637,0.07399540036338256,0.13340974065089808,0.05553059371996826,0.11840710035925554
411,22.632,22.59,-2.4,0.08797728202078993,0.116170939361271,0.07383859718966418,0.133501405638411,0.055265898722478404,0.11844440513897105
412,22.693,22.65,-2.46,0.08786246470836478,0.11613705771505513,0.07367670643350682,0.13359172654797302,0.05500190988452061,0.11847938388345129
413,22.755,22.7,-2.45,0.08774511486597308,0.11610030292798611,0.0735099353417688,0.1336807086210776,0.05473881781280442,0.11851208873825479
414,22.796,22.76,-2.41,0.08762538156119834,0.11606077024238946,0.07333849540609322,0.133768357561997,0.05447681351496033,0.11854257329673214
415,22.858,22.81,-2.43,0.08750341407058349,0.11601855735610889,0.07316260211870515,0.13385467951874394,0.05421608821548054,0.11857089250813103
416,22.919,22.87,-2.43,0.08737936174672142,0.11597376428909878,0.07298247472497647,0.13393968106609191,0.05395683317195378,0.11859710258617866
417,22.98,22.92,-2.39,0.08725337388729287,0.11592649325001683,0.07279833597296875,0.13402336919063515,0.0536992394916487,0.11862126091820532
418,23.042,22.98,-2.39,0.0871255996061206,0.11587684850292901,0.07261041186017927,0.13410575127784913,0.0534434979485077,0.11864342597487186
419,23.083,23.03,-2.41,0.08699618770632828,0.11582493623422008,0.0724189313777239,0.1341868351010948,0.05318979880062594,0.11866365722056015
420,23.144,23.09,-2.38,0.08686528655570708,0.11577086441978629,0.07222412625219864,0.13426662881249488,0.052938331608303045,0.11868201502448614
421,23.165,23.14,-2.38,0.08673304396440698,0.11571474269256975,0.0720262306854716,0.1343451409355945,0.052689285052767966,0.11869856057259295
422,23.227,23.2,-2.42,0.08659960706508017,0.11565668221048266,0.07182548109267511,0.1344223803597036,0.05244284675568807,0.11871335578028169
423,23.329,23.25,-2.42,0.08646512219560008,0.1155967955247678,0.07162211583868532,0.13449835633580562,0.05219920309958234,0.1187264632060381
424,23.349,23.31,-2.42,0.08632973478445838,0.11553519644884967,0.07141637497339258,0.13457307847390934,0.05195853904926306,0.11873794596601257
425,23.41,23.36,-2.48,0.08619358923891718,0.11547199992774008,0.07120849996607675,0.1346465567417127,0.05172103797443062,0.11874786764961107
426,23.451,23.42,-2.49,0.0860568288359664,0.11540732190807211,0.07099873343920683,0.13471880146443527,0.05148688147354004,0.11875629223615518
427,23.492,23.47,-2.45,0.0859195956161084,0.1153412792088419,0.07078731890198087,0.13478982332566697,0.05125624919904559,0.11876328401266847
428,23.554,23.53,-2.47,0.08578203027996743,0.11527398939294081,0.0705745004839161,0.13485963336906612,0.05102931868411489,0.1187689074928446
429,23.657,23.58,-2.46,0.0856442720876978,0.11520557063955406,0.07036052266879504,0.1349282430007279,0.05080626517088969,0.11877322733724839
430,23.678,23.64,-2.44,0.08550645876115749,0.11513614161749,0.07014563002927035,0.13499566399203003,0.05058726144036287,0.11877630827479647
431,23.72,23.69,-2.43,0.08536872638881723,0.11506582135948754,0.06993006696242973,0.13506190848275193,0.05037247764394283,0.11877821502555799
432,23.782,23.75,-2.45,0.08523120933338765,0.11499472913753345,0.06971407742661961,0.13512698898425682,0.050162081136784276,0.11877901222491095
433,23.845,23.8,-2.43,0.08509404014215541,0.11492298433921548,0.06949790467982007,0.13519091838252728,0.04995623631297706,0.1187787643490882
434,23.927,23.86,-2.41,0.08495734946002469,0.1148507063451404,0.06928179101986368,0.13525370994084848,0.04975510444269748,0.1187775356421462
435,23.947,23.91,-2.43,0.08482126594526104,0.11477801440746001,0.06906597752679355,0.1353153773019375,0.049558843511440145,0.11877539004439262
436,24.03,23.97,-2.45,0.08468591618793432,0.11470502752956835,0.0688507038076622,0.13537593448932178,0.04936760806146072,0.11877239112231051
437,24.051,24.02,-2.42,0.08455142463105392,0.11463186434705579,0.0686362077440759,0.1354353959077766,0.049181549035570274,0.11876860200001879
438,24.113,24.08,-2.47,0.08441791349439189,0.11455864301002032,0.06842272524279283,0.13549377634263748,0.04900081362342993,0.11876408529230637
439,24.155,24.13,-2.5,0.08428550270099075,0.11448548106683909,0.06821048998967573,0.13555109095782333,0.04882554511049716,0.11875890303927508
440,24.217,24.19,-2.48,0.08415430980635286,0.11441249534949431,0.06799973320727959,0.13560735529243542,0.04865588272977233,0.11875311664262014
441,24.281,24.24,-2.51,0.08402444993030511,0.11433980186053005,0.06779068341632415,0.13566258525584116,0.04849196151648765,0.11874678680357063
442,24.322,24.3,-2.54,0.0838960356915235,0.11426751566169516,0.06758356620127098,0.1357167971211822,0.04833391216586808,0.11873997346250506
443,24.404,24.35,-2.52,0.08376917714468739,0.11419575076430925,0.06737860398019516,0.1357700075172745,0.048181860894079415,0.11873273574025145
444,24.425,24.41,-2.51,0.08364398172021686,0.11412462002137808,0.06717601577911575,0.135822233418892,0.048035929302464524,0.11872513188107511
445,24.488,24.46,-2.53,0.08352055416653462,0.11405423502148015,0.06697601701093255,0.13587349213545066,0.04789623424515764,0.11871721919735448
446,24.569,24.52,-2.52,0.08339899649478497,0.11398470598445393,0.0667788192591029,0.13592380129813111,0.04776288770015796,0.11870905401594538
447,24.612,24.57,-2.49,0.08327940792593878,0.11391614165892856,0.06658463006618741,0.13597317884549764,0.04763599664394249,0.1187006916262359
448,24.673,24.63,-2.51,0.08316188484021206,0.11384864922176069,0.06639365272739232,0.13602164300768702,0.04751566292970285,0.1186921862298965
449,24.757,24.68,-2.52,0.08304652072872246,0.11378233417945835,0.0662060860892374,0.1360692122892512,0.047401983169296814,0.11868359089233184
450,24.777,24.74,-2.48,0.08293340614730046,0.11371730027169294,0.06602212435347769,0.13611590545074992,0.047295048619013756,0.11867495749584064
451,24.818,24.79,-2.5,0.08282262867236674,0.11365364937700774,0.06584195688640801,0.1361617414891907,0.04719494506926121,0.11866633669448907
452,24.9,24.85,-2.53,0.08271427285878978,0.11359148142082698,0.06566576803367558,0.13620673961741148,0.047101752738287414,0.11865777787070107
453,24.961,24.9,-2.51,0.08260842019964747,0.1135308942858539,0.06549373694072295,0.13625091924249497,0.04701554617006223,0.11864932909356596
454,24.982,24.96,-2.53,0.08250514908783095,0.11347198372492749,0.06532603737897842,0.13629429994329886,0.04693639413644376,0.11864103707886187
455,25.043,25.01,-2.57,0.0824045347794544,0.11341484327638741,0.06516283757790742,0.13633690144718086,0.046864359543757304,0.1186329471507931
456,25.146,25.07,-2.58,0.08230664935906729,0.11335956418197826,0.0650043000630359,0.13637874360599447,0.04679949934390793,0.11862510320544103
457,25.166,25.12,-2.58,0.08221156170670312,0.11330623530731147,0.06485058150005556,0.13641984637143342,0.0467418644501384,0.11861754767593155
458,25.206,25.18,-2.62,0.08211933746682115,0.113254943064896,0.06470183254512181,0.13646022976980338,0.04669149965752947,0.11861032149932636
459,25.267,25.23,-2.62,0.08203003901919688,0.11320577133974993,0.06455819770145094,0.136499913876304,0.04664844356832029,0.11860346408524854
460,25.311,25.29,-2.59,0.08194372545180563,0.11315880141761019,0.06441981518231558,0.1365389187889081,0.046612728522106385,0.11859701328625492
461,25.371,25.34,-2.6,0.0818604525357345,0.1131141119157558,0.06428681678052739,0.1365772646019246,0.04658438053095387,0.11859100536996724
462,25.431,25.4,-2.62,0.08178027270216028,0.11307177871645417,0.06415932774448967,0.13661497137932624,0.04656341921945502,0.11858547499297195
463,25.493,25.45,-2.57,0.08170323502144074,0.11303187490302764,0.0640374666608966,0.13665205912791362,0.046549857769744074,0.11858045517649822
464,25.556,25.51,-2.57,0.08162938518438141,0.11299447069852532,0.06392134534415425,0.13668854777037676,0.046543702871492405,0.11857597728388072
465,25.617,25.56,-2.59,0.08155876548575175,0.11295963340697686,0.0638110687325988,0.13672445711830358,0.046544954676905254,0.1185720709998146
466,25.678,25.62,-2.56,0.0814914148101228,0.11292742735720708,0.06370673479158781,0.13675980684518135,0.04655360676074861,0.11856876431141013
467,25.718,25.67,-2.56,0.08142736862008929,0.11289791384920285,0.06360843442354078,0.1367946164594382,0.04656964608544476,0.11856608349105525
468,25.759,25.73,-2.59,0.08136665894692713,0.11287115110303873,0.06351625138500945,0.13682890527757838,0.046593052971283334,0.1185640530810957
469,25.882,25.78,-2.61,0.08130931438372133,0.11284719421038608,0.06343026221085887,0.13686269239747398,0.046623801071801266,0.11856269588034409
470,25.903,25.84,-2.59,0.08125536008098026,0.11282609508864905,0.06335053614563785,0.13689599667188995,0.046661857354388145,0.11856203293242985
471,25.944,25.89,-2.63,0.08120481774473332,0.11280790243778606,0.0632771350822054,0.1369288366823333,0.046707182086169335,0.11856208351600259
472,26.005,25.95,-2.66,0.08115770563709454,0.11279266169988014,0.06321011350765884,0.13696123071332758,0.04675972882520952,0.11856286513680094
473,26.046,26.0,-2.63,0.08111403857926433,0.1127804150215148,0.06314951845658086,0.13699319672721902,0.046819444417065176,0.11856439352159709
474,26.108,26.06,-2.64,0.08107382795693266,0.11277120121899452,0.06309538947159724,0.13702475233961392,0.04688626899669666,0.11856668261402274
475,26.148,26.11,-2.65,0.08103708172804028,0.11276505574642307,0.06304775857122015,0.13705591479553597,0.046960135995730304,0.11856974457227704
476,26.231,26.17,-2.61,0.08100380443285078,0.11276201066662944,0.06300665022493854,0.1370867009463752,0.047040972155045484,0.11857358976871228
477,26.253,26.22,-2.59,0.0809739972062929,0.11276209462491052,0.06297208133551464,0.1371171272276876,0.04712869754265267,0.11857822679128766
478,26.315,26.28,-2.61,0.08094765779254685,0.11276533282554797,0.06294406122844799,0.13714720963789304,0.04722322557682874,0.11858366244687825
479,26.377,26.33,-2.6,0.08092478056186339,0.1127717470110573,0.06292259164857601,0.13717696371791538,0.04732446305448271,0.11858990176642534
480,26.418,26.39,-2.57,0.08090535652961227,0.11278135544414032,0.06290766676378771,0.13720640453181152,0.047432310184736544,0.11859694801191563
481,26.479,26.44,-2.6,0.08088937337755776,0.11279417289233444,0.06289927317583588,0.13723554664844168,0.047546660627716335,0.11860480268517862
482,26.521,26.5,-2.6,0.0808768154773491,0.11281021061538156,0.06289738993823776,0.1372644041242384,0.047667401538557384,0.11861346553849711
483,26.602,26.55,-2.57,0.08086766391619757,0.11282947635536934,0.06290198858125229,0.13729299048713695,0.04779441361663047,0.11862293458702867
484,26.664,26.61,-2.6,0.08086189652469833,0.11285197432971984,0.06291303314391701,0.1373213187217286,0.04792757115999928,0.1186332061230394
485,26.705,26.66,-2.62,0.08085948790674391,0.1128777052271103,0.06293048021312142,0.13734940125568793,0.04806674212511783,0.11864427473195213
486,26.745,26.72,-2.62,0.08086040947146803,0.11290666620641182,0.06295427896968821,0.13737724994750788,0.048211788191774387,0.11865613331020958
487,26.807,26.77,-2.62,0.08086462946715181,0.112938850898722,0.0629843712414323,0.13740487607555332,0.048362564833283994,0.1186687730849515
488,26.868,26.83,-2.68,0.08087211301701465,0.11297424941255475,0.06302069156316605,0.13743229032842139,0.04851892139192099,0.11868218363550267
489,26.909,26.88,-2.67,0.08088282215679511,0.11301284834224223,0.06306316724361431,0.1374595027965865,0.04868070115956862,0.11869635291666933
490,26.972,26.94,-2.65,0.08089671587400378,0.11305463077960419,0.06311171843919523,0.13748652296530586,0.048847741463544585,0.11871126728384288
491,27.035,26.99,-2.66,0.08091375014870725,0.11309957632894813,0.06316625823461151,0.13751335970876707,0.04901987375753888,0.11872691151991029
492,27.118,27.05,-2.66,0.08093387799568649,0.1131476611254726,0.06322669273018791,0.1375400212854646,0.049196923717580235,0.11874326886397137
493,27.139,27.1,-2.61,0.0809570495078184,0.11319885785714012,0.06329292113588225,0.13756651533479686,0.04937871134293201,0.11876032104186092
494,27.181,27.16,-2.57,0.08098321190056623,0.11325313579005507,0.06336483587189448,0.1375928488748728,0.049565051061813206,0.11877804829847037
495,27.242,27.21,-2.58,0.08101230955751905,0.11331046079733594,0.0634423226757978,0.13761902830150965,0.049755751841842,0.11879642943185816
496,27.366,27.27,-2.55,0.08104428407696836,0.11337079539142973,0.06352526071611742,0.13764505938838942,0.049950617305110356,0.11881544182913004
497,27.386,27.32,-2.54,0.08107907431954134,0.11343409875979134,0.06361352271228311,0.13767094728832965,0.050149445847819364,0.11883506150405566
498,27.426,27.38,-2.56,0.08111661645692522,0.11350032680384048,0.06370697506088005,0.13769669653561145,0.05035203076442899,0.11885526313637398
499,27.468,27.43,-2.54,0.08115684402172078,0.11356943218110982,0.06380547796811545,0.13772231104930777,0.05055816037629661,0.1188760201127281
500,27.55,27.49,-2.53,0.08119968795846111,0.11364136435050622,0.06390888558841112,0.13774779413756158,0.050767618164792506,0.1188973045691657
501,27.591,27.54,-2.57,0.08124507667582764,0.11371606962061788,0.06401704616902529,0.13777314850277456,0.05098018290888941,0.11891908743513961
502,27.652,27.6,-2.59,0.0812929361000876,0.11379349120101087,0.06412980220060151,0.1377983762476789,0.05119562882722526,0.11894133847894509
503,27.693,27.65,-2.58,0.0813431897297651,0.1138735692564658,0.0642469905735347,0.13782347888227833,0.05141372572463641,0.11896402635452968
504,27.756,27.71,-2.62,0.0813957586915431,0.11395624096410945,0.06436844274003782,0.13784845733165188,0.05163423914314991,0.11898711864961461
505,27.797,27.76,-2.64,0.08145056179737592,0.11404144057339738,0.06449398488178203,0.13787331194461824,0.051856930517406225,0.11901058193506646
506,27.839,27.82,-2.6,0.08150751560277439,0.11412909946889925,0.06462343808296785,0.13789804250325843,0.05208155733446068,0.1190343818154589
507,27.901,27.87,-2.6,0.08156653446621313,0.1142191462358263,0.06475661850866657,0.13792264823328823,0.05230787329788911,0.11905848298076138
508,27.962,27.93,-2.61,0.08162753060960425,0.11431150672822034,0.06489333758825601,0.13794712781526133,0.0525356284961026,0.11908284925908778
509,28.025,27.98,-2.57,0.08169041417978874,0.11440610413970163,0.0650334022037625,0.13797147939657164,0.05276456957476239,0.1191074436704339
510,28.065,28.04,-2.54,0.08175509331101967,0.11450285907664969,0.06517661488291852,0.13799570060420854,0.05299443991318333,0.11913222848132726
511,28.127,28.09,-2.57,0.08182147418844607,0.1146016896336705,0.06532277399674989,0.13801978855820626,0.053224979804617954,0.1191571652603109
512,28.189,28.15,-2.53,0.08188946111263731,0.11470251147119413,0.06547167396151156,0.1380437398857219,0.053455926640322525,0.11918221493418162
513,28.271,28.2,-2.5,0.08195895656520727,0.11480523789505197,0.06562310544479602,0.1380675507356784,0.05368701509731809,0.11920733784490566
514,28.292,28.26,-2.54,0.08202986127560746,0.11490977993789733,0.06577685557563928,0.13809121679392083,0.05391797732977213,0.11923249380713645
515,28.333,28.31,-2.55,0.0821020742891613,0.11501604644235469,0.06593270815844683,0.1381147332988503,0.05414854316393817,0.11925764216626311
516,28.438,28.37,-2.52,0.08217549303640673,0.11512394414580329,0.06609044389055509,0.13813809505751837,0.054378440296599,0.11928274185692017
517,28.458,28.42,-2.55,0.08225001340380758,0.11523337776671687,0.06624984058323792,0.13816129646217779,0.054607394496961496,0.11930775146189213
518,28.5,28.48,-2.58,0.08232552980588445,0.11534425009248683,0.06641067338596175,0.13818433150728618,0.05483512981194555,0.11933262927134904
519,28.562,28.53,-2.58,0.08240193525880873,0.11545646206865035,0.06657271501368647,0.13820719380695695,0.05506136877480016,0.11935733334234994
520,28.625,28.59,-2.59,0.08247912145550258,0.11556991288942689,0.0667357359770049,0.13822987661284336,0.05528583261696638,0.11938182155855159
521,28.687,28.64,-2.63,0.08255697884228466,0.11568450008944567,0.06689950481490849,0.13825237283243424,0.055508241483090165,0.11940605169005909
522,28.75,28.7,-2.61,0.08263539669709126,0.11580011963652856,0.06706378832995656,0.13827467504773902,0.055728314649066336,0.1194299814533565
523,28.792,28.75,-2.59,0.08271426320928436,0.11591666602538536,0.06722835182561324,0.13829677553434688,0.05594577074297096,0.11945356857125769
524,28.831,28.81,-2.59,0.08279346556103918,0.11603403237207637,0.06739295934550506,0.13831866628085232,0.056160327968715645,0.11947677083281934
525,28.913,28.86,-2.58,0.08287289001028579,0.11615211050910573,0.06755737391434133,0.1383403390086493,0.05637170433223852,0.11949954615315853
526,28.976,28.92,-2.54,0.08295242197516849,0.11627079108102306,0.06772135778023425,0.1383617851921033,0.05657961787003656,0.1195218526331179
527,29.038,28.97,-2.55,0.08303194611998496,0.1163899636404232,0.0678846726581596,0.13838299607910887,0.056783786879842334,0.11954364861871912
528,29.058,29.03,-2.55,0.08311134644256893,0.11650951674424233,0.06804707997430705,0.13840396271203076,0.05698393015325179,0.11956489276034306
529,29.099,29.08,-2.5,0.08319050636308391,0.1166293380502504,0.068208341111078,0.13842467594901306,0.05717976721011617,0.119585544071573
530,29.181,29.14,-2.49,0.08326930881420298,0.11674931441363225,0.06836821765249568,0.1384451264856251,0.05737101853451873,0.11960556198763372
531,29.222,29.19,-2.52,0.08334763633266004,0.11686933198353763,0.06852647162979797,0.138465304876797,0.057557405812165334,0.11962490642335716
532,29.285,29.25,-2.5,0.08342537115216905,0.11698927629946854,0.06868286576698815,0.13848520155898536,0.05773865216902797,0.11964353783060361
533,29.346,29.3,-2.49,0.0835023952977204,0.11710903238736235,0.06883716372612479,0.1385048068725022,0.057914482411089235,0.11966141725506661
534,29.387,29.36,-2.53,0.08357859068127214,0.11722848485522598,0.06898913035214113,0.13852411108393747,0.05808462326504156,0.11967850639239144
535,29.448,29.41,-2.54,0.08365383919885076,0.11734751798818523,0.06913853191699125,0.13854310440860632,0.05824880361979183,0.11969476764354044
536,29.552,29.47,-2.52,0.08372802282905098,0.11746601584284277,0.06928513636292481,0.13856177703296021,0.05840675476861627,0.11971016416934309
537,29.572,29.52,-2.55,0.0838010237328876,0.11758386234087573,0.06942871354469492,0.13858011913690946,0.058558210651797525,0.1197246599441715
538,29.612,29.58,-2.55,0.0838727243549113,0.11770094136183741,0.06956903547050125,0.13859812091601237,0.05870290809955855,0.11973821980868471
539,29.673,29.63,-2.5,0.08394300752546562,0.11781713683514862,0.06970587654146312,0.138615772603493,0.05884058707508955,0.11975080952158472
540,29.734,29.69,-2.51,0.08401175656394176,0.117932332831269,0.06983901378940893,0.13863306449204965,0.058970990917448486,0.11976239581032651
541,29.794,29.74,-2.52,0.08407885538287757,0.11804641365203661,0.06996822711276013,0.13864998695541064,0.05909386658410702,0.11977294642072213
542,29.835,29.8,-2.47,0.08414418859274723,0.11815926392016024,0.07009329951028184,0.1386665304695857,0.05920896489291209,0.11978243016537907
543,29.918,29.85,-2.46,0.08420764160730027,0.11827076866784313,0.0702140173124696,0.13868268563375336,0.0593160407632375,0.11979081697091229
544,29.938,29.91,-2.49,0.08426910074933132,0.11838081342450787,0.07033017041034627,0.13869844319071473,0.059414853456105886,0.11979807792387132
545,30.001,29.96,-2.46,0.08432845335678432,0.11848928430359049,0.07044155248145328,0.13871379404683912,0.059505166813068444,0.11980418531532634
546,30.043,30.02,-2.44,0.08438558788910926,0.11859606808837511,0.07054796121283341,0.13872872929142535,0.05958674949363805,0.1198091126840605
547,30.105,30.07,-2.47,0.08444039403379504,0.11870105231685679,0.07064919852081576,0.13874324021540366,0.05965937521107572,0.11981283485831858
548,30.168,30.13,-2.48,0.08449276281299456,0.11880412536564083,0.07074507076742145,0.13875731832931149,0.05972282296633273,0.11981532799606501
549,30.27,30.18,-2.46,0.08454258669014078,0.11890517653291084,0.0708353889732049,0.13877095538048892,0.05977687727995089,0.11981656962370396
550,30.291,30.24,-2.5,0.08458975967643184,0.11900409612051203,0.07091996902633864,0.13878414336945233,0.05982132842171973,0.11981653867321346
551,30.313,30.29,-2.55,0.08463417743704003,0.11910077551519614,0.07099863188773883,0.13879687456541223,0.05985597263788142,0.1198152155176417
552,30.374,30.35,-2.53,0.08467573739687938,0.11919510726906386,0.07107120379201676,0.13880914152090568,0.05988061237565911,0.11981258200491271
553,30.436,30.4,-2.51,0.08471433884574768,0.11928698517922322,0.07113751644402908,0.1388209370855108,0.05989505650486206,0.11980862148988591
554,30.478,30.46,-2.53,0.08474988304264056,0.11937630436666577,0.0711974072107885,0.13883225441861008,0.05989912053629351,0.1198033188646171
555,30.541,30.51,-2.49,0.08478227331901746,0.11946296135435037,0.07125071930848773,0.13884308700117143,0.059892626836662764,0.11979666058677048
556,30.641,30.57,-2.47,0.0848114151807949,0.1195468541444748,0.07129730198438801,0.13885342864652225,0.05987540483968661,0.11978863470613714
557,30.661,30.62,-2.48,0.08483721640885167,0.11962788229490988,0.07133701069333502,0.1388632735100985,0.059847291253060986,0.11977923088921932
558,30.703,30.68,-2.47,0.08485958715784524,0.11970594699477376,0.07136970726867847,0.13887261609815646,0.05980813026098718,0.11976844044184705
559,30.765,30.73,-2.44,0.08487844005315105,0.11978095113913495,0.07139526008738761,0.13888145127544332,0.05975777372194523,0.11975625632979824
560,30.828,30.79,-2.47,0.08489369028575101,0.11985279940284155,0.07141354422917012,0.13888977427182603,0.059696081361414986,0.119742673197398
561,30.869,30.84,-2.49,0.08490525570491031,0.11992139831347459,0.07142444162941575,0.13889758068787791,0.059622920959251,0.11972768738407542
562,31.013,30.9,-2.45,0.08491305690849604,0.11998665632341661,0.07142784122579465,0.13890486649942002,0.05953816853141961,0.11971129693885753
563,31.034,30.95,-2.45,0.08491701733080476,0.12004848388101032,0.07142363909834172,0.13891162806101062,0.05944170850580505,0.1196935016327808
564,31.055,31.01,-2.49,0.08491706332777743,0.12010679350076484,0.07141173860285573,0.13891786210837365,0.059333433891786316,0.11967430296920169
565,31.095,31.06,-2.48,0.08491312425948543,0.12016149983255368,0.0713920504974325,0.1389235657597568,0.05921324644327954,0.11965370419198693
566,31.138,31.12,-2.46,0.08490513256977132,0.1202125197297409,0.07136449306194563,0.1389287365162119,0.0590810568149346,0.11963171029156411
567,31.22,31.17,-2.48,0.08489302386292655,0.1202597723161729,0.07132899221028534,0.13893337226079436,0.05893678471116752,0.11960832800881346
568,31.262,31.23,-2.45,0.08487673697727924,0.12030317905197976,0.07128548159516548,0.1389374712566846,0.058780359027700776,0.11958356583678266
569,31.364,31.28,-2.41,0.08485621405555543,0.12034266379814436,0.07123390270531184,0.13894103214424267,0.058611717985277575,0.11955743402021007
570,31.385,31.34,-2.42,0.08483140061187187,0.1203781528798095,0.07117420495485029,0.13894405393701617,0.058430809255215925,0.1195299445528448
571,31.426,31.39,-2.41,0.08480224559522213,0.12040957514830256,0.07110634576472076,0.13894653601672485,0.05823759007647515,0.11950111117255495
572,31.489,31.45,-2.35,0.08476870144933028,0.12043686204185994,0.07103029063594893,0.1389484781272529,0.0580320273639205,0.11947094935421863
573,31.591,31.5,-2.35,0.08473072416876279,0.12045994764503003,0.07094601321461426,0.138949880367677,0.0578140978074911,0.11943947630039276
574,31.612,31.56,-2.36,0.08468827335120704,0.12047876874672193,0.07085349534836041,0.13895074318435677,0.057583787961995564,0.11940671092975648
575,31.653,31.61,-2.33,0.0846413122458399,0.12049326489685466,0.07075272713430121,0.13895106736210794,0.05734109432728305,0.11937267386332671
576,31.736,31.67,-2.32,0.0845898077977291,0.12050337846154612,0.0706437069581886,0.13895085401447657,0.057086023418560894,0.11933738740844234
577,31.756,31.72,-2.36,0.08453373068823279,0.1205090546767674,0.07052644152472858,0.13895010457312576,0.05681859182665061,0.11930087554051508
578,31.797,31.78,-2.36,0.08447305537137662,0.12051024170038258,0.0704009458789541,0.1389488207763405,0.05653882626798865,0.11926316388254697
579,31.859,31.83,-2.34,0.08440776010619337,0.12050689066249741,0.07026724341858746,0.13894700465665258,0.05624676362419003,0.11922427968241754
580,31.921,31.89,-2.36,0.08433782698500834,0.12049895571404999,0.0701253658973472,0.13894465852758284,0.05594245097099802,0.11918425178794814
581,31.98,31.94,-2.34,0.0842632419576435,0.12048639407358895,0.06997535341916897,0.13894178496949872,0.05562594559644471,0.11914311061975638
582,32.042,32.0,-2.29,0.08418399485150369,0.12046916607219789,0.06981725442331566,0.13893838681459142,0.05529731500804857,0.11910088814191856
583,32.104,32.05,-2.3,0.08410007938750112,0.12044723519653489,0.06965112566034846,0.13893446713098628,0.054956636928882086,0.11905761783046301
584,32.144,32.11,-2.3,0.08401149319177875,0.12042056812995712,0.06947703215892548,0.13893002920600633,0.054603999282356215,0.1190133346397202
585,32.185,32.16,-2.27,0.08391823780320755,0.12038913479169328,0.06929504718339079,0.13892507652861358,0.05423950016559003,0.11896807496655978
586,32.247,32.22,-2.26,0.08382031867665599,0.12035290837401011,0.06910525218212205,0.13891961277105047,0.05386324781125983,0.11892187661254712
587,32.309,32.27,-2.28,0.08371774518205141,0.12031186537730368,0.06890773672661656,0.13891364176970153,0.053475360537846725,0.11887477874405836
588,32.35,32.33,-2.27,0.08361053059926506,0.12026598564303895,0.06870259844131016,0.13890716750519663,0.05307596668822562,0.11882682185039911
589,32.412,32.38,-2.26,0.08349869210885881,0.12021525238446297,0.06848994292414089,0.1389001940817864,0.05266520455656103,0.11877804769998085
590,32.495,32.44,-2.29,0.08338225077873826,0.12015965221502181,0.06826988365788718,0.138892725706031,0.052243222303495145,0.11872849929461553
591,32.516,32.49,-2.3,0.0832612315467619,0.12009917517441744,0.0680425419123254,0.13888476666485972,0.051810177859627715,0.11867822082199771
592,32.577,32.55,-2.26,0.0831356631993592,0.12003381475224716,0.0678080466372632,0.13887632130307015,0.05136623881729842,0.11862725760644838
593,32.64,32.6,-2.27,0.08300557834621197,0.1199635679091692,0.06756653434651588,0.13886739400034523,0.05091158231069245,0.11857565605799822
594,32.682,32.66,-2.27,0.0828710133910552,0.11988843509553435,0.06731814899290307,0.13885798914786276,0.05044639488429953,0.11852346361988897
595,32.745,32.71,-2.22,0.08273200849865574,0.11980842026741483,0.06706304183434872,0.1388481111245679,0.049970872349771864,0.11847072871457152
596,32.848,32.77,-2.2,0.08258860755803715,0.11972353089995104,0.06680137129117159,0.13883776427317204,0.04948521963124739,0.1184175006882778
597,32.869,32.82,-2.22,0.08244085814202741,0.11963377799793057,0.06653330279466062,0.13882695287593821,0.04898965059923148,0.11836382975424306
598,32.931,32.88,-2.19,0.08228881146321243,0.11953917610351622,0.06625900862703697,0.1388156811303171,0.048484387893161875,0.11830976693465567
599,32.973,32.93,-2.18,0.08213252232638231,0.11943974330105019,0.06597866775292166,0.1388039531245041,0.04796966273281734,0.11825536400141143
600,33.034,32.99,-2.21,0.08197204907756112,0.11933550121887666,0.0656924656424512,0.13879177281299707,0.047445714718766005,0.11820067341575183
601,33.094,33.04,-2.22,0.08180745354971534,0.11922647502814183,0.06540059408621236,0.13877914399224006,0.046912791622081854,0.11814574826686886
602,33.156,33.1,-2.21,0.08163880100524153,0.11911269343854541,0.06510325100219282,0.1387660702764472,0.04637114916358605,0.11809064220956417
603,33.218,33.15,-2.26,0.08146616007533809,0.11899418869103089,0.06480064023497072,0.13875255507369955,0.04582105078289246,0.11803540940105489
604,33.238,33.21,-2.28,0.081289602696361,0.11887099654741219,0.06449297134739274,0.13873860156240347,0.045262767397552243,0.11798010443702182
605,33.279,33.26,-2.24,0.08110920404325114,0.11874315627694325,0.06418045940501152,0.1387242126681858,0.04469657715260307,0.11792478228699907
606,33.341,33.32,-2.25,0.0809250424601111,0.11861071063983583,0.06386332475357269,0.13870939104128682,0.04412276516083544,0.11786949822920316
607,33.403,33.37,-2.27,0.0807371993880086,0.11847370586772285,0.06354179278985485,0.1386941390344974,0.04354162323409529,0.11781430778489971
608,33.464,33.43,-2.24,0.08054575929009153,0.11833219164105424,0.06321609372617323,0.1386784586816762,0.042953449605955166,0.11775926665240273
609,33.527,33.48,-2.24,0.08035080957411704,0.11818622106340626,0.06288646234886766,0.13866235167687754,0.04235854864610631,0.11770443064080145
610,33.589,33.54,-2.28,0.08015244051251993,0.11803585063268192,0.06255313777111096,0.138645819354117,0.04175723056684717,0.11764985560350873
611,33.65,33.59,-2.28,0.07995074516016903,0.1178811402091871,0.06221636318039271,0.1386288626678025,0.04114981112206925,0.11759559737172728
612,33.672,33.65,-2.27,0.07974581926997762,0.11772215298058046,0.06187638558105139,0.13861148217386718,0.040536611299161925,0.1175417116879337
613,33.732,33.7,-2.31,0.07953776120654957,0.11755895542371228,0.06153345553224494,0.13859367801164924,0.03991795700427738,0.11748825413948384
614,33.793,33.76,-2.34,0.07932667185804819,0.11739161726338482,0.061187826881757584,0.1385754498865772,0.03929417874140978,0.11743528009244857
615,33.855,33.81,-2.32,0.07911265454647018,0.11722021142808285,0.06083975649604154,0.13855679705373172,0.03866561128575399,0.11738284462579059
616,33.937,33.87,-2.37,0.07889581493649944,0.1170448140027306,0.060489503986887745,0.1385377183023641,0.03803259335181946,0.11733100246599312
617,33.958,33.92,-2.33,0.07867626094310648,0.11686550417852665,0.060137331435115876,0.13851821194145353,0.03739546725677963,0.11727980792224764
618,34.0,33.98,-2.33,0.07845410263805414,0.11668236419989339,0.059783503111670244,0.13849827578638266,0.03675457857954344,0.11722931482230316
619,34.061,34.03,-2.34,0.07822945215547039,0.11649547930855494,0.05942828519650853,0.13847790714680203,0.03611027581604361,0.11717957644907318
620,34.123,34.09,-2.39,0.07800242359665287,0.11630493768473137,0.05907194549567089,0.13845710281574306,0.03546291003125279,0.11713064547808894
621,34.163,34.14,-2.35,0.0777731329342726,0.11611083038541735,0.058714753156918494,0.1384358590600316,0.03481283450845956,0.11708257391588103
622,34.244,34.2,-2.35,0.07754169791614937,0.11591325127970453,0.058356978384332694,0.13841417161205152,0.0341604043963579,0.11703541303936814
623,34.306,34.25,-2.4,0.07730823796878002,0.11571229698110841,0.05799889215227205,0.13839203566291092,0.0335059763545209,0.1169892133363299
624,34.327,34.31,-2.42,0.07707287410081232,0.11550806677687396,0.057640765919091425,0.13836944585706817,0.03284990819784649,0.11694402444704223
625,34.388,34.36,-2.41,0.07683572880666874,0.11530066255425052,0.05728287134103258,0.13834639628848192,0.03219255854057818,0.11689989510715366
626,34.45,34.42,-2.47,0.07659692597053352,0.11509018872373793,0.05692547998669794,0.1383228804983525,0.031534286440517374,0.11685687309187978
627,34.49,34.47,-2.51,0.07635659077092466,0.11487675213930733,0.056568863052516856,0.1382988914745185,0.03087545104404863,0.11681500516158981
628,34.55,34.53,-2.52,0.07611484958607999,0.11466046201558738,0.056213291079607604,0.13827442165256215,0.030216411232597964,0.11677433700885652
629,34.611,34.58,-2.55,0.07587182990039901,0.11444142984198481,0.05585903367243181,0.13824946291866355,0.029557525271138172,0.11673491320703562
630,34.673,34.64,-2.63,0.07562766021218655,0.11421976929368786,0.055506359219631186,0.13822400661422568,0.028899150459343853,0.11669677716043829
631,34.734,34.69,-2.66,0.07538246994291815,0.11399559613951392,0.05515553461742642,0.1381980435422851,0.028241642785981024,0.11665997105615748
632,34.795,34.75,-2.7,0.07513638934817865,0.11376902814661907,0.054806824995945726,0.13817156397571978,0.02758535658709655,0.11662453581760583
633,34.836,34.8,-2.75,0.074889549430335,0.11354018498217093,0.054460493448838035,0.13814455766726766,0.026930644208543648,0.11659051105982142
634,34.896,34.86,-2.77,0.07464208185292472,0.11330918811215704,0.05411680076651369,0.13811701386137368,0.026277855673344175,0.11655793504659737
635,34.959,34.91,-2.74,0.07439411885669595,0.1130761606975401,0.053776005173345486,0.13808892130788208,0.025627338354350417,0.11652684464949137
636,35.041,34.97,-2.79,0.07414579317722113,0.112841227487981,0.05343836206915701,0.13806026827758422,0.02497943665263542,0.11649727530876938
637,35.061,35.02,-2.81,0.07389723796401118,0.11260451471334655,0.05310412377532197,0.138031042579614,0.024334491682014372,0.11646926099633481
638,35.103,35.08,-2.78,0.07364858670107025,0.11236614997320835,0.052773539285791815,0.13800123158066396,0.02369284096008351,0.1164428341806901
639,35.165,35.13,-2.8,0.07339997312884933,0.11212626212452334,0.05244685402336097,0.13797082222597146,0.023054818106155044,0.11641802579397084
640,35.227,35.19,-2.84,0.07315153116757489,0.11188498116766761,0.052124309601469,0.13793980106200587,0.022420752546460233,0.11639486520108636
641,35.27,35.24,-2.84,0.07290339484194314,0.11164243813097761,0.05180614359182953,0.1379081542607701,0.021790969226987672,0.1163733801709942
642,35.331,35.3,-2.85,0.07265569820718391,0.11139876495393607,0.05149258929817237,0.1378758676456145,0.021165788334322963,0.11635359685012957
643,35.455,35.35,-2.9,0.07240857527651065,0.11115409436912786,0.05118387553638854,0.13784292671844772,0.020545525024848094,0.1163355397380063
644,35.476,35.41,-2.93,0.07216215994998003,0.1109085597830859,0.05088022642137061,0.13780931668821936,0.019930489162650344,0.1163192316650027
645,35.537,35.46,-2.94,0.07191658594478458,0.11066229515615154,0.050581861160841984,0.13777502250054569,0.019320985066475553,0.11630469377234139
646,35.558,35.52,-3.01,0.07167198672698986,0.11041543488148822,0.05028899385646532,0.13774002886834855,0.018717311266042366,0.1162919454942682
647,35.621,35.57,-3.06,0.07142849544470681,0.11016811366340537,0.05000183331250721,0.13770432030338076,0.018119760268007566,0.11628100454243136
648,35.661,35.63,-3.05,0.0711862448626684,0.10992046639516045,0.04972058285231259,0.13766788114851863,0.017528618331838223,0.11627188689245793
649,35.703,35.68,-3.08,0.07094536729817057,0.10967262803640053,0.04944544014281381,0.1376306956107051,0.016944165255807404,0.11626460677272056
650,35.785,35.74,-3.1,0.0707059945583365,0.10942473349038541,0.04917659702727165,0.13759274779442274,0.016366674173287164,0.11625917665528218
651,35.847,35.79,-3.08,0.07046825787867021,0.1091769174811125,0.04891423936642385,0.13755402173556433,0.0157964113594747,0.11625560724900241
652,35.887,35.85,-3.08,0.07023228786287801,0.10892931443044403,0.04865854688820535,0.1375145014355504,0.015233636048657195,0.11625390749478497
653,35.949,35.9,-3.11,0.06999821442395693,0.10868205833532082,0.04840969304619877,0.13747417089553224,0.014678600262100858,0.11625408456294328
654,36.011,35.96,-3.09,0.06976616672656605,0.10843528264514313,0.04816784488696106,0.1374330141505266,0.014131548646637264,0.11625614385266204
655,36.072,36.01,-3.08,0.06953627313070881,0.10818912013940717,0.047933162926348305,0.13739101530336298,0.01359271832401283,0.11626008899353141
656,36.092,36.07,-3.12,0.06930866113675734,0.10794370280570383,0.047705801034929184,0.13734815855837368,0.013062338751063062,0.11626592184913266
657,36.154,36.12,-3.13,0.06908345733184365,0.10769916171821044,0.047485906332548775,0.13730442825480155,0.012540631590769008,0.11627364252265292
658,36.216,36.18,-3.12,0.06886078733762774,0.10745562691683135,0.04727361909208141,0.13725980889993036,0.012027810594249058,0.11628324936450543
659,36.277,36.23,-3.17,0.06864077575943525,0.10721322728716308,0.04706907265239367,0.1372142852019551,0.01152408149373241,0.1162947389819286
660,36.34,36.29,-3.21,0.06842354613674083,0.10697209044146866,0.046872393340521505,0.13716784210261182,0.011029641906549568,0.11630810625053127
661,36.401,36.34,-3.21,0.06820922089495583,0.10673234260084707,0.04668370040304116,0.13712046480958265,0.010544681250158104,0.11632334432774835
662,36.441,36.4,-3.24,0.06799792129846498,0.10649410847877626,0.046503105946582454,0.13707213882868824,0.010069380668198485,0.11634044466816416
663,36.524,36.45,-3.29,0.06778976740484328,0.10625751116619771,0.04633071488739802,0.13702284999587924,0.00960391296754472,0.1163593970406588
664,36.544,36.51,-3.28,0.06758487802017041,0.10602267201830215,0.046166624909871314,0.13697258450903804,0.009148442566280605,0.1163801895473308
665,36.584,36.56,-3.26,0.06738337065534478,0.10578971054317447,0.04601092643383012,0.1369213289596002,0.008703125452497842,0.11640280864415115
666,36.644,36.62,-3.27,0.06718536148328912,0.10555874429246069,0.045863702590527376,0.13686907036399645,0.008268109153778187,0.1164272391633043
667,36.706,36.67,-3.27,0.06699096529693131,0.10532988875422875,0.04572502920715251,0.13681579619490838,0.00784353271719618,0.11645346433717427
668,36.767,36.73,-3.24,0.06680029546784663,0.10510325724820385,0.04559497479973748,0.13676149441232577,0.007429526699662949,0.11648146582393232
669,36.89,36.78,-3.25,0.06661346390545554,0.10487896082356392,0.04547360057432344,0.13670615349438875,0.007026213168426087,0.11651122373468084
670,36.911,36.84,-3.3,0.0664305810166816,0.10465710815948076,0.04536096043625172,0.13664976246799312,0.006633705711541667,0.11654271666210332
671,36.931,36.89,-3.26,0.06625175566598031,0.1044378054685893,0.04525710100743579,0.1365923109391313,0.006252109458133845,0.1165759217105666
672,36.972,36.95,-3.26,0.06607709513565237,0.10422115640356086,0.04516206165146242,0.136533789122934,0.005881521108257352,0.11661081452761743
673,37.074,37.0,-3.3,0.06590670508635038,0.10400726196695304,0.045075874506362405,0.1364741878733671,0.005522028972170003,0.1166473693368133
674,37.094,37.06,-3.27,0.06574068951767566,0.10379622042451257,0.044998564524884474,0.13641349871253125,0.005173713018812539,0.1166855589718267
675,37.136,37.11,-3.27,0.06557915072874791,0.10358812722211665,0.04493014952210409,0.1363517138595102,0.004836644933285253,0.11672535491176403
676,37.197,37.17,-3.3,0.06542218927862749,0.10338307490654136,0.044870640230200806,0.13628882625871167,0.004510888183103405,0.11676672731764176
677,37.258,37.22,-3.32,0.06526990394647963,0.10318115305023562,0.0448200403602429,0.1362248296076507,0.004196498093007977,0.1168096450699664
678,37.319,37.28,-3.3,0.06512239169139365,0.10298244818025186,0.044778346670822956,0.13615971838412594,0.003893521928100711,0.11685407580736548
679,37.36,37.33,-3.33,0.06497974761179766,0.10278704371144627,0.04474554904339427,0.1360934878727352,0.0036019989850627713,0.11689998596621776
680,37.421,37.39,-3.34,0.06484206490443073,0.10259501988402529,0.044721630564162354,0.136026134190663,0.003321960691201576,0.11694734082122961
681,37.463,37.44,-3.29,0.06470943482284362,0.10240645370548612,0.04470656761238361,0.13595765431265583,0.003053430711054598,0.11699610452690368
682,37.546,37.5,-3.27,0.06458194663540902,0.10222141889697406,0.044700329954912146,0.13588804609508748,0.0027964250602654267,0.1170462401598423
683,37.629,37.55,-3.3,0.06445968758283341,0.10203998584406015,0.04470288084681645,0.13581730829901092,0.002550952226439596,0.11709770976182637
684,37.65,37.61,-3.27,0.06434274283517663,0.10186222155192798,0.04471417713786835,0.13574544061209023,0.002317013296690664,0.117150474383608
685,37.691,37.66,-3.24,0.06423119544839742,0.10168818960495306,0.04473416938469726,0.13567244366930947,0.002094602091596546,0.11720449412935326
686,37.754,37.72,-3.27,0.06412512632045371,0.10151795013065958,0.04476280196840608,0.13559831907235284,0.001883705305299531,0.1172597282016725
687,37.795,37.77,-3.28,0.06402461414698861,0.10135155976805013,0.04480001321745168,0.13552306940755257,0.0016843026514944094,0.1173161349471783
688,37.857,37.83,-3.26,0.06392973537663228,0.10118907164031855,0.04484573553560151,0.13544669826230366,0.0014963670150597529,0.11737367190251377
689,37.919,37.88,-3.29,0.0638405641659558,0.10103053533196005,0.04489989553478826,0.13536921023984408,0.001319864609092516,0.11743229584079692
690,38.023,37.94,-3.31,0.06375717233412594,0.10087599687028667,0.04496241417269385,0.13529061097229644,0.0011547551371085172,0.11749196281842608
691,38.043,37.99,-3.3,0.06367962931732414,0.1007254987113361,0.04503320689489821,0.13521090713186157,0.0010009919601659362,0.1175526282221929
692,38.085,38.05,-3.32,0.06360800212300675,0.10057907973013436,0.04511218378142728,0.13513010644004692,0.0008585222686617031,0.11761424681664558
693,38.127,38.1,-3.37,0.06354235528409038,0.10043677521524227,0.04519924969752944,0.13504821767480343,0.0007272872585392826,0.11767677279164457
694,38.207,38.16,-3.35,0.06348275081314587,0.10029861686748762,0.04529430444850019,0.13496525067543627,0.0006072223116322074,0.11774015981004923
695,38.269,38.21,-3.33,0.0634292481566819,0.10016463280275995,0.045397242938367215,0.13488121634514766,0.0004982571798511206,0.11780436105547157
696,38.351,38.27,-3.36,0.06338190414959982,0.10003484755872168,0.045507955332242875,0.13479612665106938,0.00040031617290399007,0.1178693292800322
697,38.372,38.32,-3.34,0.06334077296990036,0.09990928210527798,0.04562632722214127,0.13470999462166197,0.00031331834922095937,0.11793501685205388
698,38.412,38.38,-3.31,0.06330590609371754,0.09978795385865122,0.04575223979603721,0.13462283434141262,0.00023717770974726965,0.11800137580362925
699,38.473,38.43,-3.33,0.06327735225074786,0.09967087669892395,0.04588557000992164,0.13453466094283165,0.0001718033942632282,0.11806835787800338
700,38.535,38.49,-3.32,0.06325515738012825,0.09955806099093806,0.046026190762590236,0.1344454905958069,0.0001170998798910564,0.11813591457671405
701,38.577,38.54,-3.27,0.06323936458680324,0.09944951360846074,0.04617397107289307,0.13435534049440578,7.296718145353768e-05,0.11820399720643865
702,38.639,38.6,-3.28,0.06323001409841367,0.09934523796153953,0.04632877625917159,0.13426422884122294,3.930105335810048e-05,0.11827255692549825
703,38.719,38.65,-3.3,0.06322714322274386,0.09924523402696699,0.04649046812061026,0.13417217482936727,1.5993192690344726e-05,0.11834154478997227
704,38.739,38.71,-3.28,0.06323078630577275,0.09914949838176879,0.04665890512023285,0.13407919862217663,2.931443215622518e-06,0.11841091179937624
705,38.8,38.76,-3.28,0.06324097469038664,0.09905802423961989,0.04683394256927958,0.13398532133074184,0.0,0.11848060894185516
706,38.862,38.82,-3.32,0.06325773667582014,0.09897080149008963,0.04701543281271031,0.1338905649893184,7.079614369557065e-06,0.11855058723884628
707,38.922,38.87,-3.32,0.06328109747788857,0.0988878167406227,0.047203225415585276,0.1337949525287077,2.404779893075363e-05,0.11862079778916768
708,38.963,38.93,-3.32,0.06331107919006518,0.09880905336117678,0.047397167350079525,0.13369850774769915,5.077903237096203e-05,0.11869119181249398
709,39.024,38.98,-3.35,0.06334770074544273,0.09873449153144985,0.047597103182891266,0.13360125528267897,8.714496375226417e-05,0.1187617206921833
710,39.085,39.04,-3.34,0.06339097787960159,0.09866410829064311,0.04780287526280263,0.13350322057552647,0.00013301461599912447,0.1188323360174237
711,39.126,39.09,-3.29,0.06344092309438656,0.09859787758971401,0.048014323908144224,0.13340442983993223,0.0001882545882679762,0.11890298962466855
712,39.167,39.15,-3.3,0.06349754562257992,0.09853577034607779,0.04823128759390459,0.1333049100262797,0.00025272925687664293,0.11897363363832972
713,39.228,39.2,-3.31,0.06356085139345567,0.09847775450070759,0.04845360313821528,0.1332046887852325,0.00032630097446785967,0.11904422051069577
714,39.29,39.26,-3.27,0.06363084299921261,0.09842379507756757,0.04868110588793215,0.13310379443017012,0.00040883026708758615,0.11911470306104015
715,39.351,39.31,-3.25,0.06370751966230678,0.09837385424529158,0.04891362990303114,0.13300225589861214,0.0005001760288693808,0.11918503451388408
716,39.392,39.37,-3.27,0.06379087720372856,0.09832789138099854,0.04915100813954335,0.1329001027127631,0.0006001957140288736,0.11925516853638123
717,39.453,39.42,-3.24,0.06388090801229294,0.09828586313611966,0.0493930726307685,0.1327973649392991,0.0007087455258853239,0.11932505927479696
718,39.534,39.48,-3.22,0.06397760101503275,0.09824772350410191,0.04963965466652617,0.1326940731485099,0.0008256806026420792,0.1193946613900616
719,39.554,39.53,-3.23,0.06408094164880396,0.0982134238898507,0.04989058497022782,0.13259025837290153,0.0009508551996748095,0.11946393009238387
720,39.616,39.59,-3.24,0.06419091183322018,0.09818291318078128,0.05014569387357305,0.13248595206536873,0.0010841228680920816,0.11953282117491623
721,39.697,39.64,-3.22,0.0643074899450296,0.09815613781936207,0.05040481148868498,0.13238118605704927,0.0012253366293498399,0.11960129104646675
722,39.738,39.7,-3.25,0.06443065079403802,0.09813304187704297,0.05066776787750402,0.13227599251498115,0.001374349145713875,0.11966929676325283
723,39.822,39.75,-3.27,0.06456036560067058,0.09811356712946125,0.050934393218256116,0.13217040389968393,0.0015310128863729095,0.11973679605969093
724,39.843,39.81,-3.25,0.06469660197525741,0.09809765313280681,0.05120451796880547,0.13206445292278088,0.00169518028900721,0.11980374737821502
725,39.924,39.86,-3.24,0.06483932389912368,0.09808523730121071,0.051477973026696766,0.131958172504772,0.001866703916614127,0.11987010989811682
726,39.944,39.92,-3.25,0.06498849170755898,0.09807625498500501,0.051754589885689636,0.13185159573305968,0.0020454366093858992,0.11993584356339992
727,40.006,39.97,-3.21,0.06514406207473288,0.09807063954970077,0.05203420078858617,0.13174475582032855,0.0022312316314299797,0.12000090910964269
728,40.046,40.03,-3.18,0.06530598800061727,0.09806832245553812,0.05231663887615633,0.13163768606338322,0.002423942812124246,0.1200652680898679
729,40.108,40.08,-3.19,0.06547421879997681,0.09806923333747988,0.05260173833197956,0.13153041980255514,0.002623424681910958,0.12012888289942049
730,40.211,40.14,-3.18,0.06564870009348883,0.09807330008554277,0.05288933452303886,0.1314229903817918,0.0028295326023498836,0.12019171679985924
731,40.233,40.19,-3.06,0.06582937380105615,0.09808044892538594,0.05317926413592358,0.13131543110955007,0.0030421228902745754,0.12025373394187035
732,40.272,40.25,-3.1,0.06601617813737942,0.0980906044990972,0.05347136530851737,0.13120777522061106,0.0032610529359206894,0.12031489938721109
733,40.333,40.3,-3.11,0.06620904760986238,0.09810368994612852,0.05376547775706485,0.13110005583892706,0.0034861813149268447,0.12037517912968977
734,40.394,40.36,-3.09,0.06640791301892629,0.09811962698433309,0.05406144289852161,0.13099230594159988,0.0037173678941469306,0.12043454011518337
735,40.456,40.41,-3.11,0.06661270146081218,0.09813833599105191,0.0543591039680994,0.13088455832408089,0.0039544739312516826,0.12049295026068779
736,40.498,40.47,-3.15,0.06682333633294542,0.09815973608418889,0.05465830613192169,0.13077684556667138,0.0041973621681252495,0.120550378472392
737,40.601,40.52,-3.15,0.06703973734192827,0.09818374520320954,0.05495889659470645,0.13066920000239787,0.004445896918075543,0.12060679466276482
738,40.621,40.58,-3.17,0.06726182051420959,0.0982102801899996,0.05526072470239455,0.1305616536863276,0.004699944146878819,0.12066216976664348
739,40.663,40.63,-3.2,0.06748949820946216,0.0982392568695246,0.05556364203964727,0.13045423836638625,0.004959371547672843,0.12071647575631361
740,40.725,40.69,-3.19,0.06772267913667618,0.09827059013023817,0.05586750252214187,0.1303469854557337,0.005224048609701396,0.12076968565557296
741,40.766,40.74,-3.16,0.06796126837296448,0.09830419400418863,0.05617216248359984,0.13023992600675172,0.005493846680900129,0.12082177355277295
742,40.848,40.8,-3.17,0.06820516738507415,0.09833998174676961,0.056477480757492336,0.13013309068668674,0.005768639024299703,0.12087271461283484
743,40.931,40.85,-3.16,0.06845427405360711,0.09837786591605176,0.05678331875338042,0.13002650975497382,0.006048300868215382,0.12092248508823998
744,40.952,40.91,-3.11,0.06870848269996592,0.09841775845162247,0.057089540527862276,0.12992021304224358,0.0063327094501954674,0.12097106232899507
745,40.992,40.96,-3.1,0.06896768411605395,0.09845957075284932,0.057396012850116515,0.12981422993099223,0.006621744054709587,0.12101842479157415
746,41.053,41.02,-3.11,0.06923176559676973,0.09850321375647278,0.05770260526204551,0.12970858933787682,0.006915286044576029,0.12106455204683875
747,41.114,41.07,-3.08,0.06950061097534062,0.09854859801343012,0.058009190133034114,0.1296033196975889,0.007213218886145958,0.1211094247869369
748,41.155,41.13,-3.07,0.06977410066154828,0.09859563376481058,0.05831564270935003,0.12949844894826104,0.007515428168290635,0.12115302483118119
749,41.218,41.18,-3.11,0.0700521116829159,0.0986442310168368,0.05862184115822665,0.12939400451836,0.00782180161526028,0.12119533513090647
750,41.299,41.24,-3.11,0.07033451772894618,0.09869429961476209,0.05892766660668587,0.12929001331502246,0.008132229093504808,0.12123633977331019
751,41.32,41.29,-3.09,0.07062118919851727,0.09874574931557022,0.05923300317517441,0.1291865017137931,0.008446602612560285,0.12127602398428287
752,41.381,41.35,-3.12,0.07091199325055637,0.09879848985936403,0.059537738006099745,0.12908349554972726,0.008764816320112247,0.1213143741302403
753,41.422,41.4,-3.14,0.07120679385811163,0.09885243103933089,0.05984176128735875,0.12898102010982224,0.009086766491348182,0.12135137771897302
754,41.484,41.46,-3.11,0.07150545186593625,0.09890748277017293,0.06014496627095183,0.12887910012673837,0.009412351512710297,0.12138702339952957
755,41.565,41.51,-3.1,0.07180782505168477,0.09896355515488432,0.060447249286772226,0.12877775977376707,0.009741471860156154,0.12142130096114664
756,41.586,41.57,-3.11,0.07211376819080019,0.09902055854974974,0.06074850975165595,0.12867702266099137,0.010074030072031259,0.12145420133123676
757,41.667,41.62,-3.06,0.0724231331251442,0.09907840362743114,0.061048650173773936,0.12857691183257355,0.010409930716657682,0.12148571657243969
758,41.728,41.68,-3.04,0.07273576883539859,0.09913700143801116,0.06134757615245061,0.12847744976509606,0.010749080354750142,0.12151583987874111
759,41.769,41.73,-3.06,0.07305152151725068,0.09919626346787111,0.06164519637350281,0.1283786583668746,0.011091387496785165,0.12154456557066189
760,41.832,41.79,-3.04,0.07337023466136863,0.09925610169630263,0.06194142260020564,0.12828055897816534,0.011436762555469339,0.12157188908952339
761,41.893,41.84,-3.01,0.07369174913716722,0.09931642864978397,0.06223616966000239,0.1281831723721989,0.011785117793476827,0.12159780699079797
762,41.935,41.9,-3.03,0.07401590328035734,0.09937715745388935,0.06252935542708386,0.12808651875699006,0.012136367266647472,0.12162231693655806
763,41.975,41.95,-3.02,0.07434253298425454,0.09943820188284044,0.06282090080096554,0.12799061777789114,0.012490426762856464,0.12164541768704211
764,42.037,42.01,-2.99,0.07467147179479547,0.09949947640674824,0.06311072968119093,0.12789548852087596,0.012847213736783599,0.12166710909135847
765,42.098,42.06,-3.0,0.07500255100918196,0.09956089623662087,0.06339876893829179,0.12780114951655105,0.013206647240826605,0.12168739207734952
766,42.16,42.12,-3.02,0.07533559977805249,0.09962237736722594,0.06368494838113965,0.12770761874489361,0.013568647852419258,0.12170626864063627
767,42.221,42.17,-3.01,0.07567044521106767,0.09968383661789611,0.0639692007208261,0.1276149136407081,0.013933137598027862,0.12172374183286046
768,42.283,42.23,-3.03,0.07600691248579623,0.09974519167135801,0.06425146153121548,0.12752305109978032,0.014300039874113905,0.12173981574913717
769,42.344,42.28,-3.08,0.07634482495979038,0.09980636111065293,0.06453166920632565,0.1274320474856898,0.014669279365355599,0.12175449551472887
770,42.407,42.34,-3.08,0.07668400428573983,0.09986726445421137,0.06480976491470193,0.12734191863723082,0.015040781960419695,0.1217677872709519
771,42.427,42.39,-3.05,0.07702427052958802,0.09992782218914743,0.0650856925509565,0.1272526798763935,0.015414474665564571,0.12177969816032848
772,42.468,42.45,-3.08,0.07736544229148586,0.09998795580284472,0.06535939868464707,0.12716434601686366,0.01579028551634057,0.12179023631099872
773,42.531,42.5,-3.07,0.07770733682945132,0.10004758781291455,0.06563083250666736,0.12707693137301168,0.016168143487638908,0.1217994108204082
774,42.592,42.56,-3.04,0.07804977018559557,0.10010664179561406,0.06589994577331725,0.12699044976935042,0.01654797840233076,0.12180723173828512
775,42.653,42.61,-3.06,0.07839255731477428,0.10016504241281388,0.06616669274821436,0.12690491455044872,0.01692972083873584,0.12181371004891858
776,42.695,42.67,-3.06,0.0787355122155255,0.10022271543760049,0.06643103014220489,0.12682033859128436,0.017313302037162904,0.12181885765274686
777,42.776,42.72,-3.02,0.07907844806316469,0.10027958777858872,0.06669291705142662,0.1267367343080145,0.017698653805766816,0.12182268734726327
778,42.84,42.78,-3.01,0.07942117734492422,0.10033558750300468,0.06695231489367813,0.12665411366913426,0.01808570842597332,0.12182521280724774
779,42.882,42.83,-3.06,0.07976351199704712,0.10039064385858214,0.06720918734325351,0.12657248820698466,0.018474398557726205,0.12182644856433228
780,42.924,42.89,-3.04,0.08010526354376334,0.10044468729430721,0.06746350026441311,0.12649186902956772,0.0188646571448206,0.12182640998591245
781,42.964,42.94,-3.02,0.0804462432380868,0.10049764948004652,0.0677152216436737,0.12641226683262755,0.01925641732059339,0.12182511325341998
782,43.025,43.0,-3.05,0.08078626220436977,0.10054946332510759,0.06796432152111853,0.12633369191196,0.019649612314245432,0.12182257533997772
783,43.087,43.05,-3.06,0.0811251315825367,0.10060006299579903,0.06821077192093859,0.12625615417591934,0.02004417535806694,0.12181881398746468
784,43.17,43.11,-3.04,0.0814626626739002,0.10064938393207964,0.06845454678141916,0.1261796631580992,0.0204400395958351,0.12181384768302321
785,43.191,43.16,-3.08,0.08179866708844433,0.1006973628633925,0.0686956218845826,0.1261042280301682,0.020837137992648434,0.12180769563504003
786,43.252,43.22,-3.11,0.08213295689344709,0.10074393782377712,0.06893397478568998,0.1260298576148366,0.021235403246452306,0.12180037774863167
787,43.292,43.27,-3.09,0.08246534476330133,0.10078904816633706,0.06916958474279564,0.12595656039891992,0.021634767701497592,0.1217919146006605
788,43.353,43.33,-3.07,0.08279564413038264,0.10083263457712062,0.0694024326465429,0.12588434454644742,0.02203516326395795,0.12178232741430367
789,43.414,43.38,-3.09,0.08312366933680296,0.10087463908845373,0.06963250095038563,0.1258132179117483,0.02243652131991246,0.12177163803319523
790,43.516,43.44,-3.06,0.08344923578688203,0.10091500509175198,0.0698597736014173,0.12574318805243734,0.022838772655884028,0.12175986889516267
791,43.536,43.49,-3.04,0.0837721601001671,0.1009536773498384,0.07008423597199093,0.12567426224222097,0.02324184738211458,0.12174704300558306
792,43.576,43.55,-3.05,0.08409226026483459,0.10099060200880011,0.0703058747923227,0.12560644748344282,0.0236456748587545,0.12173318391038776
793,43.638,43.6,-3.05,0.08440935579131235,0.1010257266094312,0.07052467808428207,0.12553975051929459,0.024050183625145393,0.12171831566874901
794,43.698,43.66,-3.0,0.08472326786596321,0.10105900009832397,0.07074063509657438,0.1254741778456275,0.024455301332380188,0.12170246282548394
795,43.76,43.71,-3.03,0.0850338195046742,0.10109037283868301,0.07095373624151667,0.12540973572231287,0.02486095467932986,0.12168565038321123
796,43.802,43.77,-3.07,0.08534083570619815,0.10111979662094067,0.07116397303359745,0.12534643018410993,0.0252670693523341,0.12166790377429408
797,43.864,43.82,-3.05,0.08564414360509753,0.10114722467324852,0.07137133802999786,0.12528426705100307,0.025673569968753997,0.12164924883260118
798,43.926,43.88,-3.06,0.08594357262414833,0.10117261167190512,0.07157582477324323,0.12522325193796727,0.02608038002458432,0.1216297117651164
799,43.988,43.93,-3.11,0.08623895462606884,0.1011959137517616,0.071777427736147,0.1251633902641134,0.026487421846308444,0.12160931912343075
800,44.009,43.99,-3.09,0.08653012406444054,0.10121708851663334,0.07197614226919721,0.12510468726116353,0.026894616547159536,0.12158809777515751
801,44.069,44.04,-3.1,0.08681691813368117,0.10123609504974099,0.07217196455052452,0.1250471479812121,0.027301883987928533,0.12156607487531759
802,44.13,44.1,-3.14,0.08709917691791859,0.10125289392420667,0.07236489153857843,0.12499077730374021,0.027709142742434557,0.12154327783774894
803,44.232,44.15,-3.15,0.08737674353859472,0.10126744721363828,0.07255492092762902,0.12493557994185675,0.02811631006774772,0.1215197343065964
804,44.253,44.21,-3.11,0.08764946430060973,0.10127971850284097,0.07274205110619893,0.12488156044775099,0.02852330187922637,0.12149547212793745
805,44.293,44.26,-3.12,0.08791718883679733,0.10128967289869575,0.07292628111851786,0.12482872321733889,0.02893003273040348,0.12147051932159518
806,44.354,44.32,-3.12,0.08817977025050665,0.10129727704124195,0.07310761062907588,0.12477707249408279,0.029336415797728742,0.1214449040531825
807,44.394,44.37,-3.09,0.0884370652560569,0.10130249911499088,0.07328603989033264,0.1247266123719551,0.029742362870152746,0.12141865460641493
808,44.456,44.43,-3.07,0.08868893431683716,0.10130530886048131,0.07346156971362729,0.12467734679750485,0.0301477843435254,0.12139179935572247
809,44.518,44.48,-3.09,0.08893524178083989,0.10130567758606542,0.07363420144332083,0.12462927957097558,0.030552589219772587,0.12136436673918732
810,44.6,44.54,-3.05,0.08917585601343722,0.10130357817989474,0.07380393693419267,0.12458241434642305,0.030956685110810227,0.12133638523183223
811,44.622,44.59,-3.03,0.08941064952723027,0.1012989851220631,0.07397077853210217,0.12453675463079371,0.03135997824715377,0.1213078833192849
812,44.683,44.65,-3.03,0.08963949910881859,0.10129187449685588,0.07413472905792233,0.1244923037819399,0.03176237349118099,0.12127888947184508
813,44.725,44.7,-3.03,0.0898622859423475,0.10128222400506062,0.0742957917947512,0.124449065005563,0.03216377435500876,0.12124943211898336
814,44.785,44.76,-2.99,0.09007889572968933,0.10127001297630564,0.07445397047840667,0.12440704135108943,0.03256408302294879,0.12121953962430106
815,44.87,44.81,-3.01,0.09028921880711611,0.1012552223814049,0.07460926929121019,0.12436623570649077,0.03296320037851099,0.12118924026097952
816,44.89,44.87,-3.03,0.0904931502583199,0.10123783484468925,0.07476169285905995,0.12432665079206108,0.03336102603592305,0.12115856218774322
817,44.974,44.92,-3.01,0.09069059002363739,0.10121783465629565,0.07491124625177938,0.12428828915316201,0.03375745837613193,0.12112753342535652
818,45.037,44.98,-3.04,0.09088144300533216,0.10119520778437072,0.07505793498670275,0.1242511531519444,0.03415239458724568,0.12109618183366691
819,45.058,45.03,-3.06,0.09106561916877841,0.10116994188712744,0.07520176503543057,0.12421524495805299,0.03454573070935867,0.12106453508920235
820,45.12,45.09,-3.03,0.09124303363937347,0.10114202632467897,0.07534274283365373,0.12418056653832381,0.034937361683684935,0.1210326206633258
821,45.16,45.14,-3.0,0.09141360679499212,0.10111145217056207,0.07548087529391796,0.1241471196454913,0.035327181405898474,0.12100046580094645
822,45.222,45.2,-3.01,0.09157726435378448,0.10107821222285857,0.07561616982117836,0.12411490580593028,0.03571508278355901,0.12096809749978454
823,45.284,45.25,-2.99,0.09173393745711858,0.10104230101482643,0.07574863433097888,0.12408392630647083,0.036100957797484214,0.12093554249018612
824,45.326,45.31,-2.93,0.09188356274747049,0.10100371482496508,0.07587827727008209,0.1240541821803357,0.03648469756692146,0.12090282721548384
825,45.408,45.36,-2.94,0.09202608244108165,0.10096245168644837,0.07600510763936981,0.12402567419225605,0.036866192418371614,0.12086997781290197
826,45.449,45.42,-2.94,0.09216144439522267,0.10091851139586183,0.07612913501883571,0.12399840282282396,0.03724533195792328,0.12083702009500437
827,45.491,45.47,-2.89,0.09228960216992978,0.10087189552117434,0.07625036959448635,0.1239723682521368,0.037622005146963865,0.12080397953168413
828,45.553,45.53,-2.87,0.09241051508410959,0.10082260740886169,0.0763688221869627,0.12394757034278713,0.03799610038114697,0.1207708812326917
829,45.615,45.58,-2.89,0.09252414826593515,0.10077065219008471,0.07648450428168506,0.12392400862224784,0.03836750557250392,0.12073774993069569
830,45.717,45.64,-2.85,0.09263047269747811,0.10071603678581313,0.07659742806031455,0.12390168226470528,0.03873610823459714,0.12070460996486986
831,45.738,45.69,-2.9,0.0927294652535426,0.10065876991077914,0.07670760643331848,0.12388059007239725,0.03910179557062159,0.12067148526499917
832,45.78,45.75,-2.93,0.0928211087346819,0.10059886207614488,0.07681505307342623,0.12386073045651741,0.039464454564367195,0.12063839933609959
833,45.84,45.8,-2.93,0.09290539189438952,0.10053632559077699,0.07691978244976487,0.12384210141775692,0.039823972073951636,0.12060537524354963
834,45.902,45.86,-2.9,0.09298230946045583,0.10047117456104203,0.07702180986246267,0.12382470052656709,0.04018023492821917,0.12057243559873798
835,45.944,45.91,-2.94,0.09305186215047737,0.10040342488905626,0.07712115147750828,0.12380852490323777,0.040533130025676885,0.12053960254523664
836,46.006,45.97,-2.96,0.09311405668149711,0.10033309426933934,0.07721782436164604,0.12379357119789795,0.0408825444358117,0.12050689774551399
837,46.067,46.02,-2.92,0.09316890577374345,0.10026020218382745,0.077311846517076,0.12377983557054918,0.041228365502606855,0.12047434236820159
838,46.108,46.08,-2.92,0.09321642814842436,0.10018476989519993,0.07740323691571165,0.1237673136712454,0.0415704809500543,0.12044195707592599
839,46.169,46.13,-2.92,0.0932566485195236,0.10010682043846383,0.07749201553273048,0.1237560006205303,0.04190877898943726,0.12040976201371152
840,46.21,46.19,-2.86,0.09328959757953827,0.10002637861073238,0.07757820337913526,0.1237458909902415,0.042243148428138526,0.12037777679795617
841,46.272,46.24,-2.83,0.09331531197910015,0.09994347095912481,0.07766182253303743,0.12373697878478752,0.04257347877972058,0.12034602050597855
842,46.334,46.3,-2.83,0.09333383430043317,0.09985812576671273,0.07774289616937621,0.12372925742300116,0.04289966037502318,0.12031451166613426
843,46.375,46.35,-2.8,0.09334521302460981,0.09977037303644727,0.07782144858779676,0.12372271972067365,0.04322158447403243,0.1202832682485003
844,46.436,46.41,-2.75,0.09334950249257572,0.09968024447302183,0.07789750523842355,0.12371735787387812,0.04353914337828988,0.12025230765613014
845,46.497,46.46,-2.75,0.09334676285992999,0.0995877734626461,0.07797109274528645,0.12371316344319114,0.04385223054362982,0.12022164671688446
846,46.558,46.52,-2.74,0.09333706004547421,0.09949299505072436,0.07804223892717713,0.12371012733891826,0.04416074069305064,0.12019130167584685
