,Time_Host,Time_Arduino,easingdata,CH1_Oxy,CH1_Deoxy,CH2_Oxy,CH2_Deoxy,CH3_Oxy,CH3_Deoxy
0,1.326,0.04,0.0,0.256650176286224,0.818630290047333,0.23820348832365756,0.5589271244859831,0.25898591722203906,0.15962393007109063
1,1.347,0.1,0.0,0.25174231532662844,0.8158271041046724,0.23172902669638473,0.5569186679961328,0.2523369090841208,0.16244162439742738
2,1.368,0.15,0.0,0.24682929989635152,0.8130097817167045,0.2252826284744207,0.5549272871609493,0.24570831011230035,0.16525886646516605
3,1.389,0.21,0.0,0.24191315770494434,0.8101793381853839,0.21886762303416726,0.5529544925809539,0.23910356300748772,0.16807490634051983
4,1.41,0.26,0.0,0.23699592877425563,0.8073368003501217,0.21248734006527564,0.5510017968356874,0.23252611577555954,0.1708890033597638
5,1.43,1.05,0.0,0.23207966400070806,0.8044832057856593,0.2061451069839318,0.5490707130749388,0.2259794188130754,0.17370042668939847
6,1.452,1.11,0.0,0.2271664237079621,0.8016196019909397,0.19984424634300355,0.5471627536003882,0.21946692197615444,0.1765084558633485
7,1.514,1.16,0.0,0.2222582761911481,0.7987470455702512,0.19358807324127242,0.5452794284395551,0.21299207163570416,0.17931238129675467
8,1.555,1.22,0.0,0.21735729625384856,0.7958666014079444,0.18737989273396313,0.5434222439139459,0.20655830772225098,0.1821115047759805
9,1.618,1.27,0.0,0.21246556373901987,0.7929793418380536,0.18122299724678143,0.5415927012032857,0.20016906076368401,0.18490513992451746
10,1.68,1.33,-0.0,0.20758516205505226,0.7900863458101898,0.17512066399567347,0.53979229490773,0.1938277489192921,0.1876926126445287
11,1.721,1.38,-0.02,0.20271817669818634,0.7871886980530985,0.16907615241453475,0.5380225116099387,0.18753777501354804,0.19047326153382554
12,1.785,1.44,-0.05,0.19786669377252966,0.7842874882373031,0.1630927015931324,0.5362848284388764,0.18130252357317028,0.19324643827811053
13,1.89,1.49,-0.05,0.19303279850895166,0.7813838101382322,0.1571735277275691,0.5345807116370851,0.17512535787105604,0.19601150801836112
14,1.931,1.55,-0.1,0.1882185737841645,0.7784787608011947,0.15132182158568488,0.5329116151330097,0.16900961698072572,0.19876784969327582
15,1.952,1.6,-0.14,0.18342609864129983,0.7755734397094863,0.14554074598982486,0.5312789791197488,0.1629586128449289,0.20151485635675526
16,1.995,1.66,-0.16,0.17865744681327198,0.7726689479568385,0.13983343331937761,0.5296842286414228,0.1569756273620473,0.20425193547041406
17,2.056,1.71,-0.2,0.17391468525019535,0.769766387425335,0.13420298303543585,0.5281287721880892,0.1510639094938782,0.20697850917109953
18,2.118,1.77,-0.25,0.1691998726521003,0.7668668599698261,0.12865245922985152,0.5266140002998415,0.1452266723982963,0.2096940145133729
19,2.181,1.82,-0.24,0.16451505800815028,0.7639714666097981,0.1231848882008379,0.5251412841805314,0.13946709059017376,0.21239790368691364
20,2.263,1.88,-0.23,0.15986227914350698,0.7610813067295906,0.11780325605713333,0.5237119743215398,0.1337882971338157,0.2150896442088753
21,2.284,1.93,-0.26,0.15524356127493047,0.758197477287809,0.1125105063526211,0.5223273991361409,0.1281933808700588,0.21776871909137135
22,2.326,1.99,-0.27,0.1506609155761551,0.7553210720367406,0.10730953775323131,0.5209888636052178,0.1226853836811141,0.22043462698446628
23,2.386,2.04,-0.26,0.14611633775404842,0.7524531807525545,0.10220320173794142,0.519697647935307,0.11726729779622527,0.2230868822952073
24,2.45,2.1,-0.29,0.1416118066365498,0.7495948884770101,0.09719430033573553,0.5184550062300713,0.11194206314123456,0.22572501528332917
25,2.49,2.15,-0.32,0.13714928277339108,0.7467472747713351,0.09228558390044299,0.5172621651763205,0.10671256473518023,0.22834857213430204
26,2.635,2.21,-0.32,0.1327307070506173,0.7439114129828253,0.08747974892542174,0.5161203227457052,0.10158163013707729,0.23095711501038216
27,2.655,2.26,-0.35,0.12835799931994438,0.7410883695245841,0.08277943590007641,0.5150306469131802,0.09655202694604831,0.2335502220802861
28,2.676,2.32,-0.4,0.12403305704400162,0.7382792031686716,0.07818722721018682,0.5139942743933125,0.09162646035796648,0.2361274875280858
29,2.697,2.37,-0.43,0.11975775395849772,0.735484964352782,0.0737056450839597,0.5130123093955568,0.08680757078174615,0.23868852154190948
30,2.759,2.43,-0.47,0.1155339387523275,0.7327066945004558,0.06933714958562977,0.5120858223997776,0.08209793151836517,0.24123295028303418
31,2.801,2.48,-0.54,0.11136343376660947,0.7299454253547317,0.06508413665835619,0.5112158489535061,0.07750004650561228,0.2437604158359741
32,2.865,2.54,-0.57,0.10724803371360724,0.727202178325106,0.06094893621808286,0.5104033884926721,0.0730163481314197,0.24627057614022382
33,2.989,2.59,-0.58,0.1031895044164424,0.7244779638476324,0.05693381029994426,0.5096494031878489,0.06864919511846969,0.24876310490437048
34,3.01,2.65,-0.61,0.0991895815704676,0.7217737807580018,0.05304095125869562,0.5089548168183265,0.0644008704825679,0.2512376915033426
35,3.031,2.7,-0.62,0.0952499695271202,0.719090615677453,0.04927248002451148,0.5083205136766867,0.060273579567077,0.2536940408596123
36,3.093,2.76,-0.61,0.09137234010101127,0.7164294424114244,0.04563044441534521,0.5077473375069367,0.05626944815553915,0.25613187330918913
37,3.133,2.81,-0.63,0.08755833140095214,0.7137912213609127,0.04211681750692684,0.5072360904794868,0.05239052066449802,0.25855092445323247
38,3.237,2.87,-0.66,0.08380954668560794,0.711176898946551,0.03873349606142007,0.5067875322062104,0.04863875841845616,0.26095094499608673
39,3.258,2.92,-0.66,0.08012755324450559,0.7085874070454206,0.03548229901574686,0.5064023787986472,0.04501603800885579,0.2633317005705137
40,3.343,2.98,-0.65,0.07651388130519206,0.7060236624406164,0.032364966030611744,0.5060813019722078,0.04152414973893473,0.26569297155087535
41,3.364,3.03,-0.7,0.07297002296742279,0.7034865662835842,0.029383156101315287,0.5058249281990492,0.038164796156274494,0.26803455285502326
42,3.426,3.09,-0.73,0.06949743116532796,0.7009770035692747,0.026538446231513833,0.5056338379121865,0.0349395906748228,0.2703562537356886
43,3.468,3.14,-0.76,0.0660975186585539,0.6984958426242049,0.023832330171143747,0.5055085647634018,0.03185005628813833,0.27265789756219666
44,3.552,3.2,-0.82,0.06277165705340686,0.6960439346075756,0.02126621721975948,0.50544959493758,0.028897624375545137,0.2749393215933869
45,3.573,3.25,-0.88,0.059521175855035864,0.6936221130256631,0.018841431096509743,0.5054573665262353,0.0260836336027713,0.2772003767427148
46,3.634,3.31,-0.91,0.05634736155167545,0.6912311932597635,0.016559208877883848,0.5055322689631423,0.023409328918470456,0.2794409273366103
47,3.716,3.36,-0.94,0.05325145673194536,0.6888719721079883,0.014420700004231565,0.5056746425249867,0.020875860647790432,0.28166085086724296
48,3.737,3.42,-0.97,0.05023465923617749,0.6865452273411817,0.012426965355919126,0.5058847778996243,0.018484283683889435,0.28386003774085855
49,3.799,3.47,-0.96,0.04729812134270771,0.6842517172731328,0.01057897639985665,0.5061629158238786,0.016235556778028067,0.2860383910228186
50,3.861,3.53,-0.97,0.04444294899004421,0.6819921803451477,0.008877614407045053,0.5065092467919717,0.014130541928620819,0.28819582618041917
51,3.924,3.58,-0.99,0.041670201035811226,0.6797673347249326,0.007323669741750721,0.5069239108348986,0.012170003869433748,0.29033227082454954
52,3.966,3.64,-0.94,0.03898088855335464,0.6775778779196743,0.005917841222902275,0.5074069973705884,0.010354609656969731,0.2924476644512959
53,4.026,3.69,-0.94,0.03637597416688142,0.6754244864031927,0.004660735558299229,0.5079585451245433,0.008684928356984114,0.2945419581846481
54,4.087,3.75,-0.97,0.03385637142597897,0.673307815257078,0.0035528668522163908,0.5085785421206748,0.007161430830017577,0.2966151145214097
55,4.13,3.8,-0.99,0.031422944220313026,0.6712284978257832,0.002594656186959515,0.5092669257421639,0.0057844896158137276,0.29866710707916894
56,4.191,3.86,-0.98,0.029076506235228866,0.6691871453857028,0.001786431278883672,0.5100235828622113,0.0045543789164896615,0.3006979203478034
57,4.253,3.91,-1.03,0.02681782044889326,0.6671843468282671,0.0011284262093519525,0.5108483500443031,0.0034712746783040205,0.3027075494446272
58,4.315,3.97,-1.07,0.02464759867151854,0.6652206683570346,0.0006207812310863035,0.5117410138111251,0.0025352547718010873,0.30469599987305573
59,4.357,4.02,-1.1,0.022566501127127405,0.6632966531986523,0.0002635426503198686,0.5127013109806948,0.0017462992699945716,0.3066632872845154
60,4.438,4.08,-1.14,0.02057513607826125,0.6614128213274524,5.666278509890089e-05,0.5137289290678076,0.0011042908240959859,0.3086094372432109
61,4.46,4.13,-1.19,0.018674059494013975,0.659569669203375,0.0,0.514823506748537,0.0006090151360887691,0.3105344849932982
62,4.521,4.19,-1.19,0.016863774761758456,0.6577676695228889,9.331881741318556e-05,0.5159846343853357,0.0002601615272007968,0.31243847522802204
63,4.563,4.24,-1.16,0.015144732442913504,0.6560072709826413,0.000336290105395948,0.5172118546102826,5.7323601054234155e-05,0.3143214618604373
64,4.625,4.3,-1.17,0.013517330073071113,0.654288898055669,0.0007284913419465333,0.5185046629641112,0.0,0.3161835077954266
65,4.686,4.35,-1.16,0.01198191200676488,0.6526129507801518,0.001269406955398371,0.5198625085888158,8.75952529209509e-05,0.3180246847027933
66,4.749,4.41,-1.13,0.010538769307122747,0.6509798045608264,0.0019584287405260093,0.5212847949717806,0.0003194207126459226,0.31984507279120644
67,4.811,4.46,-1.14,0.009188139680619468,0.6493898099833256,0.0027948563498952153,0.5227708807393964,0.0006946955810465829,0.3216447605826857
68,4.853,4.52,-1.15,0.007930207457121089,0.6478432926418057,0.0037778978599612577,0.5243200804979944,0.0012125480198602772,0.32342384468719027
69,4.915,4.57,-1.11,0.006765103615388339,0.6463405529802919,0.0049066704113960215,0.525931665719733,0.0018720163452611274,0.3251824295767405
70,4.977,4.63,-1.11,0.00569290585418705,0.6448818661482049,0.006180200923105174,0.527604865670809,0.0026720503041785496,0.3269206273583866
71,5.017,4.68,-1.16,0.004713638709133888,0.6434674818705141,0.0075974268793825945,0.5293388683791147,0.003611512430334295,0.32863855754526466
72,5.08,4.74,-1.16,0.00382727371536578,0.6420976243329496,0.009157197189622495,0.5311328216383162,0.00468917947793228,0.33033634682497437
73,5.184,4.79,-1.17,0.0030337296160506677,0.6407724920827004,0.010858273119968367,0.5329858340453123,0.005903743930881987,0.33201412882463316
74,5.205,4.85,-1.2,0.0023328726166569093,0.6394922579450331,0.012699329296224186,0.534896976068114,0.007253815585336642,0.33367204387224675
75,5.247,4.9,-1.24,0.001724516684776056,0.6382570689562777,0.014678954777272967,0.5368652811413285,0.008737923203181968,0.33531023875443455
76,5.309,4.96,-1.22,0.0012084238951611064,0.6370670463136431,0.016795654198130422,0.5388897467866275,0.010354516233935861,0.3369288664708666
77,5.349,5.01,-1.22,0.0007843048195190457,0.6359222853423129,0.019047848981618033,0.5409693357557394,0.012101966602326366,0.33852808598593825
78,5.411,5.07,-1.2,0.0004518189604893287,0.6348228554802314,0.02143387861746673,0.5431029771935669,0.013978570558614314,0.34010806197824284
79,5.453,5.12,-1.15,0.0002105752291517342,0.6337688002809229,0.02395200200747221,0.5452895678190302,0.015982550588550713,0.3416689645883644
80,5.557,5.18,-1.1,6.013246534153407e-05,0.6327601374345994,0.026600398875157534,0.5475279731211415,0.01811205737974375,0.3432109691654128
81,5.578,5.23,-1.09,0.0,0.6317968588077197,0.029377171238282023,0.5498170285676904,0.02036517184117146,0.34473425601260255
82,5.641,5.29,-1.05,2.9638258741892874e-05,0.6308789305010705,0.03228034494246535,0.552155540823878,0.02273990717261399,0.34623901013199276
83,5.662,5.34,-1.02,0.00014845940577615748,0.6300062929263718,0.035307871254177045,0.5545422889782909,0.025234210980870125,0.34772542096827364
84,5.724,5.4,-1.02,0.0003558280272656847,0.6291788609013559,0.0384576285113728,0.5569760257736883,0.027845967439737492,0.34919368215127
85,5.786,5.45,-1.01,0.000651061853145017,0.6283965237632426,0.04172742383010916,0.5594554788401918,0.03057299949084164,0.3506439912367341
86,5.848,5.51,-0.99,0.0010334325163316026,0.6276591455005245,0.045114994865515304,0.5619793519286175,0.033413071082486694,0.35207654944502015
87,5.911,5.56,-1.0,0.0015021663481870084,0.6269665649029706,0.04861801162554018,0.5645463261418083,0.036363889443758464,0.35349156139733945
88,5.952,5.62,-1.02,0.0020564452090133093,0.6263185957297243,0.05223407833589573,0.5671550611619617,0.03942310739113754,0.35488923484942037
89,5.995,5.67,-1.01,0.002695407352312071,0.6257150268953239,0.055960735354562044,0.5698041964721938,0.04258832566487797,0.35626978042245777
90,6.056,5.73,-1.01,0.003418148321495834,0.6251556226734054,0.05979546113411788,0.5724923525707943,0.045857095292378476,0.35763341133120313
91,6.118,5.78,-1.01,0.004223721877719895,0.6246401229177525,0.06373567423004402,0.5752181321766872,0.04922691997570932,0.35898034310896526
92,6.18,5.84,-0.96,0.00511114095748878,0.6241682433002749,0.0677787353530315,0.5779801214245077,0.05269525850037978,0.36031079332920357
93,6.241,5.89,-0.88,0.006079378658695642,0.6237396755654067,0.07192194946324452,0.5807768910475062,0.056259527162361066,0.3616249813233277
94,6.283,5.95,-0.87,0.007127369253763217,0.6233540878003508,0.07616256790445013,0.5836069975463036,0.05991710221035068,0.3629231278943066
95,6.346,6.0,-0.83,0.008254009228550206,0.6230111247205764,0.080497790575913,0.5864689843415943,0.06366532230030862,0.3642054550257263
96,6.407,6.06,-0.79,0.009458158345645864,0.6227104079700075,0.0849247681399513,0.5893613829092772,0.06750149095942526,0.36547218558594374
97,6.448,6.11,-0.77,0.010738640730608647,0.6224515364354228,0.08944060426305891,0.5922827138970954,0.07142287905686626,0.36672354302696736
98,6.489,6.17,-0.76,0.012094245979623167,0.6222340865746738,0.09404235788851172,0.5952314882224573,0.07542672727882524,0.3679597510776781
99,6.551,6.22,-0.71,0.013523730286976527,0.6220576127584111,0.0987270455383874,0.598206208151584,0.07951024860558431,0.3691810334309741
100,6.653,6.28,-0.71,0.015025817590708144,0.621921647625054,0.10349164364295542,0.6012053683603277,0.08367063078842754,0.37038761342436904
101,6.673,6.33,-0.73,0.016599200734769625,0.6218257024487569,0.10833309089543386,0.6042274569769679,0.08790503882437846,0.3715797137135122
102,6.715,6.39,-0.77,0.018242542646034293,0.6217692675201112,0.11324829063015183,0.6072709566071451,0.09221061742683744,0.37275755593805654
103,6.777,6.44,-0.8,0.01995447752452987,0.6217518125393012,0.1182341132221926,0.6103343453409269,0.09658449349025723,0.37392136037933665
104,6.818,6.5,-0.82,0.021733612045328622,0.6217727870213771,0.12328739850661673,0.6134160977418651,0.1010237785469866,0.37507134560959293
105,6.88,6.55,-0.79,0.02357852657058712,0.6218316207132696,0.12840495821535533,0.6165146858178966,0.10552557121431069,0.37620772813304487
106,6.963,6.61,-0.75,0.02548777637026353,0.6219277240221485,0.1335835784298184,0.6196285799740807,0.11008695962955312,0.3773307220198141
107,7.047,6.66,-0.73,0.02745989285006194,0.622060488454726,0.1388200220472073,0.6227562499473533,0.11470502387094289,0.3784405385342372
108,7.067,6.72,-0.71,0.02949338478516545,0.6222292870671193,0.1441110312584716,0.6258961657236316,0.11937683836185536,0.3795373857593667
109,7.11,6.77,-0.65,0.031586739558343006,0.6224334749248951,0.14945333003583242,0.6290467984377008,0.12409947425603714,0.3806214682194723
110,7.195,6.83,-0.63,0.03373842440106095,0.6226723895729244,0.15484362662781875,0.6322066212563111,0.12887000180150054,0.3816929865022751
111,7.214,6.88,-0.62,0.035946887636296096,0.6229453515146414,0.16027861605981797,0.635374110244808,0.1336854926808885,0.38275213688256526
112,7.276,6.94,-0.58,0.038210559921828625,0.6232516647002615,0.16575498263819755,0.6385477452175169,0.13854302232624233,0.3837991109487875
113,7.338,6.99,-0.56,0.040527855492893276,0.6235906170234432,0.1712694024561213,0.6417260105719758,0.1434396722062424,0.3848340952341345
114,7.379,7.05,-0.56,0.04289717340318152,0.6239614808258113,0.17681854589924945,0.6449073961070484,0.1483725320841159,0.3858572708536963
115,7.462,7.1,-0.55,0.045316898763287906,0.624363513408705,0.18239908014956965,0.6480903978250027,0.15333870224451698,0.3868688131492851
116,7.483,7.16,-0.54,0.04778540397576549,0.6247959575514979,0.18800767168565113,0.6512735187178359,0.15833529568777768,0.3878688913436298
117,7.546,7.21,-0.55,0.0503010499659961,0.6252580420358566,0.1936409887776484,0.6544552695383459,0.1633594402899989,0.3888576682057122
118,7.587,7.27,-0.56,0.05286218740807868,0.6257489821753693,0.19929570397539154,0.6576341695566866,0.16840828092749,0.38983529972905295
119,7.649,7.32,-0.52,0.05546715794490223,0.626267980350072,0.20496849658785687,0.6608087473034099,0.17347898156407637,0.39080193482472325
120,7.712,7.38,-0.51,0.05811429540153544,0.62681422654549,0.2106560551522172,0.6639775413002035,0.17856872729977966,0.3917577150307126
121,7.751,7.43,-0.49,0.0608019269910627,0.6273868988958701,0.2163550798905193,0.6671391007796467,0.1836747263793496,0.39270277423905003
122,7.813,7.49,-0.44,0.06352837451203687,0.6279851642312827,0.22206228515187304,0.6702919863953103,0.18879421215911762,0.39363723844180293
123,7.874,7.54,-0.4,0.066291955536791,0.6286081786282642,0.22777440183792677,0.6734347709233884,0.19392444503067194,0.3945612254968187
124,7.935,7.6,-0.38,0.06909098458992442,0.629255087963655,0.23348817980937456,0.6765660399568445,0.19906271429993028,0.39547484491388296
125,7.978,7.65,-0.35,0.07192377431632781,0.6299250284713146,0.239200390271263,0.6796843925929237,0.20420634002030433,0.396378197661842
126,8.039,7.71,-0.31,0.07478863663814207,0.6306171273014516,0.2449078281349309,0.6827884421148561,0.20935267477880537,0.3972713759971378
127,8.122,7.76,-0.32,0.07768388390006509,0.6313305030823886,0.25060731435452177,0.6858768166686107,0.21449910543409892,0.3981544633141715
128,8.143,7.82,-0.3,0.08060783000243016,0.6320642664846767,0.2562956982361402,0.6889481599355908,0.21964305480566776,0.3990275340179448
129,8.206,7.87,-0.28,0.08355879152148138,0.6328175207875724,0.2619698597178836,0.6920011318020701,0.22478198331337515,0.3998906534195059
130,8.267,7.93,-0.3,0.08653508881627131,0.6335893624479718,0.2676267116191671,0.6950344090257795,0.22991339056682653,0.400743877654779
131,8.329,7.98,-0.32,0.08953504712160588,0.6343788816719631,0.2732632018579275,0.6980466858994883,0.23503481690400135,0.40158725362735426
132,8.371,8.04,-0.3,0.09255699762646703,0.6351851629891877,0.2788763156343888,0.7010366749109697,0.24014384487866575,0.4024208189757121
133,8.412,8.09,-0.3,0.09559927853737098,0.6360072858302036,0.28446307758007494,0.70400310739847,0.24523810069607652,0.4032446020651861
134,8.495,8.15,-0.29,0.09866023612617268,0.6368443251070042,0.2900205538707051,0.7069447342006261,0.25031525559644946,0.4040586220047735
135,8.535,8.2,-0.25,0.10173822576188829,0.6376953517967893,0.29554585430151525,0.7098603262996241,0.25537302718561644,0.40486288868870346
136,8.596,8.26,-0.2,0.10483161292617628,0.6385594335290341,0.30103613432347665,0.7127486754562472,0.26040918071226726,0.4056574028624746
137,8.659,8.31,-0.2,0.10793877421218832,0.6394356351758462,0.30648859703885956,0.7156085948353214,0.26542153029118437,0.4064421562129349
138,8.721,8.37,-0.16,0.1110580983065559,0.6403230194455897,0.31190049515462714,0.718438919620046,0.27040794007194147,0.4072171314819109
139,8.763,8.42,-0.12,0.1141879869543194,0.6412206474797555,0.3172691328922368,0.7212385076138035,0.2753663253526417,0.40798230260289314
140,8.847,8.48,-0.12,0.11732685590663942,0.6421275794530829,0.3225918678525599,0.7240062398281923,0.28029465363839806,0.40873763486031073
141,8.868,8.53,-0.11,0.12047313585114684,0.6430428751769651,0.32786611283477834,0.7267410210562272,0.28519094564439407,0.40948308507096765
142,8.929,8.59,-0.07,0.12362527332479131,0.6439655947062064,0.33308933760824233,0.7294417804298756,0.29005327624348687,0.41021860178724334
143,8.97,8.64,-0.08,0.12678173160905273,0.6448947989492092,0.33825907063638894,0.7321074719613173,0.294879775358435,0.41094412552164583
144,9.031,8.7,-0.09,0.1299409916073946,0.6458295502816589,0.3433729007519008,0.7347370750674403,0.29966862879892187,0.41165958899225935
145,9.093,8.75,-0.05,0.1331015527048651,0.6467689131637218,0.34842847878231803,0.7373295950771825,0.30441807904361856,0.4123649173885171
146,9.154,8.81,-0.06,0.13626193360978944,0.647711954760713,0.3534235191253038,0.739884063721342,0.3091264259675712,0.4130600286565742
147,9.216,8.86,-0.07,0.1394206731775296,0.6486577455671063,0.3583558012727089,0.7423995396044905,0.3137920275152221,0.41374483380339494
148,9.237,8.92,-0.03,0.1425763312162898,0.6496053600337106,0.3632231712824894,0.7448751086587662,0.3184133003193811,0.4144192372185122
149,9.299,8.97,-0.01,0.14572748927491927,0.6505538771978124,0.36802354319742886,0.7473098845796171,0.3229887202664726,0.41508313701224897
150,9.361,9.03,0.0,0.14887275141262563,0.651502381316079,0.37275490040954584,0.7497030092438984,0.32751682300839857,0.41573642536903926
151,9.402,9.08,0.02,0.15201074495047792,0.6524499625000226,0.37741529696903653,0.7520536531110286,0.33199620442137473,0.41637898891440783
152,9.464,9.14,0.06,0.15514012120456305,0.6533957173538303,0.38200285883663027,0.7543610156081401,0.3364255210121491,0.4170107090941566
153,9.527,9.19,0.07,0.15825955620067161,0.654338749614335,0.38651578507832923,0.7566243255002463,0.3408034902720865,0.41763146256434275
154,9.63,9.25,0.08,0.16136775137041984,0.6552781707928722,0.39095234900164444,0.7588428412463759,0.34512889097968985,0.4182411215906658
155,9.65,9.3,0.11,0.16446343422874296,0.656213100818703,0.3953108992325863,0.7610158513424393,0.34940056345223286,0.41883955445586507
156,9.693,9.36,0.08,0.16754535903271897,0.6571426686836284,0.39958986073280894,0.7631426746513356,0.35361740974726763,0.4194266258736607
157,9.734,9.41,0.06,0.17061230742169015,0.6580660130873424,0.403787735756415,0.7652226607205412,0.3577783938148519,0.42000219740771794
158,9.796,9.47,0.07,0.17366308903863767,0.6589822830830262,0.4079031047459951,0.767255190087226,0.36188254160138505,0.4205661278941121
159,9.858,9.52,0.06,0.1766965421327381,0.6598906387226341,0.41193462716753226,0.7692396745708159,0.36592894110594026,0.4211182738658589
160,9.899,9.58,0.03,0.1797115341429978,0.6607902517013049,0.4158810422838393,0.7711755575528854,0.3699167423899242,0.4216584899782702
161,9.979,9.63,0.03,0.18270696226282063,0.6616803060003132,0.4197411698661962,0.7730623142443738,0.37384515754080994,0.4221866294341337
162,10.041,9.69,0.06,0.18568175398532474,0.6625599985279659,0.4235139108438218,0.7748994519403379,0.3777134605905877,0.42270254440790717
163,10.062,9.74,0.06,0.1886348676291789,0.6634285397578323,0.42719824789076877,0.776686510262418,0.38152098738948,0.42320608646821495
164,10.125,9.8,0.07,0.1915652928446824,0.6642851543636766,0.4307932459498163,0.7784230613888118,0.38526713543536356,0.4236971069979651
165,10.189,9.85,0.12,0.19447205109975516,0.6651290818504285,0.4342980526929249,0.7801087102709955,0.38895136365928235,0.4241754576113636
166,10.25,9.91,0.13,0.1973541961454613,0.6659595771804894,0.4377118989178054,0.7817430948359889,0.39257319216740383,0.4246409905670438
167,10.331,9.96,0.13,0.20021081446066466,0.6667759113945996,0.4410340988801336,0.7833258861727814,0.39613220193978843,0.42509355917648656
168,10.351,10.02,0.16,0.20304102567539076,0.6675773722264275,0.4442640505609361,0.7848567887014983,0.39962803448637324,0.42553301820687195
169,10.393,10.07,0.18,0.20584398297243975,0.6683632647099615,0.44740123586871017,0.7863355403238849,0.40306039146062844,0.4259592242774771
170,10.453,10.13,0.17,0.20861887346676047,0.669132911778724,0.4504452207759068,0.787761912553638,0.40642903423139326,0.42637203624873954
171,10.515,10.18,0.18,0.21136491856206396,0.6698856548557767,0.45339565538947135,0.7891357106251717,0.40973378341344235,0.42677131560317455
172,10.558,10.24,0.19,0.2140813742841329,0.6706208544334643,0.4562522739551901,0.7904567735795489,0.4129745183573638,0.4271569268174515
173,10.619,10.29,0.16,0.21676753159027234,0.6713378906418334,0.4590148947956532,0.7917249743265368,0.4161511765993348,0.427528737725091
174,10.701,10.35,0.14,0.21942271665432295,0.6720361638046813,0.46168342018167646,0.7929402196819956,0.4192637532713626,0.42788661986940635
175,10.722,10.4,0.17,0.22204629112663982,0.6727150949822105,0.46425783613703603,0.7941024503801231,0.4223123004725122,0.4282304488464268
176,10.783,10.46,0.17,0.22463765236843697,0.6733741264992685,0.4667382121763481,0.7952116410603048,0.42529692660156315,0.4285601046376174
177,10.846,10.51,0.19,0.22719623365992586,0.6740127224581447,0.4691247009758662,0.7962678002284332,0.4282177956514455,0.4288754719322518
178,10.888,10.57,0.24,0.2297215043817164,0.6746303692348634,0.4714175379769041,0.7972709701925067,0.43107512646571133,0.4291764404392986
179,10.97,10.62,0.27,0.2322129701689991,0.6752265759578896,0.47361704092154167,0.7982212269721529,0.43386919195725193,0.4294629051886388
180,11.012,10.68,0.28,0.2346701730380687,0.6758008749681532,0.47572360932027596,0.7991186801815043,0.4366003182894749,0.4297347668213803
181,11.075,10.73,0.32,0.23709269148477338,0.6763528222593355,0.47773772385132046,0.7999634728847771,0.439268884020216,0.42999193186901213
182,11.14,10.79,0.35,0.23948014055449346,0.6768819978974097,0.4796599456913248,0.8007557814239891,0.4418753192087619,0.430234313021127
183,11.201,10.84,0.35,0.2418321718832826,0.677388006418495,0.48149091577739567,0.8014958152184325,0.44442010448647257,0.43046182938146166
184,11.221,10.9,0.33,0.2441484737098447,0.6778704772041458,0.4832313540004284,0.8021838165357114,0.4469037700916105,0.43067440671204427
185,11.282,10.95,0.35,0.24642877085805498,0.6783290648332764,0.4848820583298975,0.8028200602343797,0.449326894869078,0.43087197766529145
186,11.344,11.01,0.33,0.24867282468977062,0.6787634494099856,0.4864439038703879,0.8034048534784,0.45169010523583236,0.4310544820039912
187,11.428,11.06,0.32,0.25088043302770097,0.6791733368666301,0.48791784185025266,0.8039385354238728,0.45399407411275705,0.43122186680924696
188,11.449,11.12,0.34,0.2530514300481293,0.6795584592415462,0.48930489854281684,0.8044214768787419,0.45623951982373767,0.43137408667657906
189,11.512,11.17,0.32,0.25518568614330694,0.6799185749308654,0.4906061741205422,0.8048540799363296,0.4584272049626301,0.4315111039004241
190,11.553,11.23,0.33,0.25728310775338553,0.6802534689138705,0.49182284144252975,0.8052367775835616,0.4605579352287365,0.43163288864722654
191,11.615,11.28,0.36,0.2593436371678037,0.680562952951329,0.49295614477566674,0.8055700332846178,0.46263255823132804,0.43173941911719077
192,11.677,11.34,0.39,0.2613672522961036,0.6808468657562318,0.49400739844967123,0.8058543405405629,0.4646519622636854,0.4318306816945898
193,11.72,11.39,0.4,0.26335396640821634,0.6811050731363603,0.494977985446272,0.8060902224252743,0.46661707504708744,0.431906671086424
194,11.803,11.45,0.44,0.26530382784429624,0.6813374681081354,0.4958693559228008,0.806278231097849,0.46852886244518144,0.43196739044922633
195,11.825,11.5,0.48,0.26721691969421435,0.6815439709812685,0.49668302567056133,0.8064189472917233,0.4703883271492233,0.4320128515039163
196,11.887,11.56,0.49,0.26909335944683316,0.6817245294138127,0.49742057450848737,0.8065129797809024,0.47219650733476537,0.4320430746387667
197,11.948,11.61,0.51,0.27093329860919396,0.6818791184373183,0.49808364461278376,0.8065609648239325,0.4739544752904831,0.4320580890007106
198,11.991,11.67,0.54,0.2727369222957523,0.68200774045189,0.49867393878345273,0.8065635655864419,0.47566333601995847,0.43205793257531067
199,12.052,11.72,0.53,0.274504448787817,0.6821104251910278,0.49919321864881394,0.8065214715431657,0.4773242258173671,0.4320426522557271
200,12.176,11.78,0.52,0.27623612906338235,0.6821872296561897,0.49964330280931013,0.8064353978603139,0.4789383108181286,0.4320123039009797
201,12.196,11.83,0.53,0.27793224629759045,0.6822382380210366,0.5000260649220203,0.8063060847590372,0.48050678552567183,0.43196695238372146
202,12.217,11.89,0.52,0.27959311533411635,0.6822635615053265,0.5003434317273885,0.8061342968605497,0.4820308713155188,0.43190667162765706
203,12.28,11.94,0.49,0.2812190821278216,0.6822633382184121,0.500597381019726,0.8059208225132659,0.4835118149179017,0.43183154463467194
204,12.343,12.0,0.52,0.2828105231590505,0.6822377329723062,0.5007899395630371,0.8056664731022223,0.4849508868801103,0.43174166350165327
205,12.405,12.05,0.54,0.28436784481995764,0.6821869370642881,0.500923180953674,0.8053720823411686,0.48634938000972316,0.4316371294268705
206,12.465,12.11,0.54,0.28589148277327464,0.682111168029059,0.5009992234312904,0.8050385055478471,0.48770860779983427,0.4315180527056877
207,12.528,12.16,0.56,0.2873819012839313,0.6820106693604788,0.5010202276395759,0.8046666189030586,0.4890299028373494,0.4313845527153396
208,12.548,12.22,0.6,0.28883959252397445,0.681885710202983,0.5009883943383363,0.804257318694125,0.49031461519543273,0.43123675788854443
209,12.63,12.27,0.6,0.29026507585125694,0.6817365850128263,0.5009059620686311,0.8038115205433197,0.4915641108112275,0.4310748056758214
210,12.651,12.33,0.62,0.29165889706241116,0.6815636131893651,0.5007752047728704,0.803330158621786,0.4927797698500513,0.4308988424965159
211,12.714,12.38,0.65,0.2930216276206648,0.6813671386766338,0.5005984293719539,0.8028141848494098,0.4939629850573666,0.43070902367862995
212,12.776,12.44,0.65,0.2943538638591153,0.6811475295354996,0.500377973301717,0.8022645680809799,0.4951151600999326,0.43050551338759385
213,12.817,12.49,0.64,0.29565622616014514,0.6809051774866933,0.5001162020111017,0.8016822932787822,0.49623770789766103,0.43028848454410323
214,12.9,12.55,0.66,0.2969293581117131,0.6806404974250326,0.4998155064245974,0.8010683606716046,0.49733204894779104,0.4300581187311407
215,12.921,12.6,0.65,0.29817392564129713,0.6803539269051802,0.49947830037160634,0.8004237848999717,0.49839960964308255,0.42981460609030175
216,12.982,12.66,0.62,0.2993906161283018,0.6800459255993205,0.49910701798547935,0.7997495941473068,0.49944182058577324,0.4295581452075853
217,13.043,12.71,0.6,0.3005801374957627,0.6797169747271892,0.4987041110750126,0.7990468292567269,0.5004601148990641,0.429288942988834
218,13.106,12.77,0.61,0.3017432172821918,0.6793675764589585,0.4982720464712093,0.7983165428333309,0.5014559265378852,0.4290072145250313
219,13.147,12.82,0.6,0.3028806016944188,0.6789982532915628,0.4978133033521114,0.7975597983320314,0.5024306886006389,0.42871318294766675
220,13.209,12.88,0.62,0.30399305464228993,0.6786095473991219,0.4973303705484959,0.7967776691311573,0.5033858316435447,0.42840707927441213
221,13.272,12.93,0.65,0.3050813567561041,0.6782020199581968,0.49682574383322076,0.7959712375921889,0.5043227819991325,0.42808914224535327
222,13.333,12.99,0.65,0.30614630438770457,0.6777762504486751,0.4963019231970255,0.7951415941060246,0.5052429601003994,0.4277596181499927
223,13.374,13.04,0.66,0.30718870859619174,0.6773328359311248,0.49576141011364494,0.7942898361260994,0.5061477788121561,0.42741876064519596
224,13.457,13.1,0.69,0.3082093941192779,0.6768723903015058,0.49520670479716755,0.7934170671885582,0.5070386417711487,0.4270668305642092
225,13.478,13.15,0.7,0.309209198331353,0.6763955435241531,0.49464030345463766,0.7925243959196052,0.5079169417366061,0.4267040957168565
226,13.541,13.21,0.69,0.3101889701893741,0.6759029408439899,0.49406469553695875,0.7916129350302056,0.5087840589529469,0.42633083068100774
227,13.641,13.26,0.7,0.31114956916771414,0.6753952419789693,0.4934823609911907,0.7906838002985371,0.5096413595264502,0.4259473165854068
228,13.662,13.32,0.7,0.31209186418314144,0.6748731202937794,0.4928957675173882,0.7897381095408567,0.5104901938177758,0.425553840883935
229,13.724,13.37,0.66,0.3130167325111371,0.6743372619558973,0.4923073678332165,0.788776981571566,0.5113318948522778,0.42515069712141823
230,13.764,13.43,0.62,0.3139250586947941,0.673788365075116,0.4917195969496625,0.7878015351533717,0.5121677767500826,0.42473818469118185
231,13.848,13.48,0.61,0.31481773344755987,0.6732271388277485,0.4911348694611971,0.7868128879385977,0.5129991331778907,0.424316608584713
232,13.868,13.54,0.58,0.3156956525510837,0.6726543025667848,0.4905555768537397,0.7858121554029497,0.5138272358243862,0.4238862791339727
233,13.931,13.59,0.58,0.31655971574941694,0.6720705849193623,0.48998408483370787,0.7848004497733272,0.5146533329010095,0.42344751174708384
234,14.013,13.65,0.62,0.3174108256407822,0.6714767228729867,0.4894227306812995,0.783778878951612,0.5154786476696831,0.42300062663824073
235,14.034,13.7,0.62,0.3182498865681252,0.6708734608519855,0.4888738206309892,0.7827485454366122,0.5163043769989362,0.42254594855271255
236,14.097,13.76,0.63,0.3190778035096807,0.6702615497856915,0.4883396272820773,0.7817105452464131,0.5171316899497691,0.4220838064877595
237,14.158,13.81,0.65,0.3198954809708362,0.669641746169858,0.4878223870420361,0.7806659668433099,0.5179617263925846,0.4216145334101619
238,14.2,13.87,0.67,0.32070382187864666,0.6690148111228059,0.48732429760537266,0.7796158900632872,0.5187955956565259,0.4211384659709217
239,14.263,13.92,0.66,0.3215037264804276,0.668381509437811,0.4868475154707464,0.7785613850517913,0.5196343752126239,0.4206559442175896
240,14.325,13.98,0.68,0.32229609124791764,0.6677426086332716,0.48639415349911314,0.7775035112074444,0.5204791093922172,0.42016731130462764
241,14.366,14.03,0.68,0.32308180778852924,0.6670988780022487,0.48596627851570934,0.7764433161354408,0.5213308081421705,0.41967291320222117
242,14.428,14.09,0.66,0.32386176176523157,0.6664510876630522,0.48556590895874857,0.7753818346125287,0.5221904458184704,0.4191730984039964
243,14.49,14.14,0.64,0.32463683182661685,0.6658000076126105,0.48519501257776076,0.7743200875656655,0.5230589600198149,0.41866821763419243
244,14.55,14.2,0.64,0.3254078885487133,0.6651464067844316,0.48485550418455403,0.7732590810665806,0.5239372504628154,0.41815862355492817
245,14.592,14.25,0.59,0.3261757933901241,0.6644910521129999,0.48454924345981926,0.7721998053445159,0.5248261779004029,0.41764467047429427
246,14.654,14.31,0.57,0.3269413976620826,0.6638347076064598,0.4842780328183882,0.7711432338193394,0.5257265630849497,0.41712671405603724
247,14.778,14.36,0.6,0.3277055415150092,0.6631781334294122,0.4840436153360863,0.7700903221571012,0.5266391857775082,0.4166051110315737
248,14.798,14.42,0.59,0.3284690529431379,0.6625220849975831,0.4838476727409791,0.7690420073499062,0.527564783804421,0.41608021891497254
249,14.818,14.47,0.59,0.3292327468087431,0.6618673120860262,0.4836918234716407,0.7679992068217437,0.5285040521624169,0.4155523957213917
250,14.859,14.53,0.62,0.32999742388746345,0.6612145579524104,0.48357762080487665,0.7669628175617198,0.5294576421731939,0.41502199968929526
251,14.922,14.58,0.64,0.3307638699361755,0.6605645584768205,0.4835065510551657,0.7659337152859785,0.5304261606884265,0.4144893890066062
252,14.962,14.64,0.63,0.33153285478483935,0.6599180413193988,0.48348003184795935,0.7649127536294704,0.531410169346124,0.4139549215408449
253,15.023,14.69,0.64,0.33230513145368246,0.6592757250970579,0.483499410468907,0.7639007633686691,0.5324101838792767,0.413418954573293
254,15.146,14.75,0.65,0.3330814352970165,0.6586383185804395,0.48356596229106247,0.7628985516763159,0.5334266734777635,0.41288184453729426
255,15.166,14.8,0.63,0.33386248317489414,0.6580065199122397,0.48368088928215747,0.7619069014092443,0.5344600602045122,0.4123439467609439
256,15.208,14.86,0.62,0.334648972653708,0.6573810158479771,0.48384531859406466,0.7609265704302992,0.5355107184669264,0.41180561521458925
257,15.271,14.91,0.62,0.3354415812367312,0.6567624810202273,0.4840603012365805,0.759958290965363,0.5365789745445662,0.4112672022637157
258,15.31,14.97,0.59,0.3362409656255047,0.6561515772272688,0.484326810837643,0.7590027689964106,0.5376651061740481,0.4107290584278564
259,15.373,15.02,0.54,0.33704776101291023,0.6555489527469932,0.4846457424920381,0.7580606836912912,0.53876934219205,0.4101915321461499
260,15.415,15.08,0.55,0.33786258040870704,0.6549552416768144,0.4850179117005389,0.7571326868706598,0.5398918622372112,0.4096549695500545
261,15.478,15.13,0.55,0.338686013998267,0.654371063300207,0.485444053401253,0.7562194025121922,0.54103279651157,0.409119714243559
262,15.541,15.19,0.54,0.3395186285351812,0.6537970214803965,0.4859248210947319,0.7553214262919797,0.5421922256020176,0.40858610709106
263,15.582,15.24,0.56,0.34036096676833927,0.6532337040816555,0.4864607860641526,0.7544393251628562,0.5433701803620682,0.40805448601292466
264,15.645,15.3,0.58,0.3412135469039883,0.6526816824186072,0.4870524366916612,0.7535736369693609,0.5445666418541094,0.4075251857886393
265,15.708,15.35,0.58,0.3420768621032039,0.6521415107339101,0.4877001778718115,0.7527248700990367,0.5457815413522089,0.40699853786741974
266,15.729,15.41,0.59,0.34295138001512465,0.6516137257046767,0.4884043305229371,0.7518935031698246,0.5470147604054977,0.4064748701862153
267,15.791,15.46,0.62,0.343837542346241,0.6510988459779706,0.4891651311972304,0.7510799847534693,0.5482661309621445,0.40595450699513685
268,15.853,15.52,0.6,0.34473576446597853,0.6505973717357069,0.4899827317902552,0.7502847331350091,0.549535435553929,0.40543776869041503
269,15.893,15.57,0.59,0.3456464350487591,0.6501097842892516,0.49085719935053457,0.7495081361086323,0.55082240754142,0.4049249716550421
270,15.955,15.63,0.6,0.34656991575266144,0.6496365457039771,0.4917885159897398,0.7487505508103685,0.5521267314197592,0.4044164281072226
271,16.016,15.68,0.58,0.34750654093475203,0.6491780984539611,0.49277657889386955,0.7480123035881607,0.553448043185024,0.40391244595669096
272,16.078,15.74,0.54,0.348456617403115,0.648734865106924,0.4938212004356668,0.7472936899097617,0.5547859307610904,0.4034133286688559
273,16.121,15.79,0.53,0.3494204242055847,0.6483072480393763,0.4949221083883833,0.7465949743087028,0.5561399344868276,0.40291937513661397
274,16.221,15.85,0.51,0.3503982124551553,0.6478956291818295,0.4960789462408457,0.7459163903683051,0.5575095476633375,0.4024308795595372
275,16.24,15.9,0.49,0.3513902051919972,0.6475003697937904,0.497291273613635,0.7452581407433694,0.5588942171607848,0.4019481313300407
276,16.303,15.96,0.51,0.35239659728193845,0.6471218102681644,0.4985585667760071,0.7446203972189306,0.5602933440841656,0.4014714149260992
277,16.343,16.01,0.54,0.3534175553511667,0.6467602699646114,0.4998802192629589,0.7440033008053949,0.5617062844971644,0.40100100981008036
278,16.404,16.07,0.55,0.35445321775679445,0.646416047071357,0.5012555425916131,0.7434069618694527,0.5631323502030721,0.40053719033329976
279,16.466,16.12,0.56,0.35550369459280595,0.6460894184949486,0.5026837670758653,0.742831460300375,0.5645708095816232,0.40008022564597384
280,16.527,16.18,0.6,0.3565690677307963,0.6457806397774429,0.5041640427380535,0.7422768457115607,0.5660208884805403,0.39963037961232273
281,16.568,16.23,0.6,0.3576493908948275,0.6454899450405094,0.5056954403162643,0.7417431376773953,0.5674817711605595,0.3991879107306275
282,16.652,16.29,0.59,0.35874468976967977,0.6452175469558941,0.5072769523657783,0.7412303260054984,0.5689526012927103,0.39875307205804017
283,16.672,16.34,0.62,0.35985496214173884,0.6449636367416509,0.5089074944530497,0.7407383710443667,0.5704324830066394,0.3983261111398855
284,16.736,16.4,0.61,0.360980178071745,0.6447283841834813,0.5105859064405132,0.7402672040262714,0.5719204819887708,0.39790726994310144
285,16.777,16.45,0.59,0.3621202800986176,0.644511937680458,0.5123109538603944,0.739816727445149,0.5734156266290851,0.3974967847933982
286,16.838,16.51,0.59,0.36327518347355964,0.6443144243143616,0.5140813293755856,0.7393868154691317,0.5749169092152666,0.3970948863156713
287,16.941,16.56,0.57,0.3644447764236314,0.6441359499418146,0.5158956543255331,0.7389773143872893,0.5764232871729086,0.39670179937718403
288,16.962,16.62,0.53,0.3656289204439736,0.6439765993083673,0.5177524803549958,0.7385880430900444,0.5779336843503722,0.3963177430330588
289,17.004,16.67,0.55,0.366827450617837,0.6438364361836791,0.5196502911234275,0.7382187935826097,0.5794469923467559,0.3959429304737004
290,17.065,16.73,0.57,0.36804017596353283,0.6437155035169333,0.5215875040926137,0.7378693315306835,0.5809620718812674,0.39557756897387564
291,17.107,16.78,0.58,0.36926687980735023,0.6436138236116598,0.5235624723900637,0.7375393968374978,0.5824777542021099,0.3952218598432692
292,17.169,16.84,0.6,0.3705073201814004,0.643531398319198,0.5255734867455234,0.7372287042512213,0.5839928425328467,0.39487599837844084
293,17.229,16.89,0.63,0.37176123024527596,0.6434682092500879,0.5276187774978602,0.7369369440016988,0.5855061135541033,0.3945401738161772
294,17.333,16.95,0.64,0.37302831873037484,0.6434242180027197,0.5296965166695091,0.7366637824654615,0.5870163189184281,0.39421456928828547
295,17.354,17.0,0.65,0.374308270405746,0.643399366408592,0.5318048201056425,0.7364088628577569,0.5885221867961249,0.39389936177790885
296,17.396,17.06,0.69,0.37560074656433695,0.6433935767935126,0.5339417496752249,0.7361718059500809,0.590022423449884,0.39359472207746843
297,17.457,17.11,0.7,0.3769053855285552,0.643406752254074,0.5361053155311066,0.735952210811396,0.5915157148360657,0.3933008147483644
298,17.52,17.17,0.71,0.37822180317408827,0.6434387769487181,0.5382934784263183,0.735749655570959,0.5930007282305133,0.39301779808259674
299,17.562,17.22,0.71,0.37954959347093337,0.6434895164027239,0.540504152083715,0.7355636982006017,0.594476113876798,0.3927458240664743
300,17.623,17.28,0.71,0.38088832904059117,0.6435588178264678,0.5427352056161038,0.7353938773143441,0.5959405066548309,0.39248503834653525
301,17.686,17.33,0.67,0.38223756172838563,0.643646510446349,0.5449844659939841,0.735239712983318,0.5973925277677863,0.39223558019771704
302,17.749,17.39,0.66,0.3835968231898737,0.6437524058478121,0.5472497205580148,0.7351007075640832,0.5988307864452602,0.39199758249373706
303,17.79,17.44,0.69,0.384965625490308,0.6438762983299456,0.5495287195732678,0.7349763465385143,0.6002538816605204,0.39177117167964587
304,17.854,17.5,0.7,0.3863434617160981,0.6440179652711727,0.5518191788222448,0.7348660993635185,0.6016604038595873,0.3915564677465953
305,17.895,17.55,0.72,0.3877298065971903,0.6441771675055973,0.5541187822334966,0.7347694203289404,0.6030489366997509,0.3913535842089863
306,17.936,17.61,0.77,0.3891241171392434,0.6443536497096113,0.5564251845425203,0.7346857494222703,0.6044180587950226,0.3911626280842566
307,17.998,17.66,0.79,0.39052583326444784,0.644547140798411,0.5587360139814458,0.7346145131991725,0.6057663454659771,0.3909836998756124
308,18.039,17.72,0.81,0.3919343784598338,0.6447573543320837,0.5610488749939141,0.7345551256592477,0.6070923704914541,0.3908168935580142
309,18.102,17.77,0.85,0.3933491604319368,0.6449839889309241,0.5633613509715076,0.7345069891266409,0.6083947078596624,0.3906622965676963
310,18.164,17.83,0.87,0.39476957176674227,0.6452267286996101,0.5656710070081686,0.7344694951349761,0.6096719335163256,0.39051998979543034
311,18.206,17.88,0.87,0.3961949905938933,0.6454852436598445,0.5679753926691736,0.7344420253157936,0.610922627107626,0.39039004758370366
312,18.269,17.94,0.89,0.3976247812541943,0.6457591901910551,0.5702720447713866,0.7344239522894007,0.6121453737158147,0.39027253772798104
313,18.333,17.99,0.9,0.39905829496947504,0.6460482114787625,0.5725584901716577,0.734414640556952,0.6133387655854504,0.39016752148227796
314,18.413,18.05,0.88,0.40049487051389066,0.6463519379702521,0.5748322485603723,0.7344134473925649,0.6145014038383131,0.3900750535693645
315,18.434,18.1,0.87,0.4019338348857323,0.6466699878372348,0.5770908352572363,0.7344197237343184,0.6156319001750851,0.3899951821960183
316,18.495,18.16,0.89,0.4033745039788221,0.6470019674452107,0.5793317640064325,0.7344328150730636,0.6167288785619099,0.38992794907379147
317,18.577,18.21,0.88,0.40481618325258417,0.6473474718292596,0.5815525497682753,0.7344520623379592,0.6177909768999251,0.38987338944575006
318,18.598,18.27,0.9,0.4062581683999296,0.6477060851759567,0.5837507115044444,0.7344768027775204,0.6188168486758137,0.3898315321195644
319,18.659,18.32,0.95,0.4076997460121364,0.6480773813110681,0.5859237749537968,0.7345063708347271,0.6198051645913722,0.38980239950720236
320,18.701,18.38,0.98,0.4091401942399696,0.6484609241926178,0.5880692753956667,0.7345400990145005,0.6207546141700642,0.38978600767132215
321,18.783,18.43,1.0,0.4105787834503539,0.6488562684088728,0.5901847603974955,0.7345773187417631,0.6216639073385603,0.3897823663783329
322,18.844,18.49,1.03,0.41201477687796567,0.6492629596807469,0.5922677925435897,0.7346173612085248,0.6225317759813541,0.3897914791579924
323,18.906,18.54,1.07,0.41344743127115285,0.649680535368129,0.5943159521418281,0.7346595582088097,0.6233569754666773,0.3898133433693183
324,18.926,18.6,1.04,0.41487599753160675,0.6501085249796799,0.5963268399052478,0.7347032429604665,0.6241382861421002,0.38984795027254066
325,18.987,18.65,1.07,0.416299721347193,0.6505464506857193,0.5982980796056198,0.7347477509129555,0.6248745147983601,0.3898952851068441
326,19.049,18.71,1.08,0.41771784381733995,0.6509938278339006,0.600227320696311,0.7347924205402268,0.6255644961001007,0.38995532717372483
327,19.213,18.76,1.06,0.419129602070385,0.6514501654674378,0.6021122409019133,0.7348365941179178,0.6262070939823111,0.39002804992589934
328,19.235,18.82,1.05,0.4205342298722939,0.6519149668456912,0.6039505487722486,0.7348796184843311,0.6268012030113319,0.3901134210618117
329,19.255,18.87,1.06,0.4219309582261764,0.6523877299669589,0.6057399861984475,0.7349208457849357,0.6273457497093453,0.39021140262584275
330,19.275,18.93,1.03,0.4233190159620434,0.65286794809333,0.6074783308888333,0.7349596342003274,0.627839693841288,0.39032195111430573
331,19.316,18.98,1.03,0.4246976303162967,0.6533551102774218,0.6091633988023762,0.7349953486575725,0.6282820296631182,0.39044501758723377
332,19.357,19.04,1.06,0.4260660275005024,0.6538487018907646,0.6107930465374612,0.7350273615247227,0.6286717871303279,0.39058054778584533
333,19.42,19.09,1.09,0.42742343325907955,0.6543482051535087,0.6123651736737018,0.735055053288091,0.6290080330655596,0.39072848225544465
334,19.523,19.15,1.1,0.42876907341560405,0.6548530996650587,0.6138777250645009,0.7350778132116911,0.6292898722841552,0.39088875647342763
335,19.545,19.2,1.14,0.4301021744074768,0.6553628629352077,0.6153286930780575,0.7350950399781792,0.6295164486764999,0.39106130098204256
336,19.586,19.26,1.17,0.4314219638087311,0.655876970915353,0.6167161197845437,0.7351061423107466,0.6296869462461175,0.39124604152555764
337,19.668,19.31,1.17,0.43272767084077224,0.6563948985294148,0.6180380990872696,0.7351105395756484,0.629800590102605,0.3914428991915049
338,19.687,19.37,1.18,0.4340185268708514,0.6569161202041365,0.6192927787957705,0.7351076623653536,0.6298566474086675,0.3916517905557056
339,19.751,19.42,1.2,0.43529376589810626,0.6574401103984925,0.6204783626389313,0.7350969530625443,0.6298544282806795,0.3918726278308113
340,19.812,19.48,1.19,0.436552625027028,0.6579663441319619,0.621593112216481,0.7350778663852751,0.6297932866423482,0.39210531901815093
341,19.895,19.53,1.18,0.4377943449282675,0.6584942975114446,0.6226353488874092,0.7350498699135345,0.629672621031176,0.39234976806273125
342,19.917,19.59,1.19,0.4390181702867317,0.6590234482566012,0.6236034555940377,0.7350124445973386,0.6294918753575177,0.39260587501125616
343,19.979,19.64,1.16,0.440223350236976,0.6595532762233854,0.6244958786206036,0.7349650852463421,0.6292505396160967,0.39287353617300574
344,20.021,19.7,1.12,0.44140913878594634,0.6600832639255229,0.6253111292852761,0.7349073010007774,0.6289481505498761,0.3931526442833596
345,20.082,19.75,1.13,0.44257479522315596,0.6606128970536685,0.6260477855645492,0.7348386157833842,0.6285842922661924,0.39344308866966304
346,20.143,19.81,1.14,0.44371958451843685,0.6611416649919479,0.6267044936489404,0.7347585687318283,0.6281585968050225,0.3937447554190426
347,20.248,19.86,1.13,0.44484277770744546,0.6616690613315637,0.6272799694289305,0.7346667146109741,0.627670744659206,0.39405752754773415
348,20.289,19.92,1.17,0.4459436522651516,0.6621945843811317,0.6277729999100581,0.7345626242045137,0.6271204652463952,0.394381285171516
349,20.309,19.97,1.19,0.447021492467552,0.6627177376734297,0.6281824445560515,0.7344458846860246,0.6265075373324952,0.3947159056769241
350,20.351,20.03,1.19,0.44807558974185835,0.6632380304682666,0.6285072365588774,0.7343160999703251,0.625831789406407,0.3950612638930284
351,20.415,20.08,1.2,0.4491052430054079,0.6637549782512236,0.6287463840346256,0.7341728910466832,0.6250931000059732,0.3954172322636464
352,20.477,20.14,1.23,0.4501097589935552,0.6642681032280475,0.6288989711442732,0.7340158962958127,0.6242913979951624,0.39578368101991707
353,20.519,20.19,1.22,0.451088452576835,0.6647769348144857,0.6289641591385093,0.7338447717926446,0.623426662792657,0.39616047835315615
354,20.621,20.25,1.21,0.452040647067736,0.6652810101213383,0.6289411873259723,0.7336591915966856,0.622498924552147,0.3965474905878885
355,20.642,20.3,1.22,0.4529656745174906,0.6657798744344574,0.6288293739643986,0.7334588480314973,0.621508264294748,0.3969445823549051
356,20.683,20.36,1.21,0.4538628760033561,0.666273081689374,0.6286281170743291,0.7332434519545062,0.620454813994067,0.39735161676412645
357,20.746,20.41,1.17,0.454731601906918,0.6667601949401798,0.6283368951751426,0.7330127330180419,0.6193387566145104,0.39776845557700224
358,20.809,20.47,1.15,0.4555712121839642,0.6672407868222627,0.6279552679432848,0.7327664399222842,0.6181603261034783,0.3981949593781467
359,20.87,20.52,1.14,0.4563810766264667,0.6677144400084957,0.6274828767926156,0.7325043406606648,0.6169198073380938,0.3986309877459055
360,20.912,20.58,1.12,0.4571605751171814,0.6681807476584878,0.6269194453768506,0.7322262227581718,0.6156175360270927,0.39907639942160106
361,20.995,20.63,1.12,0.4579090978773555,0.6686393138605258,0.6262647800140931,0.7319318935029823,0.6142538985684318,0.3995310524772887
362,21.017,20.69,1.15,0.45862604570801585,0.6690897540658524,0.6255187700334769,0.7316211801718814,0.6128293318631096,0.39999480448197405
363,21.078,20.74,1.15,0.45931083022530866,0.6695316955149422,0.6246813880439811,0.7312939302499473,0.6113443230856432,0.4004675126663457
364,21.141,20.8,1.15,0.45996287409035047,0.6699647776554589,0.6237526901255608,0.730950011644954,0.6097994094116483,0.4009490340861742
365,21.202,20.85,1.17,0.4605816112340558,0.6703886525515885,0.622732815942859,0.7305893128968489,0.6081951777030105,0.40143922578456104
366,21.244,20.91,1.16,0.4611664870774204,0.670802985284437,0.6216219887819143,0.7302117433824364,0.6065322641512113,0.4019379449531897
367,21.348,20.96,1.15,0.4617169587477785,0.6712074543431485,0.6204205155104335,0.7298172335150686,0.6048113538794628,0.4024450490926647
368,21.368,21.02,1.15,0.46223249529159516,0.6716017520063443,0.6191287864623265,0.7294057349388204,0.6030331805043793,0.4029603961719584
369,21.431,21.07,1.14,0.46271257788440545,0.6719855847134314,0.617747275247316,0.7289772207163646,0.6011985256579944,0.403483844786932
370,21.452,21.13,1.1,0.46315670003857023,0.6723586734252641,0.6162765384865361,0.7285316855095265,0.5993082184709823,0.40401525431788166
371,21.515,21.18,1.08,0.4635643678095472,0.6727207539736034,0.6147172154751234,0.7280691457514162,0.5973631350179707,0.4045544850860871
372,21.577,21.24,1.06,0.4639351000013865,0.6730715773988223,0.6130700277728678,0.7275896398090909,0.595364197725831,0.4051013985094009
373,21.639,21.29,1.03,0.46426842837213095,0.6734109102753312,0.6113357787240259,0.7270932281358411,0.5933123747457926,0.405655857257006
374,21.784,21.35,1.03,0.4645638978397473,0.6737385350242534,0.6095153529073926,0.7265799934123428,0.5912086792901494,0.4062177254035648
375,21.805,21.4,1.06,0.46482106668916046,0.6740542502129332,0.6076097155176858,0.7260500406760133,0.589054168934239,0.4067868685830298
376,21.826,21.46,1.06,0.4650395067809206,0.674357870840909,0.605619911679233,0.7255034974378961,0.586849944884289,0.4073631541423476
377,21.847,21.51,1.07,0.4652188037620248,0.6746492286119967,0.6035470656929084,0.7249405137862535,0.5845971512116962,0.40794645129518925
378,21.908,21.57,1.09,0.46535855727942366,0.674928172192145,0.6013923802172582,0.7243612624757778,0.5822969740543087,0.40853663127569967
379,21.949,21.62,1.1,0.465458381196777,0.675194567452729,0.5991571353848213,0.7237659390009293,0.5799506407853598,0.4091335674921094
380,22.01,21.68,1.08,0.46551790381504565,0.6754482976989704,0.5968426878547591,0.7231547616514645,0.5775594191507882,0.4097371356799455
381,22.094,21.73,1.1,0.4655367680974994,0.6756892638832183,0.5944504698029729,0.7225279715479885,0.5751246163757933,0.4103472140545099
382,22.115,21.79,1.09,0.4655146318996843,0.6759173848028901,0.5919819878508557,0.721885832655537,0.5726475782415811,0.4109636834622443
383,22.176,21.84,1.06,0.4654511682048322,0.6761325972829473,0.5894388219337212,0.721228631773734,0.5701296881333519,0.4115864275306025
384,22.239,21.9,1.03,0.4653460653651372,0.6763348563428472,0.5868226241098492,0.7205566785028229,0.5675723660606556,0.4122153328160891
385,22.282,21.95,1.02,0.4651990273492557,0.6765241353479735,0.5841351173110315,0.7198703051855642,0.5649770676512819,0.41285028895019354
386,22.343,22.01,0.98,0.46500977399633187,0.6767004261455817,0.581378094035501,0.7191698668254672,0.5623452831198544,0.4134911887830174
387,22.465,22.06,0.96,0.4647780412767874,0.6768637391853173,0.5785534149841044,0.7184557409820432,0.5596785362122603,0.41413792852447295
388,22.486,22.12,0.98,0.464503581560032,0.6770141036243791,0.5756630076405276,0.7177283276438765,0.5569783831269544,0.4147904078829728
389,22.507,22.17,0.98,0.4641861638891669,0.6771515674173825,0.5727088647962899,0.716988049080284,0.5542464114141021,0.4154485302015296
390,22.549,22.23,0.97,0.46382557426266824,0.6772761973909666,0.5696930430211476,0.716235349672188,0.5514842388534381,0.41611220259112924
391,22.612,22.28,0.99,0.46342161592296865,0.6773880793031483,0.5666176610794889,0.7154706957226084,0.5486935123116945,0.4167813360611296
392,22.675,22.34,1.0,0.4629741096517959,0.6774873178873999,0.5634848982933219,0.714694575246942,0.5458759065804769,0.4174558456463005
393,22.737,22.39,0.98,0.4624828940720952,0.6775740368813992,0.5602969928525607,0.7139074977429302,0.5430331231955275,0.4181356505300312
394,22.818,22.45,0.99,0.46194782595632095,0.6776483790403888,0.5570562400734493,0.713109993940015,0.5401668892383927,0.4188206741632247
395,22.839,22.5,0.99,0.4613687805408301,0.6777105061351048,0.5537649906061431,0.712302615527728,0.5372789561215975,0.4195108443784692
396,22.901,22.56,0.96,0.460745651846049,0.6777605989342661,0.5504256485926192,0.7114859348628165,0.5343710983585037,0.42020609349916543
397,22.944,22.61,0.94,0.46007835300201577,0.6777988571716533,0.5470406697762257,0.7106605446549664,0.5314451123190925,0.42090635844337904
398,23.089,22.67,0.93,0.45936681657884487,0.6778254994978392,0.5436125595642879,0.7098270576311292,0.5285028149729585,0.4216115808222248
399,23.111,22.72,0.88,0.45861099492162255,0.6778407634166206,0.5401438710452834,0.7089861061784485,0.5255460426208213,0.42232170703257954
400,23.131,22.78,0.84,0.45781086048922526,0.6778449052061795,0.536637202962163,0.7081383419655923,0.5225766496158382,0.4230366883438783
401,23.194,22.83,0.84,0.45696640619653617,0.6778381998249366,0.53309519764343,0.7072844355419698,0.5195965070759342,0.4237564809786791
402,23.215,22.89,0.84,0.45607764575952764,0.6778209408020063,0.5295205388935924,0.7064250759139228,0.5166075015882715,0.42448104618661797
403,23.278,22.94,0.82,0.4551446140426686,0.6777934401120833,0.5259159498445886,0.7055609700965972,0.513611533906854,0.425210350311322
404,23.338,23.0,0.84,0.4541673674080805,0.6777560280345643,0.5222841907697613,0.7046928426399917,0.5106105176441624,0.42594436484978626
405,23.4,23.05,0.85,0.45314598406581413,0.677709052996689,0.5186280568619471,0.7038214351276469,0.5076063779576611,0.42668306650366916
406,23.441,23.11,0.83,0.45208056442455985,0.6776528814005214,0.5149503759772962,0.7029475056465371,0.5046010502320116,0.42742643722194157
407,23.504,23.16,0.83,0.4509712314420571,0.6775878974336161,0.5112540063465348,0.7020718282268913,0.5015964787578604,0.42817446423439803
408,23.571,23.22,0.84,0.4498181309744419,0.6775145028632668,0.5075418342554907,0.7011951922509758,0.49859461540811567,0.42892714007562666
409,23.61,23.27,0.82,0.4486214321237814,0.6774331168142355,0.5038167716968011,0.7003184018303866,0.4955974183126876,0.42968446259912124
410,23.692,23.33,0.79,0.44738132758305427,0.6773441755298819,0.5000817539947475,0.699442275152221,0.49260685053270775,0.4304464349812511
411,23.713,23.38,0.8,0.44609803397785086,0.6772481321165923,0.49633973740513715,0.698567643795454,0.48962487873528654,0.43121306571476375
412,23.773,23.44,0.76,0.4447717922040728,0.6771454562714043,0.492593696692114,0.697695352019505,0.48665347186988955,0.4319843685914108
413,23.834,23.49,0.72,0.44340286776091875,0.6770366339926996,0.48884662268379675,0.6968262560271612,0.48369459984741164,0.4327603626732108
414,23.94,23.55,0.69,0.44199155107844734,0.6769221672738182,0.4851015198086578,0.6959612232038785,0.48075023222298746,0.43354107225180605
415,23.961,23.6,0.67,0.4405381578390062,0.6768025737794316,0.4813614036146066,0.6951011313352147,0.4778223368835164,0.4343265267953355
416,24.001,23.66,0.64,0.4390430292918106,0.6766783865045037,0.47762929827276507,0.694246867803878,0.4749128787407699,0.43511676088225787
417,24.064,23.71,0.65,0.4375065325599338,0.6765501534156753,0.47390823406792,0.6933993287677478,0.47202381843082564,0.43591181412163815
418,24.125,23.77,0.66,0.4359290609389225,0.676418437074958,0.47020124487760234,0.6925594183202194,0.4691571110204392,0.4367117310595374
419,24.167,23.82,0.66,0.4343110341861939,0.6762838142456862,0.4665113656417154,0.6917280476342923,0.4663147047208678,0.4375165610713222
420,24.292,23.88,0.65,0.43265289880031155,0.6761468754807499,0.4628416298246192,0.6909061340919469,0.4634985396096049,0.43832635823987537
421,24.313,23.93,0.67,0.430955128289185,0.6760082246932083,0.45919506687158357,0.690094600400531,0.46071054636048797,0.4391411812198105
422,24.396,23.99,0.66,0.4292182234262214,0.6758684787094181,0.4555746996615685,0.6892943736979796,0.4579526449826713,0.4399610930878327
423,24.438,24.04,0.64,0.42744271249346477,0.6757282668048303,0.4519835419583676,0.6885063846485959,0.4552267435689992,0.44078616117938463
424,24.458,24.1,0.64,0.4256291515107771,0.6755882302225901,0.4484245958622401,0.6877315665308735,0.4525347370543577,0.44161645691166806
425,24.499,24.15,0.62,0.4237781244501387,0.6754490216750677,0.44490084926425527,0.6869708543184798,0.4498785059846127,0.4424520555930605
426,24.561,24.21,0.58,0.42189024343414494,0.6753113048284388,0.44141527330564906,0.6862251837552265,0.4472599152967635,0.44329303621891997
427,24.645,24.26,0.56,0.41996614891775425,0.6751757537704566,0.43797081984451564,0.6854954904247433,0.4446808131109297,0.4441394812538069
428,24.665,24.32,0.54,0.4180065098523003,0.6750430524616027,0.4345704189321612,0.6847827088156526,0.4421430295347539,0.4449914764002706
429,24.705,24.37,0.52,0.41601202383074054,0.674913894169855,0.43121697630142763,0.684087771383154,0.4396483754807333,0.44584911035449365
430,24.767,24.43,0.51,0.41398341721307663,0.6747889808893692,0.4279133708692704,0.6834116076080442,0.437198641496895,0.4467124745492465
431,24.807,24.48,0.54,0.4119214452308527,0.6746690227434143,0.4246624522558296,0.6827551430542459,0.4347955966111218,0.4475816628846673
432,24.87,24.54,0.52,0.4098268920696388,0.6745547373719172,0.42146703832218174,0.6821192984258467,0.4324409871893455,0.4484567714473403
433,24.933,24.59,0.52,0.40770057092843537,0.6744468493039714,0.41832991272892545,0.6815049886244439,0.4301365358077646,0.4493378982180381
434,25.037,24.65,0.54,0.40554332405497473,0.6743460893156318,0.4152538225177272,0.6809131218073526,0.42788394013922776,0.4502251427683673
435,25.058,24.7,0.55,0.4033560227559593,0.6742531937732973,0.41224147571795067,0.6803445984469763,0.4256848718539429,0.45111860594647896
436,25.1,24.76,0.53,0.4011395673813367,0.6741689039629487,0.40929553898052695,0.6798003103913924,0.42354097553470865,0.4520183895519928
437,25.163,24.81,0.54,0.3988948872817773,0.6740939654054949,0.40641863524124605,0.6792811399260613,0.4214538676069169,0.4529245960003227
438,25.224,24.87,0.53,0.3966229407385669,0.674029127158489,0.4036133414156964,0.6787879588364775,0.4194251352836338,0.45383732797664117
439,25.246,24.92,0.5,0.3943247148651673,0.6739751411045063,0.40088218612813614,0.6783216274715415,0.417456335526122,0.4547566880797962
440,25.308,24.98,0.48,0.39200122547970645,0.6739327612265437,0.3982276474766348,0.6778829938074603,0.4155489940202055,0.4556827784565979
441,25.391,25.03,0.48,0.38965351694765354,0.6739027428708679,0.3956521508368651,0.6774728925121292,0.4137046041688896,0.4566157004270411
442,25.412,25.09,0.45,0.3872826619939332,0.6738858419978229,0.39315806670693104,0.6770921440101473,0.4119246261016254,0.45755555410117943
443,25.475,25.14,0.42,0.384889761483724,0.6738828144211592,0.39074770859557184,0.6767415535488625,0.41021048570055335,0.4585024379884822
444,25.537,25.2,0.44,0.38247594417118164,0.6738944150365052,0.3884233309559842,0.6764219102660104,0.40856357364398604,0.4594564486004869
445,25.641,25.25,0.44,0.3800423664153244,0.6739213970396261,0.3861871271673772,0.6761339862595177,0.4069852444673129,0.46041768004739325
446,25.662,25.31,0.44,0.3775902118623315,0.6739645111351287,0.3840412275662516,0.6758785356598039,0.405476815641438,0.46138622362900805
447,25.766,25.36,0.46,0.37512069109353574,0.674024504736266,0.38198769752929695,0.675656293704521,0.40403956666882435,0.46236216742021646
448,25.786,25.42,0.47,0.37263504123845187,0.6741021211564893,0.3800285356097542,0.6754679758152006,0.4026747381972134,0.4633455958509965
449,25.806,25.47,0.48,0.37013452555226234,0.674198098793384,0.3781656717290874,0.6753142766748698,0.401383531151133,0.46433658928090255
450,25.868,25.53,0.48,0.36762043295726243,0.6743131703056442,0.37640096542578083,0.6751958693055506,0.4001671058813742,0.4653352235679353
451,25.91,25.58,0.49,0.36509407754783063,0.6744480617837701,0.3747362041629974,0.675113404144728,0.3990265813327115,0.4663415696317416
452,25.973,25.64,0.47,0.36255679805853513,0.6746034919152377,0.3731731016967328,0.6750675081202222,0.39796303423023255,0.4673556930111876
453,26.036,25.69,0.46,0.36000995729502056,0.6747801711449518,0.37171329650600177,0.6750587837232762,0.39697749828471884,0.4683776534165289
454,26.139,25.75,0.47,0.3574549415273415,0.6749788008318783,0.37035835028652053,0.675087808079985,0.3960709634175792,0.46940750427662653
455,26.161,25.8,0.43,0.3548931598454463,0.6752000724027934,0.36910974650927986,0.6751551320213762,0.395244375005873,0.4704452922818252
456,26.201,25.86,0.4,0.35232604347656177,0.6754446665041282,0.3679688890453276,0.6752612791524556,0.3944986331479725,0.4714910569231688
457,26.264,25.91,0.4,0.34975504506428745,0.675713252152882,0.36693710085799003,0.6754067449204313,0.3938345919504028,0.4725448300285552
458,26.305,25.97,0.39,0.3471816379092736,0.6760064858875683,0.36601562276365435,0.6755919956821766,0.3932530588363645,0.473606635296297
459,26.347,26.02,0.38,0.34460731517143006,0.6763250109201251,0.36520561226210996,0.6758174677708456,0.39275479387637896,0.47467648782642186
460,26.409,26.08,0.41,0.3420335890336718,0.6766694562897245,0.3645081424372989,0.6760835665615473,0.392340509141433,0.4757543936499512
461,26.489,26.13,0.43,0.3394619898272582,0.6770404360194311,0.36392420092920064,0.676390665536078,0.39201086807895297,0.4768403492563685
462,26.51,26.19,0.43,0.336894065118829,0.677438548276711,0.3634546889775117,0.6767391053468516,0.3917664849119287,0.47793434111954175
463,26.571,26.24,0.44,0.33433137875927577,0.6778643745388696,0.36310042053777986,0.6771291928803144,0.39160792406153566,0.4790363452224837
464,26.632,26.3,0.46,0.3317755098946292,0.6783184787645855,0.3628621214706927,0.677561200320303,0.3915356995936854,0.4801463265814492
465,26.695,26.35,0.45,0.3292280519391964,0.678801406572777,0.36274042880526974,0.6780353642119138,0.39155027469002757,0.48126423876995633
466,26.756,26.41,0.44,0.3266906115112643,0.6793136844300889,0.36273589007674556,0.6785518845265174,0.3916520611440377,0.4823900234433558
467,26.818,26.46,0.45,0.32416480733178393,0.6798558188482959,0.36284896273990913,0.6791109237286381,0.3918414188829215,0.4835236098645757
468,26.963,26.52,0.44,0.32165226908656774,0.6804282955929021,0.3630800136585857,0.679712605845658,0.39211865551615255,0.48466491443162935
469,26.983,26.57,0.4,0.31915463625264723,0.6810315789041856,0.36342931867180367,0.6803570155417785,0.3924840259115203,0.48581384020743884
470,27.004,26.63,0.4,0.3166735568895605,0.6816661107319059,0.36389706223702767,0.681044197198274,0.39293773179959285,0.48697027645251884
471,27.026,26.68,0.38,0.3142106863964634,0.6823323099848573,0.36448333715073944,0.6817741540024831,0.3934799214074955,0.48813409816108844
472,27.089,26.74,0.35,0.3117676862360972,0.6830305717964275,0.3651881443466562,0.6825468470480389,0.394110689122864,0.4893051656012335
473,27.149,26.79,0.36,0.30934622262677425,0.6837612668072887,0.36601139277197164,0.6833621944486986,0.39483007518876573,0.49048332385980614
474,27.232,26.85,0.37,0.30694796520364526,0.6845247404663525,0.3669528993421057,0.6842200704680083,0.3956380654302999,0.4916684023927631
475,27.253,26.9,0.35,0.304574585650596,0.6853213123511263,0.368012388974484,0.6851203046670286,0.3965345910135243,0.49286021458165086
476,27.294,26.96,0.35,0.30222775630419785,0.686151275508616,0.36918949470182383,0.6860626810724644,0.397519528237302,0.4940585572970173
477,27.357,27.01,0.38,0.2999091487312111,0.6870148958179444,0.37048375786530446,0.6870469373677343,0.3985926983586463,0.49526321046969835
478,27.42,27.07,0.38,0.2976204322812228,0.6879124113758388,0.37189462838793513,0.6880727641096566,0.3997538674521377,0.49647393667118245
479,27.482,27.12,0.37,0.2953632726160973,0.6888440319061302,0.3734214651284014,0.6891398039734359,0.40100274630400257,0.49769048070451827
480,27.523,27.18,0.39,0.29313933021801697,0.6898099381943569,0.3750635363156807,0.6902476510285263,0.4023389903414745,0.4989125692073878
481,27.607,27.23,0.38,0.2909502588779995,0.6908102815485202,0.37682002006477017,0.6913958500477445,0.4037621995981074,0.5001399102689897
482,27.628,27.29,0.35,0.28879770416690514,0.6918451832869731,0.378690004973968,0.6925838958517535,0.40527191871574625,0.5013721930623705
483,27.669,27.34,0.34,0.2866833018910662,0.6929147342543641,0.3806724908042403,0.6938112326908872,0.40686763698389383,0.502609087493857
484,27.73,27.4,0.33,0.28460867653478356,0.6940189943665095,0.3827663892412568,0.6950772536663121,0.40854878841719683,0.5038502438713354
485,27.794,27.45,0.29,0.28257543969202237,0.6951579921850363,0.38497052474066484,0.6963813001926734,0.4103147518717458,0.505095292593239
486,27.856,27.51,0.27,0.2805851884896975,0.6963317245226379,0.38728363545707556,0.6977226615046201,0.41216485120080143,0.5063438438602468
487,27.918,27.56,0.3,0.27863950400495097,0.6975401560798083,0.38970437425705606,0.6991005742099131,0.41409835545045615,0.507595487411765
488,27.96,27.62,0.28,0.2767399496788125,0.6987832191139424,0.39223130981618914,0.7005142218920145,0.41611447909561966,0.5088497922892581
489,28.021,27.67,0.28,0.2748880697286061,0.7000608131416619,0.3948629278000227,0.7019627347650533,0.4182123823165978,0.5101063066284197
490,28.063,27.73,0.3,0.2730853875614345,0.7013728046751431,0.3975976321284958,0.7034451893838868,0.420391171316447,0.5113645574820567
491,28.105,27.78,0.31,0.27133340419105306,0.7027190269930812,0.40043374632324125,0.7049606084117183,0.4226498986792351,0.5126240506754373
492,28.189,27.84,0.29,0.26963359666043646,0.704099279946787,0.40336951493698536,0.7065079604475646,0.42498756376930985,0.5138842706957989
493,28.229,27.89,0.31,0.26798741647233143,0.705513329801785,0.4064031050640741,0.708086159916038,0.4274031131716652,0.5151446806177337
494,28.374,27.95,0.34,0.26639628803006526,0.7069609091152166,0.4095326079309501,0.709694067022353,0.4298954411734874,0.5164047220662634
495,28.413,28.0,0.32,0.2648616070908677,0.7084417166493083,0.41275604056521015,0.7113304877759509,0.4324633902869594,0.5176638152195313
496,28.434,28.06,0.32,0.2633847392339407,0.7099554173211601,0.41607134754170827,0.7129941740864429,0.435105751813401,0.518921358853135
497,28.455,28.11,0.33,0.26196701834549185,0.7115016421891137,0.41947640280399967,0.7146838239357096,0.43782126644883423,0.5201767304281044
498,28.496,28.17,0.3,0.26060974512294605,0.7130799884759834,0.42296901155927047,0.7163980816299064,0.44060862493106934,0.5214292862243636
499,28.559,28.22,0.27,0.25931418560055264,0.7146900196294218,0.4265469122447162,0.7181355381348555,0.4434664687283926,0.5226783615212078
500,28.621,28.28,0.27,0.2580815696986079,0.7163312654196756,0.43020777856313686,0.719894731497871,0.446393390769887,0.5239232708259183
501,28.702,28.33,0.27,0.2569130897984853,0.7180032220748929,0.43394922158529436,0.7216741473585073,0.44938793621732603,0.5251633081511614
502,28.724,28.39,0.25,0.2558098993456325,0.7197053524539722,0.43776879191635143,0.7234722195501437,0.4524486032784442,0.5263977473413891
503,28.784,28.44,0.28,0.25477311148265663,0.7214370862566744,0.4416639819234713,0.7252873307938085,0.4555738440612426,0.5276258424480736
504,28.825,28.5,0.29,0.2538037977145928,0.7231978202704192,0.4456322280214629,0.7271178134852239,0.4587620654688563,0.5288468281532787
505,28.888,28.55,0.28,0.2529029866084109,0.7249869186529291,0.4496709130132295,0.7289619505756878,0.4620116301344145,0.530059920240843
506,28.949,28.61,0.29,0.2520716625287502,0.7268037132496973,0.4537773684817186,0.7308179765471212,0.465320857395262,0.5312643161143401
507,28.992,28.66,0.31,0.25131076441178946,0.7286475039451681,0.45794887723006644,0.7326840784813948,0.46868802430586437,0.5324591953609674
508,29.075,28.72,0.31,0.2506211845790675,0.7305175590464439,0.46218267576664596,0.7345583972238416,0.47211136668868664,0.5336437203605439
509,29.094,28.77,0.31,0.2500037675929711,0.732413115698321,0.46647595683174303,0.7364390286406507,0.4755890802223006,0.5348170369387952
510,29.157,28.83,0.33,0.24945930915549702,0.7343333803284389,0.47082587196256626,0.7383240249696239,0.47911932156594206,0.5359782750640457
511,29.217,28.88,0.31,0.24898855505180706,0.7362775291213111,0.47522953409327745,0.7402113962634707,0.48270020951970966,0.5371265495863
512,29.28,28.94,0.29,0.2485922001400269,0.7382447085199741,0.4796840201866927,0.7420991119244063,0.48632982621955034,0.5382609610175247
513,29.342,28.99,0.29,0.24827088738868267,0.7402340357539392,0.48418637389426045,0.7439851023283847,0.49000621836611735,0.5393805963517669
514,29.465,29.05,0.29,0.24802520696311992,0.7422445993920967,0.4887336082408857,0.7458672605368687,0.4937273984864945,0.5404845299235783
515,29.486,29.1,0.28,0.24785569536219146,0.7442754599191879,0.49332270833114444,0.7477434440936567,0.497491346227668,0.5415718243031059
516,29.508,29.16,0.31,0.24776283460641454,0.7463256503344613,0.497950634073391,0.7496114769040623,0.5012960096804868,0.5426415312261115
517,29.547,29.21,0.34,0.2477470514786877,0.7483941767711656,0.5026143229181977,0.7514691511937256,0.5051393067327219,0.5436926925570741
518,29.61,29.27,0.34,0.24780871681853964,0.750480019135569,0.5073106926075126,0.7533142295443901,0.5090191264497299,0.5447243412833982
519,29.692,29.32,0.37,0.2479481448707778,0.7525821317642415,0.5120366439308892,0.7551444470040444,0.5129333304811606,0.545735502538641
520,29.732,29.38,0.41,0.2481655926893167,0.7546994440983674,0.5167890634851441,0.7569575132688761,0.5168797544921182,0.5467251946525619
521,29.815,29.43,0.42,0.24846125959691515,0.7568308613738802,0.5215648264338351,0.7587511149344329,0.5208562096171973,0.5476924302257051
522,29.836,29.49,0.43,0.24883528670152677,0.7589752653262031,0.5263607992630228,0.7605229178132126,0.5248604839358345,0.5486362172261386
523,29.878,29.54,0.46,0.24928775646996215,0.7611315149083842,0.531173842529865,0.7622705693156473,0.5288903439674499,0.5495555601059036
524,29.941,29.6,0.47,0.24981869235955595,0.7632984470214007,0.5360008136007229,0.7639917008911197,0.5329435361848894,0.5504494609346672
525,30.003,29.65,0.46,0.25042805850852046,0.7654748772554195,0.5408385693755997,0.7656839305252945,0.5370177885447006,0.551316920548059
526,30.045,29.71,0.47,0.2511157594856221,0.7676596006408344,0.5456839689958698,0.7673448652898588,0.5411108120327982,0.5521569397081841
527,30.108,29.76,0.47,0.25188164009973435,0.7698513924079778,0.550533876532368,0.7689721039407587,0.5452203022240661,0.5529685202738499
528,30.168,29.82,0.47,0.25272548526971167,0.7720490087545094,0.5553851636509908,0.7705632395611361,0.5493439408544267,0.5537506663781054
529,30.21,29.87,0.49,0.25364701995489763,0.7742511876196042,0.560234712253023,0.772115862245314,0.5534793974038448,0.5545023856107736
530,30.251,29.93,0.53,0.2546459091464462,0.7764566494641866,0.565079417087439,0.773627561820252,0.557624330688674,0.5552226902037151
531,30.314,29.98,0.55,0.2557217579195112,0.7786640980565608,0.569916188332467,0.7750959306008229,0.5617763904616792,0.5559105982165861
532,30.375,30.04,0.57,0.2568741115462646,0.7808722212628768,0.5747419541437441,0.7765185661750685,0.5659332190180392,0.5565651347208536
533,30.437,30.09,0.61,0.25810245566965545,0.7830796918418966,0.5795536631664369,0.7778930742154162,0.5700924528056323,0.5571853329798107
534,30.54,30.15,0.64,0.2594062165378522,0.7852851682434963,0.5843482870087663,0.7792170713117109,0.5742517240379538,0.5577702356223361
535,30.562,30.2,0.65,0.26078476129937683,0.7874872954102623,0.5891228226744777,0.7804881878218047,0.5784086623080744,0.5583188958081939
536,30.605,30.26,0.69,0.2622373983589707,0.7896847055815105,0.5938742949519121,0.7817040707354219,0.5825608962021204,0.5588303783827788
537,30.645,30.31,0.71,0.26376337779418474,0.7918760190990669,0.5985997587574746,0.7828623865470743,0.5867060549108295,0.5593037610193489
538,30.708,30.37,0.71,0.265361891832594,0.7940598452142372,0.6032963014314376,0.7839608241339362,0.5908417698378176,0.5597381353469244
539,30.75,30.42,0.71,0.26703207538942014,0.7962347828954691,0.6079610449841658,0.7849970976347639,0.5949656762032571,0.5601326080621586
540,30.812,30.48,0.71,0.26877300666523585,0.798399421636302,0.6125911482909766,0.7859689493261569,0.5990754146417353,0.5604863020235906
541,30.935,30.53,0.7,0.27058370780333274,0.8005523422632493,0.6171838092339568,0.7868741524925777,0.6031686327930783,0.5607983573268044
542,30.957,30.59,0.71,0.2724631456062426,0.8026921177433005,0.6217362667891403,0.7877105142865403,0.6072429868849202,0.5610679323591572
543,30.977,30.64,0.76,0.2744102323108109,0.8048173139907517,0.6262458030574984,0.788475878575253,0.6112961433057409,0.5612942048329203
544,31.059,30.7,0.79,0.27642382642113855,0.8069264906730842,0.6307097452382204,0.7891681287697792,0.6153257801670363,0.5614763727958472
545,31.079,30.75,0.81,0.2785027335986334,0.8090182020155974,0.6351254675427673,0.789785190632512,0.6193295888532429,0.5616136556183016
546,31.141,30.81,0.85,0.28064570760835705,0.8110909976045066,0.6394903930481929,0.7903250350585845,0.6233052755580505,0.5617052949561293
547,31.202,30.86,0.87,0.2828514513207875,0.8131434231882464,0.6438019954882799,0.7907856808267555,0.627250562805811,0.5617505556884261
548,31.284,30.92,0.88,0.28511861776806385,0.8151740214767805,0.6480578009811375,0.7911651973153522,0.6311631909568461,0.5617487268293139
549,31.306,30.97,0.9,0.2874458112537062,0.8171813329388207,0.652255389692041,0.7914617071790138,0.6350409196955726,0.5616991224128307
550,31.386,31.03,0.94,0.2898315885147323,0.8191638965969608,0.6563923974304344,0.7916733889822269,0.638881529500456,0.5616010823501044
551,31.407,31.08,0.93,0.29227445993502027,0.82112025082082,0.6604665171801619,0.7917984797858535,0.6426828230948819,0.5614539732580457
552,31.469,31.14,0.93,0.29477289080870495,0.8230489341183614,0.664475500562116,0.7918352776829913,0.6464426268781066,0.5612571892588526
553,31.53,31.19,0.95,0.2973253026523335,0.8249484859255911,0.6684171592285786,0.7917821442805998,0.6501587923355048,0.561010152749601
554,31.592,31.25,0.95,0.2999300745644499,0.8268174473948642,0.6722893661885843,0.7916375071233547,0.6538291974273758,0.5607123151411441
555,31.654,31.3,0.93,0.3025855446312162,0.8286543621820149,0.6760900570636603,0.7913998620561337,0.6574517479555799,0.560363157565541
556,31.714,31.36,0.96,0.3052900113765936,0.8304577772324875,0.6798172312733088,0.7910677755214702,0.6610243789072658,0.5599621915512311
557,31.735,31.41,0.98,0.3080417352554898,0.8322262435665805,0.6834689531496113,0.7906398867882476,0.664545055774919,0.5595089596651969
558,31.796,31.47,0.98,0.31083894018812974,0.8339583170637876,0.6870433529803894,0.7901149101078269,0.6680117758519298,0.559003036121382
559,31.856,31.52,1.0,0.3136798151337476,0.835652559246059,0.6905386279804354,0.7894916367937576,0.6714225695028554,0.5584440273546845
560,31.921,31.58,1.03,0.31656251570153354,0.8373075380596301,0.6939530431904406,0.7887689372212349,0.6747755014075528,0.5578315725599153
561,32.043,31.63,1.03,0.319485165796632,0.8389218286549006,0.6972849323033933,0.7879457627425718,0.6780686717783889,0.5571653441952037
562,32.083,31.69,1.05,0.32244585929886216,0.8404940141637152,0.7005326984183626,0.7870211475151676,0.6813002175497583,0.5564450484494593
563,32.104,31.74,1.08,0.32544266177172154,0.8420226864733016,0.7036948147217184,0.7859942102387526,0.6844683135391819,0.5556704256736575
564,32.123,31.8,1.08,0.32847361219915194,0.8435064469960462,0.7067698250959554,0.7848641557989521,0.6875711735792923,0.5548412507758412
565,32.187,31.85,1.07,0.3315367247474921,0.8449439074342103,0.709756344656401,0.7836302768143946,0.6906070516200512,0.5539573335798477
566,32.248,31.91,1.08,0.3346299905500102,0.8463336905386433,0.7126530602161814,0.7822919550846764,0.6935742428005841,0.5530185191478272
567,32.311,31.96,1.08,0.3377513795113922,0.847674430860508,0.7154587306799283,0.7808486629365055,0.6964710844900394,0.5520246880666653
568,32.394,32.02,1.1,0.3408988421295549,0.8489647754950501,0.7181721873668223,0.7792999644653116,0.699295957296888,0.5509757566984971
569,32.415,32.07,1.11,0.34407031133212573,0.8502033848164907,0.7207923342636712,0.7776455166696591,0.7020472860460518,0.5498716773955795
570,32.477,32.13,1.14,0.3472637043248996,0.851388933203236,0.7233181482088004,0.7758850704759891,0.7047235407232244,0.5487124386797749
571,32.52,32.18,1.15,0.35047692444957035,0.8525201097527139,0.7257486790075882,0.7740184716514615,0.7073232373857429,0.5474980653867118
572,32.561,32.24,1.17,0.3537078630480455,0.8535956189852943,0.7280830494805038,0.772045661602994,0.7098449390393753,0.5462286187744126
573,32.665,32.29,1.21,0.35695440133069706,0.8546141815368896,0.7303204554445132,0.7699666780609463,0.7122872564804364,0.5449041965959457
574,32.687,32.35,1.22,0.3602144122459824,0.8555745348399483,0.7324601656287538,0.7677816556461831,0.7146488491026977,0.543524933135534
575,32.749,32.4,1.22,0.3634857623489818,0.8564754337926467,0.7345015215254497,0.7654908263194056,0.7169284256686337,0.5420909992075236
576,32.812,32.46,1.24,0.3667663136665174,0.8573156514161276,0.7364439371771416,0.7630945197117213,0.7191247450446336,0.5406026021175834
577,32.833,32.51,1.25,0.37005392555663125,0.8580939794996403,0.7382868989014308,0.760593163335489,0.7212366168998902,0.5390599855854963
578,32.894,32.57,1.24,0.37334645656030413,0.858809229233412,0.7400299649545543,0.7579872826745923,0.7232629023687516,0.537463429628936
579,32.957,32.62,1.24,0.37664176624338025,0.8594602318290586,0.7416727651352016,0.7552775011535481,0.7252025146763662,0.5358132504077265
580,33.018,32.68,1.25,0.3799377170267223,0.8600458391273489,0.7432150003300493,0.7524645399852341,0.7270544197274806,0.5341098000282132
581,33.122,32.73,1.22,0.38323217600268383,0.8605649241931654,0.7446564420025404,0.7495492178974222,0.7288176366582462,0.5323534663074966
582,33.141,32.79,1.22,0.3865230167360419,0.8610163818975641,0.7459969316264672,0.7465324507386948,0.7304912383508728,0.5305446724974012
583,33.204,32.84,1.24,0.3898081210475911,0.8613991294868906,0.7472363800658853,0.7434152509647218,0.7320743519109245,0.5286838769681071
584,33.223,32.9,1.25,0.3930853807786699,0.8617121071389743,0.7483747669028403,0.7401987270061411,0.733566159106995,0.5267715728514054
585,33.306,32.95,1.26,0.3963526995349817,0.8619542785064495,0.7494121397142844,0.7368840825193951,0.7349658967724421,0.5248082876435226
586,33.388,33.01,1.3,0.39960799440818434,0.8621246312472787,0.7503486132994688,0.7334726155218451,0.7362728571688166,0.5227945827674119
587,33.408,33.06,1.31,0.40284919767385735,0.8622221775425672,0.7511843688590234,0.7299657174123402,0.7374863883106335,0.5207310530943123
588,33.492,33.12,1.29,0.4060742584646076,0.8622459546018019,0.7519196531269352,0.7263648718781972,0.7386058942511697,0.5186183264243218
589,33.512,33.17,1.31,0.4092811444172097,0.8621950251557172,0.7525547774566694,0.7226716536894177,0.7396308353290442,0.5164570629257768
590,33.554,33.23,1.34,0.41246784329281083,0.8620684779371277,0.7530901168627459,0.7188877273810231,0.7405607283753921,0.5142479545334696
591,33.616,33.28,1.34,0.41563236456935554,0.861865428150196,0.7535261090191661,0.7150148458245782,0.7413951468814871,0.5119917243061568
592,33.739,33.34,1.33,0.41877274100549305,0.8615850179287579,0.7538632532161648,0.7110548486902647,0.7421337211266942,0.5096891257443121
593,33.759,33.39,1.35,0.4218870301753098,0.8612264167844184,0.7541021092768202,0.7070096608012318,0.7427761382666632,0.5073409420694827
594,33.78,33.45,1.34,0.4249733159732856,0.8607888220451644,0.7542432964350871,0.7028812903822774,0.743322142381707,0.5049479854668345
595,33.862,33.5,1.31,0.4280297100889099,0.8602714592852035,0.7542874921768304,0.6986718272051108,0.7437715344853358,0.5025110962925583
596,33.883,33.56,1.32,0.43105435345042836,0.8596735827466678,0.7542354310453976,0.6943834406324865,0.7441241724929116,0.5000311422477788
597,33.944,33.61,1.33,0.43404541763721227,0.8589944757537268,0.7540879034132271,0.6900183775634036,0.7443799711503727,0.4975090175204773
598,34.005,33.67,1.33,0.4370011062602623,0.8582334511195784,0.7538457542209066,0.6855789602814446,0.7445389019229252,0.4949456418967802
599,34.068,33.72,1.37,0.4399196563103465,0.8573898515467283,0.7535098816850098,0.681067584208303,0.7446009928435557,0.492341959842859
600,34.108,33.78,1.39,0.442799339473243,0.856463050020947,0.7530812359759707,0.6764867155646317,0.7445663283211921,0.489698939558673
601,34.235,33.83,1.4,0.44563846341154806,0.855452450199292,0.752560817867259,0.6718388889404825,0.7444350489083514,0.4870175720048559
602,34.255,33.89,1.42,0.4484353730125147,0.8543574867925815,0.7519496773571551,0.6671267047778233,0.7442073510281837,0.4842988699041718
603,34.296,33.94,1.46,0.45118845160142823,0.8531776259427202,0.7512489122644884,0.6623528267678951,0.743883486660899,0.48154386671907007
604,34.317,34.0,1.46,0.45389612212008124,0.8519123655952626,0.7504596667997723,0.6575199791663972,0.7434637629896916,0.4787536156069485
605,34.379,34.05,1.46,0.45655684826999754,0.8505612358675907,0.7495831301132275,0.652630944029625,0.7429485420063736,0.47592918835477643
606,34.441,34.11,1.48,0.4591691356201468,0.8491237994130433,0.7486205348212506,0.647688558374719,0.7423382400770636,0.4730716742947407
607,34.503,34.16,1.48,0.46173153267900796,0.8475996517813016,0.7475731555129304,0.6426957112671271,0.741633327468375,0.4701821792025736
608,34.605,34.22,1.45,0.4642426319309519,0.8459884217752988,0.7464423072382733,0.6376553408383191,0.7408343278346468,0.4672618241802434
609,34.626,34.27,1.44,0.4667010708369863,0.8442897718049062,0.7452293439797962,0.6325704312368609,0.7399418176668218,0.4643117445247422
610,34.666,34.33,1.45,0.4691055327999273,0.8425033982376606,0.7439356571091226,0.6274440095162027,0.7389564257036183,0.4613330885847654
611,34.728,34.38,1.45,0.4714547480940161,0.8406290317467869,0.7425626738301658,0.6222791424628771,0.7378788323056455,0.45832701660712266
612,34.77,34.44,1.46,0.4737474947589071,0.8386664376567459,0.7411118556104394,0.6170789333691709,0.7367097687930916,0.45529469957474283
613,34.832,34.49,1.5,0.4759825994578581,0.8366154162864797,0.7395846966020003,0.6118465187546439,0.7354500167476054,0.4522373180381213
614,34.873,34.55,1.49,0.47815893829987827,0.8344758032904438,0.7379827220535606,0.6065850650409784,0.7341004072790156,0.44915606094200544
615,34.977,34.6,1.49,0.4802754376255639,0.8322474699974083,0.7363074867153611,0.6012977651845696,0.7326618202575833,0.4460521244490527
616,35.019,34.66,1.52,0.48233107475635356,0.829930323746908,0.734560573238482,0.5959878352711026,0.7311351835125781,0.44292671076214085
617,35.059,34.71,1.53,0.48432487870697066,0.8275243082231027,0.7327435905703437,0.5906585110761652,0.7295214719980673,0.4397810269469904
618,35.101,34.77,1.52,0.48625593086086244,0.8250294037857405,0.730858172348224,0.5853130445957578,0.7278217069269056,0.4366162837568001
619,35.163,34.82,1.53,0.4881233656084684,0.82244562779789,0.7289059752926901,0.5799547005504735,0.7260369548740114,0.43343369446069635
620,35.225,34.88,1.53,0.4899263709481386,0.8197730349501414,0.7268886776029008,0.5745867528671337,0.7241683268501141,0.430234473677889
621,35.328,34.93,1.5,0.49166418904948817,0.8170117175810355,0.7248079773558148,0.5692124811417815,0.7222169773472494,0.4270198362195106
622,35.348,34.99,1.47,0.49333611677892275,0.814161805993546,0.7226655909113976,0.563835167088116,0.7201841033573527,0.42379099594016084
623,35.39,35.04,1.46,0.494941506187033,0.8112234687674796,0.7204632513259528,0.5584580909756797,0.7180709433653427,0.4205491646011601
624,35.451,35.1,1.44,0.49647976495754237,0.8081969130676375,0.718202706775701,0.5530845280622205,0.7158787763180796,0.41729555074742175
625,35.513,35.15,1.42,0.497950356817491,0.805082384947539,0.7158857189926587,0.547717745024657,0.7136089205705455,0.4140313585996836
626,35.537,35.21,1.45,0.4993528019083514,0.8018801696484255,0.7135140617147135,0.5423609963930608,0.7112627328105131,0.41075778696363063
627,35.596,35.26,1.46,0.5006866771177975,0.7985905918931793,0.7110895191515652,0.5370175209920734,0.7088416069629129,0.40747602815723266
628,35.699,35.32,1.45,0.5019516163718822,0.7952140161747044,0.7086138844679795,0.5316905383941792,0.7063469730750708,0.4041872669574696
629,35.72,35.37,1.47,0.5031473108874176,0.7917508470382534,0.7060889582856407,0.5263832453893019,0.703780296184011,0.40089267956752267
630,35.761,35.43,1.47,0.5042735093843725,0.7882015293571658,0.7035165472048301,0.5210988124752814,0.7011430751670852,0.3975934326054446
631,35.822,35.48,1.46,0.5053300182581218,0.7845665486014801,0.7008984623472025,0.5158403803738784,0.6984368415772743,0.3942906821152938
632,35.864,35.54,1.45,0.5063167017113743,0.7808464310989016,0.6982365179210113,0.5106110565770602,0.6956631584646038,0.39098557260171174
633,35.927,35.59,1.45,0.5072334818455819,0.7770417442875849,0.6955325298102314,0.5054139119284355,0.6928236191851869,0.3876792360888981
634,35.968,35.65,1.41,0.5080803387116185,0.7731530969601366,0.692788314189112,0.5002519772447483,0.6899198461994749,0.38437279120485784
635,36.051,35.7,1.37,0.5088573103194837,0.769181139498126,0.690005686163751,0.49512823998228317,0.6869534898613213,0.3810673422916684
636,36.092,35.76,1.34,0.5095644926067686,0.7651265640962825,0.6871864584423083,0.4900456409528865,0.6839262271994634,0.37776397854238875
637,36.135,35.81,1.31,0.5102020393655969,0.7609901049754428,0.6843324400354605,0.4850070710940638,0.6808397606929764,0.3744637731651362
638,36.196,35.87,1.28,0.5107701621277467,0.7567725385832257,0.6814454349886426,0.4800153682973343,0.6776958170421541,0.37116778257481137
639,36.259,35.92,1.29,0.5112691300076471,0.7524746837813515,0.6785272411475161,0.4750733142988071,0.6744961459361337,0.36787704561295076
640,36.341,35.98,1.27,0.5116992695029215,0.7480974020184976,0.6755796489579657,0.47018363163580357,0.6712425188184385,0.36459258279615553
641,36.361,36.03,1.27,0.5120609642521449,0.7436415974875749,0.6726044403018288,0.465348980673223,0.6679367276514967,0.36131539559352416
642,36.423,36.09,1.27,0.5123546547494495,0.7391082172663187,0.6696033873694942,0.4605719567032538,0.6645805836811056,0.35804646573349064
643,36.505,36.14,1.29,0.5125808380156116,0.7344982514401035,0.6665782515704821,0.45585508712194456,0.6611759162017774,0.35478675454044917
644,36.525,36.2,1.29,0.5127400672252176,0.7298127332058615,0.6635307824831223,0.45120082868601397,0.657724571323886,0.35153720230151175
645,36.588,36.25,1.27,0.5128329512895444,0.7250527389559422,0.6604627168444671,0.44661156485303705,0.6542284107435593,0.3482987276636825
646,36.63,36.31,1.27,0.5128601543948127,0.7202193883406626,0.6573757775815601,0.44208960320788837,0.6506893105163049,0.34507222706164536
647,36.693,36.36,1.26,0.5128223954955707,0.7153138443081818,0.6542716728851081,0.43763717297808385,0.6471091598354025,0.3418585741762626
648,36.794,36.42,1.22,0.5127204477630654,0.7103373131202149,0.65115209532648,0.4332564226404746,0.6434898598161453,0.33865861942380315
649,36.814,36.47,1.19,0.5125551379885701,0.7052910443419873,0.6480187210187971,0.4289494176216404,0.6398333222870143,0.3354731894758701
650,36.855,36.53,1.16,0.5123273459417211,0.700176330804764,0.6448732088227405,0.42471813809430103,0.6361414685888531,0.33230308680997583
651,36.916,36.58,1.12,0.5120380036839571,0.694994508539272,0.641717199597562,0.4205644768720891,0.6324162283830385,0.3291490892907447
652,36.977,36.64,1.11,0.5116880948371789,0.6897469566783668,0.6385523154976361,0.4164902374051424,0.6286595384695366,0.3260119497817922
653,37.019,36.69,1.12,0.5112786538077434,0.6844350973273475,0.6353801593147079,0.4124971318791125,0.6248733416155959,0.32289239578839435
654,37.08,36.75,1.12,0.5108107649659318,0.6790603954003657,0.6322023138658212,0.40858677942019356,0.621059585395691,0.31979112913107555
655,37.185,36.8,1.11,0.5102855617810776,0.6736243584214171,0.6290203414267591,0.4047607044085838,0.617220221043226,0.31670882565019604
656,37.205,36.86,1.13,0.5097042259126203,0.6681285362884397,0.6258357832107209,0.40102033490246425,0.6133572023144498,0.31364613494151067
657,37.247,36.91,1.12,0.5090679862574514,0.6625745209990939,0.6226501588918821,0.3973670011741952,0.609472484365031,0.31060368012252504
658,37.289,36.97,1.1,0.508378117954044,0.656963946336857,0.6194649661734494,0.39380193436011335,0.6055680226397693,0.30758205762933577
659,37.351,37.02,1.1,0.5076359413439433,0.6512984875161668,0.6162816803997733,0.39032626522516234,0.60164577177595,0.3045818370435503
660,37.413,37.08,1.08,0.506842820891267,0.6455798607854824,0.6131017542120558,0.38694102304358363,0.597707684520892,0.301603560948827
661,37.455,37.13,1.05,0.5060001640609004,0.6398098229872912,0.6099266172471723,0.3836471345969116,0.5937557106642537,0.2986477448165841
662,37.518,37.19,1.02,0.5051094201560943,0.6339901710742633,0.6067576758791157,0.38044542329052583,0.5897917959856603,0.2957148769204815
663,37.601,37.24,1.0,0.5041720791161882,0.6281227415809127,0.6035963130025461,0.3773366083899891,0.5858178812181735,0.2928054182793536
664,37.641,37.3,0.95,0.5031896702752062,0.6222094100502576,0.6004438878578914,0.37432130437828703,0.5818359010280575,0.28991980262832556
665,37.702,37.35,0.92,0.5021637610820893,0.6162520904150497,0.5973017358973671,0.37140002043493153,0.5778477830111834,0.2870584364178474
666,37.786,37.41,0.94,0.5010959557833213,0.6102527343331667,0.594171168691145,0.36857316003774554,0.5738554467062797,0.2842216988403013
667,37.806,37.46,0.93,0.49998789406867344,0.6042133304767117,0.5910534738727244,0.3658410206879512,0.569860802625092,0.28140994188367513
668,37.889,37.52,0.91,0.49884124968074267,0.5981359037742794,0.5879499151223823,0.3632037937588608,0.5658657512993776,0.27862349041161977
669,37.91,37.57,0.92,0.4976577289889155,0.5920225146057833,0.5848617321874234,0.36066156446811687,0.5618721823445607,0.275862642269051
670,37.951,37.63,0.93,0.4964390695283429,0.5858752579492073,0.5817901409378806,0.3582143119731694,0.5578819735398253,0.273127668412371
671,38.012,37.68,0.92,0.49518703850449414,0.5796962624786891,0.5787363334562745,0.3558619095895675,0.5538969899244023,0.2704188130633864
672,38.075,37.74,0.92,0.49390343126386355,0.5734876896134116,0.5757014781600752,0.3536041251316604,0.5499190829098175,0.26773629388607784
673,38.138,37.79,0.93,0.4925900697314658,0.5672517325168499,0.5726867199555278,0.3514406213753844,0.5459500894078784,0.2650803021854585
674,38.178,37.85,0.9,0.4912488008158878,0.5609906150459625,0.5696931804215469,0.34937095664281587,0.5419918309742153,0.26245100312779
675,38.26,37.9,0.87,0.48988149478282783,0.5547065906499289,0.5667219580224181,0.3473945855080048,0.5380461129672225,0.25984853598140134
676,38.281,37.96,0.86,0.48849004359819886,0.5484019412180645,0.5637741283480576,0.34551085962328737,0.5341147237222645,0.2572730143772946
677,38.342,38.01,0.84,0.487076359241977,0.5420789758766024,0.5608507443805875,0.3437190286648332,0.5301994337410121,0.2547245265886617
678,38.425,38.07,0.8,0.48564237199405164,0.5357400297341117,0.5579528367859474,0.3420182413957536,0.5263019948957252,0.2522031358284273
679,38.445,38.12,0.82,0.48419002869336975,0.5293874625754567,0.5550814142291877,0.34040754684481833,0.5224241396482247,0.24970888056395713
680,38.507,38.18,0.83,0.4827212909717007,0.5230236575043636,0.5522374637119742,0.338885895598752,0.5185675802832065,0.2472417748481071
681,38.632,38.23,0.83,0.4812381334633774,0.5166510195348785,0.5494219509307007,0.33745214120613404,0.51473400815547,0.24480180866584342
682,38.652,38.29,0.83,0.4797425419924307,0.5102719741322252,0.5466358206534765,0.3361050416910827,0.5109250929505849,0.24238894829574809
683,38.672,38.34,0.85,0.4782365117385986,0.5038889657038236,0.5438799971141673,0.3348432611750272,0.507142481958533,0.2400031366858093
684,38.734,38.4,0.84,0.4767220453837844,0.4975044560414284,0.5411553844216449,0.33366537160483123,0.5033877993599126,0.23764429384296273
685,38.775,38.45,0.83,0.4752011512406317,0.4911209227155155,0.5384628669824374,0.33256985458529736,0.4996626455243688,0.23531231723589105
686,38.837,38.51,0.83,0.4736758413649573,0.484740857423119,0.5358033099350161,0.3315551033137829,0.49596859632099466,0.2330070822105754
687,38.9,38.56,0.82,0.4721481296538254,0.4783667642903543,0.5331775595939743,0.33061942461435495,0.49230720244051174,0.23072844241806315
688,39.0,38.62,0.78,0.470620029931068,0.472001158130845,0.5305864439023493,0.32976104106868065,0.48867998872908214,0.22847623025391742
689,39.022,38.67,0.78,0.4690935540220461,0.46564656266125665,0.5280307728902821,0.3289780932407859,0.48508845353363583,0.2262502573088731
690,39.065,38.73,0.75,0.4675707098194498,0.4593055086751383,0.5255113391381253,0.3282686419929054,0.4815340680585918,0.22405031483029947
691,39.106,38.78,0.71,0.46605349934193047,0.4529805321762992,0.5230289182420366,0.3276306708897905,0.4780182757338402,0.22187617419412914
692,39.168,38.84,0.7,0.46454391678735113,0.44667417247298363,0.5205842692800071,0.32706208868898506,0.47454249159379525,0.21972758738693712
693,39.233,38.89,0.72,0.4630439465824241,0.4403889702341445,0.518178135276199,0.32656073191464596,0.47110810166726247,0.21760428749782113
694,39.273,38.95,0.71,0.46155556143049925,0.4341274655091388,0.5158112436614015,0.32612436751239815,0.4677164623777835,0.21550598921966993
695,39.355,39.0,0.7,0.4600807203592819,0.4278921957121755,0.5134843067273609,0.3257506955825173,0.4643688999540554,0.21343238935934541
696,39.375,39.06,0.72,0.4586213667702929,0.42168569357285796,0.5111980220726915,0.32543735218856806,0.46106670984999276,0.21138316735627835
697,39.437,39.11,0.72,0.4571794264919471,0.41551048505417565,0.5089530730380055,0.325181912238548,0.45781115617401835,0.20935798580901502
698,39.5,39.17,0.71,0.4557568058382133,0.40936908723932314,0.5067501291278558,0.3249818924355718,0.45460347112721305,0.20735649100940184
699,39.542,39.22,0.72,0.4543553896749275,0.4032640061887547,0.5045898464170846,0.3248347542951602,0.45144485445001903,0.20537831348433272
700,39.603,39.28,0.73,0.45297703949593243,0.3971977347689614,0.5024728679392378,0.32473790722625073,0.4483364728772547,0.2034230685452368
701,39.666,39.33,0.71,0.45162359151129544,0.39117275045457606,0.5003998240548212,0.324688711673115,0.44527945960127774,0.20149035684570554
702,39.746,39.39,0.69,0.45029685474990166,0.38519151310557986,0.49837133279729773,0.3246844823155086,0.4422749137431966,0.1995797649478279
703,39.767,39.44,0.69,0.4489986091787598,0.3792564627215781,0.49638800019483953,0.32472249132453507,0.43932389983210485,0.1976908658979257
704,39.831,39.5,0.64,0.44773060384141505,0.3733700171752834,0.49445042056596605,0.32479997167173646,0.436427447292351,0.19582321981246373
705,39.871,39.55,0.63,0.4464945550179429,0.36753456992751793,0.4925591767873101,0.3249141204887379,0.43358654993888207,0.1939763744749572
706,39.934,39.61,0.65,0.4452921444090701,0.3617524877262031,0.49071484053185604,0.32506210247440726,0.4308021654806828,0.19214986594466443
707,39.996,39.66,0.66,0.44412501734703397,0.35602610829196546,0.4889179724760904,0.3252410533459569,0.4280752150323027,0.19034321917769342
708,40.099,39.72,0.65,0.44299478103584355,0.3503577379931375,0.48716912247460253,0.3254480833298528,0.42540658263344,0.18855594866089637
709,40.12,39.77,0.67,0.4419030028236382,0.34474964951309606,0.48546882970074196,0.32568028068796245,0.42279711477655985,0.18678755905862432
710,40.182,39.83,0.69,0.4408512085098599,0.3392040795130621,0.48381762275202467,0.3259347152741505,0.4202476199425897,0.18503754587213855
711,40.223,39.88,0.67,0.4398408806899533,0.33372322629369117,0.48221601971909345,0.3262084421164358,0.41775886814482693,0.18330539611129226
712,40.285,39.94,0.66,0.43887345714029813,0.3283092474589996,0.48066452821720745,0.32649850501982475,0.4153315904813097,0.18159058897800387
713,40.326,39.99,0.68,0.4379503292460549,0.32296425758638736,0.47916364537942674,0.32680194018498443,0.4129664786960186,0.17989259656098652
714,40.389,40.05,0.66,0.4370728404746059,0.31769032590672064,0.47771385781086373,0.3271157798378753,0.4106641847493871,0.17821088454113465
715,40.471,40.1,0.62,0.43624228489726713,0.31248947399861504,0.4763156415035824,0.32743705586526967,0.4084253203986874,0.17654491290688873
716,40.492,40.16,0.62,0.4354599057619582,0.30736367350121435,0.4749694617119047,0.32776280345079695,0.40625045678893285,0.17489413667877482
717,40.533,40.21,0.59,0.4347268941195018,0.3023148438498901,0.47367577278803524,0.3280900647058209,0.4041401240549784,0.1732580066421541
718,40.596,40.27,0.55,0.4340443875061821,0.29734485003939576,0.4724350179780344,0.3284158922891721,0.4020948109355182,0.1716359700870628
719,40.659,40.32,0.56,0.4334134686850753,0.2924555004190898,0.47124762917822866,0.3287373530096301,0.4001149643996568,0.17002747155389045
720,40.7,40.38,0.57,0.4328351644484923,0.2876485445248995,0.4701140266521876,0.3290515314051024,0.3982009892866974,0.16843195358352242
721,40.762,40.43,0.56,0.4323104444836904,0.2829256709527241,0.46903461870842855,0.32935553329260786,0.3963532479597455,0.16684885747048517
722,40.823,40.49,0.55,0.4318402203038457,0.2782885052779938,0.4680098013390694,0.32964648928342477,0.39457205997370853,0.1652776240176016
723,40.885,40.54,0.57,0.4314253442461683,0.2737386080261252,0.4670399578197291,0.3299215582580362,0.39285770175828644,0.16371769429066924
724,40.948,40.6,0.56,0.4310666085390129,0.2692774726986552,0.4661254582711336,0.3301779307956744,0.3912104063165953,0.1621685103716984
725,40.989,40.65,0.54,0.4307647444398677,0.26490652385991553,0.4652666591830761,0.3304128325532911,0.38963036294013564,0.16062951610927909
726,41.03,40.71,0.55,0.43052042144615676,0.26062711528924276,0.46446390290159423,0.33062352758871366,0.388117716940877,0.15910015786467327
727,41.09,40.76,0.54,0.43033424658083946,0.2564405282038821,0.46371751708042896,0.3308073216226522,0.38667256940129946,0.1575798852522613
728,41.215,40.82,0.5,0.4302067637548092,0.252347969557895,0.46302781409800164,0.33096156523419723,0.385294976943279,0.15606815187303574
729,41.234,40.87,0.48,0.43013845320806865,0.2483505704224938,0.462395090441265,0.3310836569846061,0.3839849515167394,0.1545644160399181
730,41.276,40.93,0.46,0.43012973103159374,0.2444493844532964,0.46181962605786003,0.3311710464644975,0.3827424602090079,0.1530681414937364
731,41.338,40.98,0.44,0.43018094877169877,0.240645386450029,0.4613016836780581,0.33122123725996105,0.3815674250757981,0.1515787981087581
732,41.358,41.04,0.44,0.43029239311857814,0.23693947101418555,0.4608415081079862,0.33123178983350515,0.38045972299469877,0.15009586258671526
733,41.421,41.09,0.48,0.430464285680541,0.23333245131007782,0.4604393254956315,0.3312003243161691,0.3794191855419873,0.14861881913825906
734,41.484,41.15,0.49,0.43069678284527924,0.22982505793455157,0.4600953425711506,0.33112452320742375,0.3784455988935506,0.1471471601507289
735,41.566,41.2,0.5,0.43098997572932635,0.22641793790038392,0.45980974586307,0.3310021339796925,0.3775387037507019,0.14568038684106988
736,41.607,41.26,0.54,0.43134389021669584,0.22311165373802758,0.4595827008921127,0.3308309715844739,0.3766981952917487,0.14421800989271719
737,41.647,41.31,0.55,0.4317584870875417,0.21990668271996638,0.4594143513446204,0.3306089208571624,0.37592372315029854,0.14275955007531899
738,41.688,41.37,0.53,0.43223366223755183,0.21680341621152058,0.45930481822785596,0.33033393881777523,0.37521489142145314,0.14130453884630947
739,41.75,41.42,0.53,0.43276924698861935,0.21380215915151524,0.4592541990098104,0.3300040568650182,0.37457125869721525,0.13985251893355635
740,41.814,41.48,0.49,0.43336500849113685,0.21090312966578903,0.4592625667464553,0.3296173828614769,0.373992338132602,0.13840304489854194
741,41.873,41.53,0.45,0.43402065021802233,0.20810645881607484,0.45932996919967173,0.32917210310811673,0.37347759754407883,0.1369556836797666
742,41.936,41.59,0.41,0.4347358125503451,0.20541219048632367,0.45945642794930724,0.32866648420671224,0.373026459541996,0.13551001511627667
743,41.978,41.64,0.38,0.4355100734541602,0.2028202814080771,0.4596419375029664,0.3280988748092467,0.3726383016986965,0.1340656324513932
744,42.039,41.7,0.32,0.43634294924790834,0.20033060132599897,0.45988646440722164,0.3274677072536638,0.372312456753889,0.13262214281685317
745,42.102,41.75,0.29,0.43723389545947255,0.19794293330414642,0.4601899463639425,0.32677149908554276,0.3720482128587416,0.13117916769765836
746,42.144,41.81,0.3,0.4381823077717199,0.19565697417299724,0.4605522913553731,0.326008854465319,0.3718448138599838,0.12973634337793336
747,42.206,41.86,0.3,0.43918752305507996,0.19347233511666037,0.46097337678148875,0.3251784654605749,0.37170145962511314,0.12829332136804014
748,42.307,41.92,0.28,0.44024882048543695,0.1913885423991102,0.46145304861304737,0.3242791132227737,0.37161730640962715,0.12684976881312224
749,42.329,41.97,0.28,0.44136542274530915,0.18940503822771781,0.46199112056365055,0.32330966904776126,0.37159146726706976,0.12540536888319395
750,42.369,42.03,0.28,0.44253649730598726,0.18752118175183546,0.4625873732840682,0.32226909531947556,0.37162301250261115,0.12395982114486762
751,42.43,42.08,0.25,0.44376115778801656,0.1857362501937271,0.46324155358206315,0.3211564463365061,0.371710970170846,0.12251284191485581
752,42.471,42.14,0.23,0.445038465397168,0.18404944010874044,0.46395337367096157,0.3199708690213955,0.3718543266184694,0.12106416459547643
753,42.533,42.19,0.23,0.44636743043284116,0.18245986877127787,0.4647225104502374,0.31871160351279054,0.3720520270724584,0.11961353999246196
754,42.574,42.25,0.2,0.4477470138657001,0.18096657568284266,0.46554860482141663,0.3173779836406428,0.37230297627433107,0.11816073661539567
755,42.657,42.3,0.16,0.44917612898122883,0.17956852419818428,0.4664312610426144,0.31596943728468496,0.37260603916097906,0.11670554096107516
756,42.679,42.36,0.14,0.4506536430858074,0.1782646032653429,0.46737004612493577,0.31448548661656195,0.37296004159246543,0.11524775778003984
757,42.74,42.41,0.1,0.4521783792718424,0.17705362927518614,0.4683644892737801,0.31292574822636576,0.3733637711270619,0.1137872103264102
758,42.822,42.47,0.07,0.4537491182384257,0.175934348015851,0.46941408137781926,0.3112899331348276,0.37381597784364234,0.11232374059111383
759,42.842,42.52,0.07,0.4553646001639335,0.17490543672735812,0.47051827454811496,0.30957784669289007,0.3743153752113684,0.11085720951853899
760,42.904,42.58,0.09,0.4570235266269401,0.1739655062515455,0.4716764817095589,0.30778938837071146,0.37486064100639804,0.1093874972066533
761,42.966,42.63,0.1,0.4587245625718025,0.1731131032723844,0.47288807624658075,0.30592455143833175,0.37545041827515097,0.1079145030906514
762,43.049,42.69,0.09,0.4604663383152854,0.17234671264167528,0.4741523917048787,0.303983422540322,0.3760833163435078,0.10643814611022416
763,43.07,42.74,0.1,0.4622474515906225,0.17166475978507764,0.4754687215508041,0.30196618116677404,0.376757911871226,0.10495836486052655
764,43.132,42.8,0.09,0.4640664696254414,0.17106561318339072,0.47683631898997497,0.29987309902290976,0.3774727499508124,0.10347511772684187
765,43.174,42.85,0.07,0.46592193125000125,0.17054758692395217,0.4782543968466488,0.29770453929944546,0.3782263452500631,0.10198838300282378
766,43.236,42.91,0.08,0.4678123490322141,0.17010894331696355,0.4797221275053253,0.2954609558456905,0.37901718319743993,0.10049815899206263
767,43.298,42.96,0.07,0.4697362114359337,0.16974789557147593,0.48123864291595253,0.2931428922472146,0.3798437212093946,0.09900446409259196
768,43.34,43.02,0.04,0.4716919849990199,0.16946261052568276,0.48280303466397634,0.2907509808098284,0.38070438995866646,0.09750733686385078
769,43.404,43.07,0.02,0.47367811652767977,0.16925121142610192,0.4844143541062972,0.28828594145167274,0.38159759468248144,0.09600683607555589
770,43.464,43.13,0.01,0.475693035303579,0.16911178075019498,0.48607161257398934,0.28574858050539453,0.38252171652946654,0.09450304073790568
771,43.546,43.18,-0.01,0.47773515530017996,0.16904236306696774,0.4877737816424142,0.2831397894326325,0.38347511394394784,0.09299605011254472
772,43.567,43.24,-0.0,0.47980287740473937,0.16904096793012957,0.48951979346912505,0.2804605434533093,0.38445612408614016,0.09148598370374741
773,43.61,43.29,0.02,0.48189459164235454,0.16910557279844723,0.49130854119971124,0.27771190009246327,0.3854630642865559,0.08997298122928245
774,43.672,43.35,0.02,0.4840086793984253,0.1692341259779956,0.4931388794414899,0.2748949976474599,0.3864942335328051,0.08845720257038762
775,43.798,43.4,0.03,0.48614351563589064,0.16942454958105668,0.4950096248047362,0.272011053578378,0.3875479139868334,0.08693882770025797
776,43.819,43.46,0.06,0.48829747110362665,0.16967474249645995,0.49691955651097225,0.26906136282419296,0.3886223725305702,0.08541805659047086
777,43.861,43.51,0.07,0.49046891453243674,0.16998258336617733,0.49886741706773396,0.2660472960470809,0.3897158623379182,0.08389510909486947
778,43.902,43.57,0.07,0.49265621481513105,0.1703459335630249,0.5008519130091822,0.26297029780686304,0.3908266244709942,0.08237022481059289
779,43.965,43.62,0.09,0.4948577431672545,0.17076264016438697,0.5028717157018622,0.2598318846674739,0.3919528894985263,0.08084366291611692
780,44.028,43.68,0.1,0.49707187526508934,0.17123053891696885,0.5049254622148561,0.2566336432374331,0.39309287913432306,0.079315701986321
781,44.131,43.73,0.09,0.4992969933576218,0.1717474571877079,0.5070117562534956,0.2533772281465552,0.39424480789373106,0.07778663978476368
782,44.171,43.79,0.08,0.5015314883492324,0.1723112168961189,0.5091291691557226,0.25006435996147364,0.39540688476599634,0.07625679303355239
783,44.193,43.84,0.09,0.503773761849929,0.17291963742351055,0.5112762409501013,0.24669682304287646,0.3965773149004143,0.07472649716137982
784,44.233,43.9,0.09,0.5060222281900312,0.1735705384946683,0.513451481474377,0.2432764633475377,0.39775430130410416,0.07319610603039554
785,44.295,43.95,0.1,0.5082753163963405,0.1742617430277458,0.5156533715533489,0.23980518617827581,0.39893604654917914,0.07166599164258838
786,44.356,44.01,0.15,0.5105314721269667,0.17499107994824317,0.5178803642346342,0.23628495388496776,0.40012075448700524,0.07013654382631851
787,44.398,44.06,0.18,0.5127891595621542,0.17575638696307702,0.5201308860807128,0.23271778351974118,0.40130663196719146,0.06860816990364256
788,44.522,44.12,0.19,0.5150468632486027,0.17655551329088723,0.5224033385154645,0.22910574444948412,0.40249189055893075,0.06708129433915702
789,44.544,44.17,0.22,0.5173030898949122,0.17738632234489687,0.5246960992232803,0.22545095592892023,0.40367474827235356,0.0655563583711994
790,44.585,44.23,0.28,0.5195563701159035,0.17824669436484641,0.5270075235987323,0.22175558463766779,0.4048534312776385,0.0640338196263462
791,44.606,44.28,0.26,0.5218052601236818,0.17913452899475754,0.5293359462447548,0.2180218421848891,0.40602617561973686,0.06251415171823117
792,44.668,44.34,0.26,0.5240483433634449,0.18004774780351557,0.5316796825172587,0.2142519825853378,0.4071912289266853,0.06099784383176085
793,44.73,44.39,0.27,0.5262842320921762,0.18098429674548813,0.5340370301140711,0.2104482997108166,0.40834685210959976,0.05948540029377274
794,44.771,44.45,0.25,0.5285115688985207,0.18194214855858626,0.5364062707060517,0.20661312472116375,0.4094913210525245,0.05797734013108609
795,44.875,44.5,0.21,0.5307290281622935,0.1829193050973311,0.5387856716081608,0.20274882347884932,0.4106229282903426,0.05647419661680884
796,44.895,44.56,0.22,0.5329353174522068,0.18391379959860527,0.5411734874881299,0.19885779395108263,0.41173998467293604,0.05497651680568278
797,44.936,44.61,0.24,0.535129178860521,0.18492369887785617,0.5435679621102353,0.19494246360304712,0.41284082101371433,0.05348486105913418
798,44.998,44.67,0.25,0.5373093902734067,0.1859471054535668,0.545967330111487,0.1910052867856063,0.4139237897205411,0.0519998025605555
799,45.081,44.72,0.29,0.5394747665758513,0.18698215959783404,0.5483698188073384,0.18704874212072836,0.41498726640698996,0.05052192682119929
800,45.1,44.78,0.31,0.5416241607899669,0.188027041310908,0.5507736500238513,0.18307532988794006,0.4160296514818154,0.049051831176946115
801,45.162,44.83,0.32,0.5437564651455912,0.1890799722175572,0.5531770419531492,0.17908756941523393,0.41704937171453094,0.047590124276162216
802,45.245,44.89,0.34,0.5458706120820979,0.19013921738315936,0.5555782110289688,0.17508799647795642,0.418044881775055,0.04613742555892949
803,45.266,44.94,0.38,0.5479655751804134,0.19120308704747266,0.5579753738191593,0.1710791607092776,0.41901466574548335,0.04469436472809355
804,45.326,45.0,0.38,0.5500403700243286,0.19226993827411495,0.5603667489320558,0.16706362302583191,0.41995723860214823,0.04326158121277917
805,45.388,45.05,0.37,0.5520940549903257,0.1933381765138682,0.5627505589337287,0.16304395307199857,0.4208711476662355,0.041839723625193594
806,45.45,45.11,0.38,0.554125731965264,0.19440625708001882,0.5651250322731634,0.15902272668611012,0.4217549740213266,0.04042944921163721
807,45.491,45.16,0.37,0.5561345469913853,0.1954726865340511,0.5674884052124158,0.15500252339168513,0.4226073338963217,0.03903142329868268
808,45.553,45.22,0.34,0.5581196908381727,0.19653602398011466,0.5698389237587166,0.15098592391667376,0.42342688001224527,0.03764631873552535
809,45.614,45.27,0.36,0.5600803995006577,0.1975948822668005,0.5721748455953463,0.14697550774380166,0.42421230289144257,0.03627481533355035
810,45.677,45.33,0.39,0.562015954623799,0.19864792909487522,0.5744944420079348,0.14297385069534918,0.4249623321276496,0.03491759930416863
811,45.741,45.38,0.41,0.5639256838526231,0.19969388802974347,0.5767959998027056,0.13898352255594537,0.42567573761537947,0.03357536269594251
812,45.761,45.44,0.43,0.5658089611078743,0.200731539417541,0.5790778232131083,0.1350070847371289,0.4263513307370546,0.03224880283197369
813,45.824,45.49,0.47,0.5676652067870154,0.2017597212039139,0.5813382357912662,0.1310470879874955,0.4269879655063489,0.030938621748472096
814,45.885,45.55,0.47,0.5694938878905086,0.2027773296547034,0.5835755822807278,0.12710607015217926,0.4275845396662888,0.02964552563538858
815,45.989,45.6,0.47,0.5712945180734313,0.20378331997790916,0.5857882304671066,0.12318655398516215,0.4281399957407895,0.02837022427998698
816,46.01,45.66,0.51,0.5730666576226107,0.20477670684643995,0.5879745730033535,0.1192910450174097,0.42865332203842627,0.027113430514242837
817,46.03,45.71,0.52,0.5748099133596141,0.20575656482127005,0.590133029206593,0.11542202948301471,0.42912355360737187,0.025875859666984885
818,46.093,45.77,0.5,0.5765239384700919,0.20672202867472728,0.5922620468236633,0.11158197230462032,0.42954977314053316,0.024658229021741414
819,46.155,45.82,0.5,0.5782084322601095,0.20767229361376224,0.5943601037626459,0.10777331513877896,0.42993111183002536,0.02346125728128744
820,46.216,45.88,0.49,0.5798631398402352,0.20860661540320524,0.5964257097877473,0.10399847448170783,0.43026675017020993,0.02228566403988082
821,46.257,45.93,0.47,0.5814878517382706,0.20952431038919228,0.5984574081749381,0.10025983983591792,0.43055591870858506,0.02113216926415296
822,46.339,45.99,0.48,0.5830824034416289,0.21042475542312347,0.6004537773257791,0.09655977193824818,0.4307978987438296,0.020001492783588065
823,46.401,46.04,0.51,0.5846466748704754,0.21130738768671184,0.6024134323368764,0.09290060104982671,0.43099202297028233,0.01889435379144278
824,46.422,46.1,0.52,0.5861805897828606,0.21217170441888664,0.6043350265224271,0.08928462530831394,0.43113767606811215,0.017811470356796213
825,46.482,46.15,0.53,0.587684115113185,0.21301726254554698,0.606217252887364,0.0857141091424419,0.43123429523843954,0.01675355894819258
826,46.543,46.21,0.56,0.5891572602454481,0.2138436782134122,0.6080588455486803,0.08219128174841771,0.4312813706827211,0.015721333969071504
827,46.585,46.26,0.58,0.5906000762228578,0.2146506262294599,0.6098585811026556,0.07871833562723406,0.4312784460258134,0.014715507304926056
828,46.645,46.32,0.57,0.5920126548955098,0.21543783940768227,0.6116152799358823,0.07529742518140352,0.4312251186822543,0.013736787881933337
829,46.748,46.37,0.58,0.5933951280079685,0.21620510782513225,0.6133278074781792,0.07193066536926017,0.43112104016543623,0.012785881236656853
830,46.768,46.43,0.58,0.5947476662286663,0.21695227798948075,0.6149950753956538,0.06862013041481127,0.43096591633946707,0.01186348909631007
831,46.809,46.48,0.56,0.5960704781230982,0.2176792519205447,0.6166160427223573,0.06536785257112109,0.43075950761362886,0.010970308969009327
832,46.873,46.54,0.54,0.5973638090728174,0.218385986148452,0.6181897169291471,0.062175820935303806,0.43050162907941475,0.010107033743429085
833,46.956,46.59,0.53,0.5986279401422696,0.21907249063126308,0.6197151549285463,0.05904598031334572,0.43019215059017657,0.009274351297249149
834,46.976,46.65,0.52,0.5998631868955399,0.21973882759496652,0.6211914640145274,0.05598023013308349,0.4298309967834241,0.008472944113714867
835,47.079,46.7,0.52,0.6010698981651289,0.2203851102988304,0.62261780273624,0.052980423403725135,0.429418147045798,0.007703488905516531
836,47.1,46.76,0.56,0.6022484547749108,0.2210115017291266,0.6239933817047126,0.05004836572033892,0.42895363542069126,0.006966656245050042
837,47.142,46.81,0.58,0.603399268219468,0.22161821322425937,0.6253174643315458,0.04718581431174145,0.4284375504584767,0.006263110199982136
838,47.203,46.87,0.58,0.6045227793020475,0.2222055030343278,0.6265893674986144,0.04439447713024222,0.4278700350093088,0.005593507972965188
839,47.265,46.92,0.6,0.6056194567334343,0.22277367481815638,0.6278084621578298,0.04167601198185997,0.4272512859585499,0.0049584995443439075
840,47.306,46.98,0.61,0.6066897956940768,0.22332307608085633,0.6289741738601,0.03903202569590487,0.4265815539049937,0.004358727316766327
841,47.369,47.03,0.6,0.6077343163618425,0.22385409655503466,0.6300859832127711,0.036464073333163934,0.4258611427821944,0.003794825760758694
842,47.452,47.09,0.59,0.6087535624078076,0.22436716652884497,0.6311434262650014,0.033973657432314806,0.425090409423337,0.0032674210605203803
843,47.472,47.14,0.6,0.6097480994625124,0.2248627551241593,0.6321460948207033,0.031562227294588054,0.42426976307019765,0.0027771307593779954
844,47.514,47.2,0.57,0.610718513555166,0.22534136852820885,0.6330936366788735,0.029231178306977523,0.4233996648268323,0.002324563404495284
845,47.576,47.25,0.54,0.6116654095283367,0.22580354818208126,0.633985755801306,0.026981851304418256,0.42248062705868816,0.0019103181905812635
846,47.639,47.31,0.56,0.6125894094307306,0.22624986892948235,0.6348222124078058,0.024815531971353277,0.4215132127378619,0.0015349846024526816
847,47.722,47.36,0.56,0.613491150890705,0.22668093712917572,0.6356028229990961,0.02273345028301265,0.4204980347352261,0.0011991420563638648
848,47.743,47.42,0.56,0.6143712854732042,0.22709738873449703,0.6363274603076442,0.020736779986594303,0.4194357550601316,0.000903359540024167
849,47.805,47.47,0.59,0.6152304770228194,0.22749988734333879,0.636996053176631,0.018826638122482288,0.41832708404837826,0.0006481952511944585
850,47.868,47.53,0.61,0.6160693999956794,0.22788912222202393,0.6376085863673073,0.0170040845857138,0.41717277949917597,0.0004341962347140583
851,47.93,47.58,0.61,0.6168887377828591,0.22826580630653914,0.6381651002950499,0.015270121728070365,0.4159736457618908,0.00026189801780847094
852,48.034,47.64,0.61,0.6176891810279679,0.2286306741846797,0.6386656906945478,0.01362569400140793,0.4147305327734844,0.00013182424358799478
853,48.056,47.69,0.62,0.6184714259415519,0.22898448006273509,0.6391105082147175,0.0120716876430959,0.413444335047692,4.44863027342506e-05
854,48.096,47.75,0.61,0.6192361726149224,0.22932799572038515,0.6394997579441328,0.010608930404600498,0.4121159906171147,3.829634691360893e-07
855,48.182,47.8,0.6,0.6199841233360163,0.22966200845745624,0.6398336988679463,0.009238191324309659,0.4107464799295198,0.0
856,48.202,47.86,0.6,0.6207159809098763,0.22998731903611522,0.6401126432574348,0.007960180545698503,0.4093368246997362,4.380981969715434e-05
857,48.243,47.91,0.58,0.6214324469863198,0.23030473962197687,0.6403369559934138,0.006775549181889437,0.4078880867186007,0.00013227108924807667
858,48.306,47.97,0.53,0.6221342203973413,0.2306150917274964,0.6405070538248462,0.005684889227567929,0.40640136662046905,0.0002658283599534492
859,48.346,48.02,0.54,0.6228219955067537,0.23091920416093936,0.6406234045640133,0.004688733519102762,0.4048778026108225,0.0004449116922136387
860,48.408,48.08,0.55,0.6234964605745255,0.23121791098416383,0.6406865262196636,0.003787555743498445,0.40331856915550174,0.0006699362791341455
861,48.469,48.13,0.53,0.624158296138222,0.2315120494823983,0.6406969860695992,0.0029817704964222804,0.4017248756330642,0.0009413020690848746
862,48.55,48.19,0.54,0.6248081734138936,0.23180245814915054,0.640655399674221,0.002271733389132316,0.4000979649517305,0.0012593933869858834
863,48.572,48.24,0.56,0.6254467527186872,0.2320899746893477,0.640562429832588,0.0016577412038866995,0.39843911213238176,0.0016245785540590356
864,48.652,48.3,0.54,0.6260746819173829,0.2323754340437695,0.6404187854826144,0.0011400320973557524,0.3967496228591072,0.0020372095058265767
865,48.674,48.35,0.53,0.626692594894995,0.23265966643779473,0.64022522054709,0.0007187858515944288,0.39503083199886496,0.0024976214082716
866,48.736,48.41,0.55,0.6273011100575188,0.2329434954574134,0.6399825327272995,0.00039412417214972046,0.3932841020918921,0.0030061322722752825
867,48.798,48.46,0.55,0.627900828862861,0.23322773615536577,0.6396915622460949,0.00016611103279573543,0.3915108218145705,0.003563042566661191
868,48.841,48.52,0.52,0.628492334383938,0.2335131931901496,0.6393531905423571,3.4753066233380804e-05,0.3897124044165192,0.004168634830368944
869,48.923,48.57,0.51,0.6290761899058599,0.23380065900050293,0.6389683389188541,0.0,0.3878902861337464,0.0048231732844030255
870,48.963,48.63,0.48,0.6296529375590647,0.23409091201782734,0.6385379671455587,6.174513681246558e-05,0.3860459245797442,0.005526903444253012
871,49.005,48.68,0.43,0.6302230969902413,0.23438471491884855,0.6380630720205505,0.00021982587858379495,0.38418079711644504,0.0062800517335242344
872,49.068,48.74,0.41,0.6307871640728793,0.23468281292065216,0.6375446858906607,0.0004740242934354777,0.38229639920693653,0.007082825099602318
873,49.128,48.79,0.43,0.6313456096592649,0.234985932120096,0.6369838751339961,0.0008240677251886955,0.3803942427517749,0.007935410632272917
874,49.191,48.85,0.44,0.6318988783756992,0.23529477787950262,0.6363817386064288,0.001269629444979623,0.37847585441063314,0.008837975186300489
