,Time_Host,Time_Arduino,easingdata,CH1_Oxy,CH1_Deoxy,CH2_Oxy,CH2_Deoxy,CH3_Oxy,CH3_Deoxy
0,1.155,0.04,0.0,0.41879818177925004,0.5449165402861369,0.12846523253104847,0.0,0.061809217035946724,0.24781385561619995
1,1.176,0.1,0.0,0.4263464876790768,0.5406499660646916,0.1311872934820741,0.0029738622794479317,0.06725057143973448,0.2426579355570947
2,1.197,0.15,0.0,0.4338275821569794,0.5364363563733865,0.13386613704816086,0.005982863425253822,0.07262557766227053,0.23752431208542885
3,1.217,0.21,0.0,0.4412381664686982,0.5322774628611258,0.1365005161353533,0.00902559288549895,0.07793150406545916,0.23241483694346005
4,1.239,0.26,0.0,0.4485749956176946,0.5281749921673592,0.13908921771793747,0.012100611571962641,0.08316566711401988,0.22733133943857953
5,1.258,0.32,0.0,0.45583488121496574,0.5241306045724556,0.14163106384516558,0.01520645371557902,0.0883254339052674,0.222275625071
6,1.278,1.06,0.0,0.4630146942602214,0.5201459127199788,0.1441249126002848,0.018341628766433596,0.09340822463711183,0.21724947420443913
7,1.298,1.11,0.0,0.4701113678416626,0.5162224804116095,0.1465696590115017,0.021504623333132664,0.09841151501158954,0.21225464078048337
8,1.319,1.17,0.0,0.47712189975178504,0.5123618214752654,0.14896423591463243,0.024693903156180117,0.10333283857136963,0.20729285107717732
9,1.382,1.22,0.0,0.4840433550168163,0.5085653987067867,0.151307614767306,0.02790791510979568,0.10816978896681091,0.20236580251225048
10,1.444,1.28,-0.14,0.49087286833756655,0.5048346228853651,0.15359880641470194,0.03114508922640665,0.11292002215126762,0.1974751624912653
11,1.505,1.33,0.09,0.4976076464396494,0.5011708518627195,0.1558368618069008,0.03440384073786244,0.11758125850245059,0.19262256730086272
12,1.567,1.39,0.14,0.5042449703311992,0.4975753897258461,0.1580208726679739,0.037682572127349566,0.12215128486774103,0.18780962104721197
13,1.587,1.45,-0.11,0.5107821974663879,0.49404948603302995,0.1601499721168954,0.04097967518615818,0.126627956531446,0.18303789463974643
14,1.648,1.5,-0.02,0.517216763813213,0.4905943351227168,0.1622233352402606,0.0442935330699039,0.13100919910212067,0.17830892482025335
15,1.709,1.55,0.16,0.5235461858241995,0.48721107549479514,0.16424017961674478,0.047622522349356496,0.13529301031824506,0.17362421323736396
16,1.771,1.61,-0.05,0.5297680623088099,0.4839007892638176,0.1661997657932713,0.05096501505149362,0.13947746177067263,0.1689852255664785
17,1.854,1.66,-0.09,0.5358800762064503,0.4806645016836894,0.16810139771289226,0.05431938068678829,0.1435607005403516,0.16439339067515468
18,1.873,1.72,0.2,0.541879996259011,0.4775031807433412,0.1699444230943857,0.057683988259061555,0.14754095074990636,0.15985009983394538
19,1.934,1.77,0.15,0.5477656785819345,0.47441773683283317,0.1717282337635874,0.061057208254391794,0.15141651502775813,0.15535670597259843
20,1.974,1.83,-0.05,0.5535350681328632,0.47140902247922456,0.17345226593651267,0.06443741460558713,0.15518577588356014,0.15091452298144958
21,2.035,1.88,0.18,0.5591862000770148,0.46847783215140576,0.17511600045438258,0.06782298662873622,0.15884719699385882,0.14652482505776102
22,2.097,1.94,0.27,0.5647172010485693,0.46562490213293267,0.1767189629707702,0.07121231092841555,0.16239932439705654,0.14218884609669352
23,2.158,2.0,0.05,0.5701262903075558,0.4628509104617296,0.17826072409121269,0.07460378326829786,0.16584078759690227,0.1379077791265939
24,2.259,2.05,0.11,0.5754117807919541,0.4601564769353604,0.1797408994657268,0.07799581040424937,0.16917030057386997,0.13368277578831297
25,2.279,2.1,0.31,0.580572080064966,0.45754216318041885,0.18115914983473105,0.08138681187743958,0.17238666270392802,0.1295149458582943
26,2.319,2.16,0.14,0.5856056911576387,0.45500847278446827,0.18251518102897418,0.08477522176530848,0.17548875958433607,0.12540535681518006
27,2.36,2.21,0.06,0.5905112133071755,0.45255585148887045,0.1838087439241489,0.08815949038840577,0.1784755637662108,0.12135503344966755
28,2.443,2.27,0.35,0.5952873425913656,0.45018468744077783,0.18503963435089038,0.09153808597121536,0.18134613539370553,0.11736495751730712
29,2.484,2.33,0.35,0.5999328724596337,0.4478953115024649,0.1862076929608438,0.0949094962551166,0.1840996227497621,0.11343606743385722
30,2.525,2.38,0.14,0.6044466941612411,0.44568799761606853,0.1873128050494559,0.09827223006166004,0.18673526270849686,0.10956925801274262
31,2.608,2.43,0.35,0.6088277970711836,0.4435629632217377,0.18835490033611596,0.10162481880444926,0.18925238109442435,0.10576538024409231
32,2.669,2.49,0.42,0.6130752689143355,0.4415203697271656,0.18933395270226744,0.10496581794815033,0.1916503929488981,0.10202524111477687
33,2.71,2.54,0.21,0.6171882958884498,0.4395603230264821,0.19024997988812095,0.10829380841354128,0.19392880270431145,0.09834960346885235
34,2.751,2.6,0.26,0.6211661626867219,0.43768287406652356,0.1911030431485369,0.11160739792815473,0.1960872042667354,0.09473918590784865
35,2.812,2.65,0.48,0.6250082524207792,0.43588801945851724,0.19189324686855805,0.11490522232280106,0.1981252810077945,0.09119466273036875
36,2.854,2.71,0.29,0.6287140464451703,0.4341757021332083,0.19262073813905917,0.11818594677473185,0.20004280566668994,0.08771666391046581
37,2.913,2.77,0.21,0.6322831240846224,0.4325458120373969,0.1932857062930524,0.12144826699827949,0.20183964016336814,0.08430577511423694
38,2.975,2.82,0.43,0.6357151622655226,0.4309981868697732,0.1938883824032824,0.12469091038363808,0.20351573532393502,0.08096253775399796
39,3.037,2.87,0.41,0.6390099350532253,0.42953261285382277,0.19442903874184878,0.12791263708418102,0.20507113051951298,0.07768744907930412
40,3.078,2.93,0.16,0.642167313096918,0.4281488255454581,0.19490798820267802,0.13111224105247699,0.2065059532198098,0.07448096230400114
41,3.141,2.98,0.33,0.6451872629838709,0.42684651067295554,0.19532558368770156,0.1342885510250983,0.2078204184627404,0.07134348676843692
42,3.202,3.04,0.4,0.6480698465049652,0.4256253050067755,0.19568221745762196,0.13744043145638984,0.2090148282415181,0.06827538813593823
43,3.244,3.1,0.23,0.6508152198334424,0.42448479725693894,0.19597832044820201,0.14056678340144826,0.21008957081068866,0.06527698862268139
44,3.326,3.15,0.24,0.6534236326188179,0.42342452899583277,0.19621436155309166,0.1436665453485972,0.21104511991261116,0.062348567260155426
45,3.346,3.2,0.48,0.6558954269978925,0.4224439956045698,0.19639084687431235,0.14673869400160203,0.2118820339259372,0.05949036018946833
46,3.407,3.26,0.3,0.6582310365248089,0.4215426472412329,0.19650831894165127,0.14978224501172935,0.21260095493770298,0.056702560986760756
47,3.51,3.31,0.19,0.6604309850221365,0.42071988982945846,0.1965673559023222,0.1527962536595676,0.21320260774071526,0.05398532101897186
48,3.53,3.37,0.38,0.6624958853550404,0.4199750860658457,0.196568570682317,0.15577981548632666,0.21368779875800004,0.05133874982914911
49,3.571,3.42,0.36,0.6644264381306766,0.4193075564446431,0.19651261012094254,0.15873206687410044,0.21405741489616234,0.048762915550434105
50,3.653,3.48,0.11,0.6662234303250713,0.41871658029809167,0.19640015408011233,0.16165218557436875,0.21431242232954956,0.04625784534783025
51,3.716,3.54,0.25,0.6678877338398053,0.41820139685078084,0.19623191452999925,0.16453939118397254,0.21445386521713403,0.04382352588687063
52,3.757,3.59,0.37,0.6694203039908575,0.41776120628642793,0.19600863461267617,0.16739294556791187,0.21448286435405317,0.04145990382833723
53,3.818,3.64,0.21,0.6708221779319562,0.4173951708256158,0.1957310876853998,0.17021215322848196,0.21440061575975453,0.03916688634824003
54,3.879,3.7,0.19,0.672094473014771,0.4171024158131976,0.19540007634519593,0.17299636162045007,0.21420838920469473,0.036944341682323155
55,3.9,3.75,0.43,0.6732383850882736,0.4168820308142499,0.19501643143636727,0.17574496141213491,0.21390752667758653,0.03479209969437843
56,3.962,3.81,0.29,0.674255186739635,0.4167330707175532,0.1945810110425311,0.17845738669225247,0.21349944079525343,0.03270995246760704
57,4.023,3.87,0.14,0.6751462254790969,0.4166545568456129,0.194094699464799,0.18113311512223101,0.21298561315722525,0.03069765491820801
58,4.063,3.92,0.29,0.6759129218713263,0.41664547807019736,0.1935584061877176,0.18377166803349174,0.21236759264728228,0.02875492543030415
59,4.126,3.98,0.28,0.6765567676158605,0.4167047919323033,0.1929730648346198,0.18637261046902667,0.21164699368422712,0.026881446511264707
60,4.187,4.03,0.07,0.6770793235793349,0.416831425765373,0.1923396321140577,0.18893555116859695,0.21082549442418244,0.02507686546648841
61,4.248,4.08,0.16,0.6774822177822751,0.4170242778205591,0.19165908675895016,0.19146014249715437,0.20990483491670078,0.023340795092765945
62,4.29,4.14,0.31,0.6777671433432596,0.4172822183928654,0.1909324284600017,0.19394608031654015,0.2088868152169578,0.021672814389410412
63,4.351,4.2,0.09,0.6779358563832705,0.41760409094708023,0.19016067679490922,0.19639310380087635,0.2077732934562806,0.020072469286413964
64,4.433,4.25,0.03,0.6779901738930048,0.4179887132425434,0.18934487015484602,0.19880099519623656,0.20656618387324868,0.018539273388942585
65,4.453,4.3,0.25,0.6779319715658506,0.4184348784559,0.18848606466967655,0.2011695795251757,0.20526745480761457,0.017072708737486557
66,4.515,4.36,0.19,0.6777631815992358,0.4189413563010308,0.18758533313335263,0.20349872423651827,0.2038791266593051,0.015672226582954307
67,4.576,4.41,-0.02,0.6774857904671018,0.4195068941453316,0.18664376393096035,0.20578833880053152,0.20240326981475742,0.014337248175970298
68,4.617,4.47,0.18,0.6771018366663343,0.4201302181214801,0.1856624599688999,0.20803837424941674,0.2008420025428556,0.013067165569616587
69,4.679,4.53,0.23,0.6766134084400839,0.42081003423379176,0.18464253760967902,0.2102488226630241,0.19919748886276975,0.011861342434845696
70,4.742,4.58,0.06,0.6760226414810203,0.42154502945822453,0.18358512561273072,0.21241971659996178,0.19747193638602553,0.010719114887809942
71,4.823,4.63,0.06,0.6753317166176441,0.42233387283509877,0.18249136408246588,0.21455112847492602,0.19566759413515944,0.009639792328382786
72,4.865,4.69,0.25,0.6745428574868158,0.4231752165536597,0.18136240342452012,0.21664316988389584,0.1937867503413625,0.008622658289142862
73,4.907,4.75,0.06,0.6736583281956195,0.42406769702772157,0.18019940331100473,0.21869599087934605,0.1918317302235655,0.0076669712940438265
74,4.99,4.8,-0.06,0.6726804309755632,0.4250099359617636,0.17900353165553126,0.22070977919769513,0.1898048937514473,0.006771965725924829
75,5.01,4.86,0.15,0.6716115038319695,0.42600054140696464,0.17777596359876635,0.22268475944101698,0.18770863339486898,0.0059368527019298305
76,5.071,4.91,0.13,0.6704539181913065,0.42703810880669135,0.17651788050524836,0.22462119221482044,0.18554537186224535,0.005160820955825756
77,5.111,4.96,-0.17,0.6692100765491213,0.42812122203094644,0.17523046897215627,0.2265193732235589,0.18331755983034628,0.004443037726176537
78,5.174,5.02,-0.0,0.6678824101211626,0.4292484543993013,0.17391491985066065,0.22837963232554606,0.18102767366800998,0.0037826496493408987
79,5.236,5.08,0.06,0.6664733765001681,0.4304183696919198,0.172572427280458,0.2302023325490765,0.17867821315624755,0.0031787836563049103
80,5.297,5.13,-0.1,0.6649854573206866,0.43162952314841424,0.17120418773807675,0.2319878690717633,0.17627169920719138,0.002630547872447817
81,5.338,5.18,-0.15,0.6634211559341964,0.4328804624544384,0.1698113990994623,0.23373666816546892,0.17381067158428976,0.0021370325194413667
82,5.399,5.24,0.06,0.6617829950966807,0.43416972871607823,0.16839525971720717,0.2354491861096148,0.17129768662612654,0.001697310818529719
83,5.461,5.29,-0.13,0.6600735146707548,0.4354958574221992,0.16695696751269445,0.2371259080758495,0.16873531497624378,0.001310439894410753
84,5.542,5.35,-0.26,0.6582952693443658,0.43685737939492875,0.1654977190834,0.23876734698693794,0.16612613932133735,0.000975461678876291
85,5.563,5.41,-0.09,0.6564508263680503,0.43825282172840324,0.16401870882562253,0.2403740423524408,0.1634727521401888,0.0006914038132918145
86,5.604,5.46,-0.09,0.6545427633127293,0.43968070871578635,0.16252112807297758,0.24194655908339063,0.1607777534656813,0.00045728054893726713
87,5.666,5.51,-0.35,0.6525736658500374,0.4411395627644419,0.1610061642510747,0.24348548628784378,0.15804374866220516,0.00027209364422637494
88,5.727,5.57,-0.28,0.6505461255571862,0.44262790529907764,0.1594750000488529,0.24499143604901322,0.15527334622071037,0.00013483325786456526
89,5.768,5.62,-0.16,0.6484627377483262,0.4441442576526833,0.157928812607089,0.2464650421876609,0.15246915557362792,4.447883706338279e-05
90,5.829,5.68,-0.39,0.6463260993343144,0.4456871419451476,0.15636877272461147,0.24790695901048693,0.14963378493182666,0.0
91,5.91,5.74,-0.47,0.6441388067126866,0.44725508194955127,0.1547960440826932,0.24931786004640633,0.14676983914569455,3.574117800942993e-07
92,5.931,5.79,-0.28,0.6419034536894974,0.4488466039462613,0.15321178248796344,0.25069843677280446,0.14387991759236374,4.4503653193396206e-05
93,5.992,5.84,-0.37,0.6396226294345345,0.45046023756506354,0.15161713513405922,0.252049397333921,0.14096661209102734,0.00013138408154633342
94,6.054,5.9,-0.6,0.6372989164712383,0.4520945166156497,0.15001323988216295,0.25337146525340376,0.1380325048482045,0.000259937682847965
95,6.116,5.95,-0.43,0.6349348887024775,0.45374797990682064,0.14840122456051902,0.2546653781429105,0.13508016643472961,0.0004290979146173483
96,6.178,6.01,-0.41,0.6325331094732054,0.4554191720547456,0.14678220628299285,0.2559318864085189,0.1321121537961763,0.0006377935385793381
97,6.28,6.07,-0.63,0.6300961296709773,0.45710664428053877,0.14515729078670636,0.25717175195671177,0.12913100829834975,0.0008849494425544723
98,6.3,6.12,-0.59,0.6276264858653212,0.45880895519733234,0.14352757178870634,0.25838574690195387,0.12613925380939475,0.0011694874509243427
99,6.341,6.17,-0.44,0.6251266984869801,0.46052467158695143,0.14189413036154805,0.25957465227822607,0.12313939481999991,0.0014903271231242932
100,6.382,6.23,-0.65,0.6225992700480703,0.46225236916626095,0.14025803432769057,0.2607392567570543,0.12013391460311941,0.0018463865396665515
101,6.444,6.29,-0.76,0.6200466834041679,0.4639906333432514,0.1386203376726794,0.26188035537444637,0.11712527341456465,0.002236583075230034
102,6.486,6.34,-0.56,0.617471400059249,0.465738059962963,0.13698207997717554,0.2629987482688509,0.1141159067357598,0.002659834158360874
103,6.548,6.39,-0.63,0.6148758585143086,0.4674932560433629,0.13534428586796682,0.26409523943186203,0.11110822355988748,0.003115058017330727
104,6.651,6.45,-0.88,0.6122624726603884,0.4692548405012808,0.1337079644881426,0.26517063547305275,0.10810460472255987,0.00360117441173176
105,6.672,6.5,-0.73,0.6096336302166329,0.4710214448685095,0.1320741089866129,0.2662257444001357,0.10510740127806718,0.00411710534943969
106,6.712,6.56,-0.66,0.6069916912139083,0.47279171399819137,0.13044369602713765,0.267261374415638,0.1021189329221861,0.004661775788634131
107,6.775,6.62,-0.84,0.6043389865244331,0.47456430676162514,0.1288176853169996,0.2682783327314211,0.09914148646244336,0.005234114324639554
108,6.816,6.67,-0.85,0.601677816437814,0.47633789673564036,0.12719701915534293,0.26927742440272795,0.09617731433663737,0.005833053861421492
109,6.88,6.72,-0.63,0.5990104492838411,0.4781111728806585,0.12558262200103973,0.270259451183874,0.09322863318035686,0.006457532267595843
110,6.941,6.78,-0.77,0.5963391201024059,0.47988284020946864,0.12397540005984187,0.2712252104079026,0.09029762244419903,0.0071064930167823856
111,7.002,6.83,-0.95,0.5936660293609409,0.4816516204466053,0.12237624089056169,0.27217549389239976,0.08738642306136007,0.007778885812083154
112,7.043,6.89,-0.79,0.5909933417198122,0.4834162526780679,0.12078601303006198,0.2731110868733306,0.08449713616626184,0.008473667194399756
113,7.105,6.95,-0.77,0.588323184846138,0.4851754939909807,0.11920556563691184,0.27403276696837514,0.08163182186487092,0.009189801134248296
114,7.148,7.0,-1.01,0.5856576482765322,0.48692812010266745,0.117635728153633,0.27494130317095483,0.07879249805731645,0.009926259606737181
115,7.211,7.05,-0.94,0.5829987823292875,0.48867292597852385,0.11607730998746671,0.27583745487610284,0.07598113931333834,0.010682023149435936
116,7.273,7.11,-0.82,0.5803485970665228,0.490408726438008,0.11453110020958084,0.2767219709394339,0.07319967580103573,0.011456081402937805
117,7.374,7.16,-1.05,0.5777090613068203,0.4921343567480536,0.1129978672726584,0.27759558877052926,0.07044999226931539,0.012247433633990062
118,7.394,7.22,-1.16,0.5750821016888396,0.493848673203245,0.1114783587468249,0.27845903346201506,0.06773392708435677,0.013055089241122558
119,7.455,7.28,-0.98,0.5724696017862755,0.4955505536921767,0.1099733010738453,0.27931301695552874,0.0650532713203235,0.013878068242726022
120,7.496,7.33,-1.03,0.5698734012744074,0.4972388982494887,0.10848339933948302,0.28015823724558425,0.0624097679044494,0.014715401747530818
121,7.538,7.38,-1.22,0.5672952951483351,0.49891262959309196,0.1070093370638783,0.28099537762210364,0.05980511081649088,0.015566132407451817
122,7.601,7.44,-1.02,0.5647370329928676,0.5005706936461042,0.10555177600977624,0.2818251059521555,0.05724094434241726,0.016429314852792455
123,7.663,7.5,-0.94,0.5622003183039406,0.5022120600430074,0.10411135600845263,0.2826480740012594,0.054718862382133575,0.01730401610982874
124,7.748,7.55,-1.15,0.5596868078613998,0.5038357226195448,0.10268869480324241,0.28346491679450964,0.05224040781098352,0.018189316000835176
125,7.768,7.61,-1.12,0.5571981111529835,0.505440699885896,0.10128438791060142,0.28427625201780105,0.0498070718947637,0.01908430752665631
126,7.809,7.66,-0.93,0.5547357898493249,0.5070260354827256,0.0998990084986333,0.28508267945956317,0.04742029375800037,0.019988097231939755
127,7.872,7.71,-1.11,0.5523013573297842,0.5085907986197387,0.09853310728303877,0.28588478049341276,0.045081459905253876,0.020899805553135413
128,7.934,7.77,-1.26,0.5498962782588721,0.5101340844964237,0.09718721244048126,0.28668311760196186,0.042791903795207774,0.021818567149345342
129,7.976,7.83,-1.08,0.5475219682129864,0.5116550147046713,0.09586182953940452,0.2874782339417174,0.040552905467282525,0.022743531216067772
130,8.037,7.88,-1.1,0.5451797933571645,0.5131527376128991,0.09455744148840334,0.2882706529486217,0.03836569122048568,0.023673861781834813
131,8.12,7.93,-1.38,0.5428710701715398,0.5146264287312332,0.09327450850231866,0.2890608779834169,0.03623143334413639,0.02460873798774138
132,8.14,7.99,-1.23,0.5405970652271407,0.5160752910572503,0.09201346808624122,0.289849392015836,0.03415124990001184,0.0255473543499025
133,8.2,8.05,-1.12,0.5383589950105773,0.5174985554018116,0.09077473503759913,0.2906366573465989,0.03212620455537822,0.026488921004933802
134,8.262,8.1,-1.32,0.5361580257970424,0.5188954806946091,0.08955870146650471,0.2914231153662208,0.030157306466273622,0.027432663938627977
135,8.303,8.16,-1.33,0.5339952735709214,0.5202653542691849,0.08836573683451865,0.2922091863497106,0.028245510210315378,0.028377825198081606
136,8.364,8.21,-1.1,0.5318718039931896,0.5216074921273136,0.08719618801195304,0.29299526928630426,0.02639171576825031,0.02932366308756493
137,8.428,8.27,-1.18,0.5297886324147044,0.5229212391826972,0.08605037935381794,0.29378174174333627,0.024596768553439285,0.03026945234841385
138,8.489,8.32,-1.35,0.5277467239344535,0.5242059694839064,0.08492861279450743,0.29456895976316766,0.022861459488452446,0.03121448432318166
139,8.53,8.38,-1.17,0.5257469935017912,0.5254610864164436,0.08383116796129708,0.2953572577918624,0.021186525127965268,0.03215806710422376
140,8.612,8.43,-1.14,0.5237903060617339,0.5266860228836865,0.08275830230670544,0.296146948638119,0.019572647827180753,0.03309952566682151
141,8.633,8.49,-1.41,0.5218774767424792,0.5278802414663369,0.08171025125974211,0.2969383234609064,0.018020455955014395,0.03403820198692589
142,8.693,8.54,-1.41,0.5200092710844022,0.5290432345599057,0.08068722839596436,0.29773165178447814,0.016530524151261987,0.034973455143616695
143,8.755,8.6,-1.24,0.5181864053098293,0.5301745244897484,0.07968942562613374,0.2985271815398091,0.015103373626937797,0.035904661406404616
144,8.859,8.65,-1.44,0.5164095466328521,0.5312736636032199,0.07871701340318316,0.2993251391317449,0.01373947250688853,0.03683121430755495
145,8.879,8.71,-1.52,0.5146793136083522,0.5323402343385997,0.07777014094715926,0.3001257295311867,0.012439236213661095,0.037752524699676354
146,8.941,8.76,-1.28,0.5129962765192788,0.5333738492705323,0.07684893648776936,0.3009291363914909,0.011203027891479717,0.03866802079885654
147,8.983,8.82,-1.28,0.5113609578011368,0.5343741511317543,0.07595350752415606,0.30173552218798705,0.010031158869095624,0.039577148213632674
148,9.024,8.87,-1.52,0.509773832502554,0.5353408128109028,0.07508394110153387,0.30254502837919073,0.008923889160205261,0.0404793699600885
149,9.086,8.93,-1.34,0.5082353287807055,0.536273537326267,0.0742403041043281,0.3033577755880606,0.007881428000114606,0.04137416646337323
150,9.127,8.98,-1.26,0.5067458284302538,0.5371720577754725,0.07342264356546603,0.30417386380158096,0.006903934417349649,0.042261035545941246
151,9.25,9.04,-1.42,0.5053056674443837,0.5380361372612295,0.0726309869914563,0.30499337258708975,0.005991517838925156,0.04313949240284553
152,9.271,9.09,-1.4,0.5039151366064457,0.5388655687934205,0.0718653427027785,0.30581636132419515,0.005144238727976312,0.04400906956447457
153,9.311,9.15,-1.17,0.5025744821106983,0.5396601751679194,0.0711257001889326,0.30664286945166586,0.004362109252469095,0.0448693168471472
154,9.353,9.2,-1.31,0.5012839062106211,0.5404198088225994,0.07041203047739324,0.3074729167289814,0.0036450939837272068,0.04571980129194691
155,9.415,9.26,-1.46,0.5000435678932555,0.5411443516710266,0.06972428651571373,0.30830650351213895,0.0029931106235419184,0.04656010709209702
156,9.477,9.31,-1.27,0.49885358357799736,0.5418337149143327,0.06906240356608477,0.30914361104299865,0.0024060307586759827,0.047389835509063255
157,9.539,9.37,-1.25,0.49771402783827035,0.5424878388317207,0.06842629961173471,0.3099842017511227,0.001883680641613473,0.048208604777466885
158,9.581,9.42,-1.49,0.49662493414454756,0.5431066925499781,0.06781587577458924,0.31082821956694995,0.0014258419964079385,0.04901604999885985
159,9.643,9.48,-1.4,0.4955862956272248,0.5436902737923294,0.06723101674352966,0.3116755902454155,0.001032252848460972,0.049811823024448365
160,9.705,9.53,-1.27,0.49459806585787636,0.5442386086069723,0.06667159121246939,0.3125262216996197,0.0007026083770493998,0.05059559232691474
161,9.766,9.59,-1.45,0.4936601596474305,0.5447517510757317,0.0661374523273997,0.31338000434455493,0.0004365617893840461,0.0513670428615672
162,9.808,9.64,-1.52,0.49277245385979307,0.5452297830033883,0.06562843814150622,0.3142368114511337,0.00023372521493112216,0.05212587591713258
163,9.849,9.7,-1.27,0.4919347882394393,0.5456728135883411,0.06514437207738712,0.31509649951085184,9.36706186858234e-05,0.0528718089565565
164,9.911,9.75,-1.34,0.49114696625150617,0.5460809790752833,0.06468506339534001,0.3159589086113627,1.593073205792368e-05,0.05360457544818492
165,9.951,9.81,-1.52,0.49040875593292216,0.5464544423905421,0.06425030766664074,0.3168238628230776,0.0,0.054323924687695486
166,10.013,9.86,-1.28,0.48971989075308875,0.5467933927607254,0.06383988725070051,0.3176911705967832,4.5335543006490885e-05,0.05502962161113025
167,10.076,9.91,-1.19,0.4890800704826042,0.5470980453153271,0.06345357177497786,0.31856062517223244,0.0001513581326412683,0.05572144659936271
168,10.158,9.97,-1.37,0.48848896206852505,0.5473686406739666,0.06309111861651577,0.3194320049977755,0.0003174531792865064,0.056399195274338176
169,10.178,10.03,-1.34,0.48794620051468546,0.5476054445189855,0.0627522733839067,0.32030507416144444,0.0005429717308555808,0.05706267828744431
170,10.24,10.08,-1.11,0.4874513897656469,0.5478087471541829,0.06243677039839533,0.32117958283435893,0.000827231481303269,0.05771172110035822
171,10.323,10.14,-1.25,0.4870041035929328,0.5479788630504991,0.062144333172822024,0.3220552677275408,0.0011695177878579652,0.058346163758684386
172,10.344,10.19,-1.39,0.48660388648229497,0.5481161303794484,0.06187467488719373,0.3229318525630842,0.0015690846959678531,0.058965860658659164
173,10.404,10.25,-1.23,0.4862502545208546,0.5482209105350143,0.061627498859791366,0.3238090485602765,0.0020251559710196304,0.05957068030714552
174,10.465,10.3,-1.22,0.4859426962830876,0.5482935876445871,0.06140249901286346,0.32468655493682375,0.002536926135941269,0.06016050507509276
175,10.526,10.36,-1.51,0.48568067371474144,0.5483345680693643,0.06119936033209353,0.3255640594249417,0.0031035615138044377,0.060735230944641214
176,10.568,10.41,-1.37,0.48546362301383755,0.5483442798945567,0.06101775931913864,0.32644123880182246,0.003724201274507678,0.061294767250113145
177,10.61,10.47,-1.25,0.48529095550791485,0.5483231724097487,0.06085736443664124,0.32731775943386077,0.004397958484574292,0.061839036413217245
178,10.693,10.52,-1.41,0.48516205852662503,0.5482717155798457,0.06071783654522837,0.32819327783396224,0.005123921159028919,0.06236797367289278
179,10.754,10.58,-1.41,0.48507629626872456,0.5481903995071562,0.06059882933207717,0.3290674412312724,0.005901153314244171,0.06288152681031045
180,10.795,10.63,-1.14,0.48503301066247123,0.5480797338852754,0.06049998973065025,0.3299398881527014,0.006728696020614962,0.06337965586958498
181,10.856,10.69,-1.24,0.4850315222184545,0.5479402474454723,0.06042095833124465,0.3308102490155436,0.0076055684539312034,0.06386233287473773
182,10.919,10.74,-1.4,0.4850711308739607,0.5477724873962658,0.060361369782051234,0.33167814673030965,0.008530768944360088,0.0643295415434056
183,10.962,10.8,-1.2,0.4851511168280635,0.5475770188567917,0.06032085318047603,0.3325431973127287,0.00950327602202702,0.0647812769977355
184,11.001,10.85,-1.13,0.4852707413667835,0.5473544242844349,0.06029903245455835,0.3334050105037819,0.010522049458276658,0.06521754547286225
185,11.062,10.91,-1.34,0.4854292476778432,0.5471053028970484,0.06029552673441676,0.33426319039664204,0.011586031301753947,0.06563836402337798
186,11.123,10.96,-1.33,0.48562586165472454,0.546830270089963,0.060309950713681115,0.33511733606962446,0.01269414690847941,0.06604376022824654
187,11.164,11.02,-1.11,0.48585979268986185,0.5465299568479529,0.06034191500084273,0.3359670422246077,0.013845305965134268,0.06643377189464417
188,11.226,11.07,-1.27,0.48613023445687764,0.546205009152334,0.06039102646045993,0.33681189983058246,0.015038403504793227,0.06680844676121139
189,11.288,11.13,-1.36,0.48643636568179677,0.545856087383399,0.060456888544191824,0.33765149677195344,0.016272320914335465,0.06716784220118571
190,11.35,11.18,-1.13,0.4867773509031834,0.5454838657183961,0.06053910161166293,0.33848541850104785,0.01754592693276761,0.0675120249258326
191,11.433,11.24,-1.1,0.48715234122118173,0.5450890315251891,0.06063726324119039,0.33931324869406354,0.018858078639716228,0.0678410706885179
192,11.454,11.29,-1.34,0.48756047503547556,0.5446722847516546,0.060750968530428336,0.3401345699094843,0.020207622433367035,0.06815506398971752
193,11.535,11.35,-1.19,0.4880008787721907,0.544234337310834,0.06087981038698478,0.3409489642479013,0.021593394997168724,0.06845409778324563
194,11.556,11.4,-1.06,0.4884726675997546,0.5437759124618785,0.0610233798090712,0.34175601401220496,0.023014224254678924,0.06873827318398917
195,11.618,11.46,-1.24,0.48897494613370807,0.5432977441868954,0.06118126615624174,0.34255530236725645,0.024468930311973922,0.06900769917747204
196,11.659,11.51,-1.24,0.4895068091304389,0.5428005765639233,0.06135305741020264,0.34334641399846083,0.025956326387066967,0.06926249233162286
197,11.72,11.57,-0.98,0.4900673421697864,0.5422851631363729,0.061538340425546505,0.34412893576906095,0.027475219725812485,0.06950277651113257
198,11.824,11.62,-1.11,0.49065562232648685,0.5417522662793277,0.061736701170195515,0.3449024573761415,0.029024412503818448,0.06972868259474273
199,11.845,11.68,-1.27,0.4912707188304454,0.5412026565630812,0.06194772495534514,0.3456665720051953,0.030602702713931843,0.06994034819572263
200,11.885,11.73,-1.06,0.49191169371583887,0.540637112114211,0.062170996654750156,0.34642087698277535,0.032208885038922726,0.07013791738569027
201,11.928,11.79,-1.02,0.4925776024590908,0.5400564179743912,0.06240610091329057,0.3471649744263764,0.03384175170905373,0.07032154042184784
202,11.988,11.84,-1.23,0.4932674946058089,0.5394613654570695,0.06265262234487662,0.3478984718903595,0.035500093344247856,0.07049137347768744
203,12.048,11.9,-1.16,0.493980414386812,0.5388527515021304,0.06291014571986728,0.3486209830065653,0.0371826997805743,0.07064757837725849
204,12.11,11.95,-0.97,0.49471540132339187,0.5382313780287361,0.06317825614230094,0.3493321281182226,0.038888360880793504,0.07079032233312545
205,12.171,12.01,-1.16,0.495471490821958,0.5375980512866341,0.06345653921738159,0.3500315349057342,0.04061586732871808,0.07091977768816694
206,12.213,12.06,-1.27,0.4962477147581895,0.5369535812063126,0.06374458120976358,0.3507188390028899,0.0423640114071456,0.0710361216613786
207,12.275,12.12,-1.06,0.4970431020507645,0.5362987807484675,0.06404196919321417,0.3513936846020069,0.04413158775912753,0.07113953609781609
208,12.337,12.17,-1.1,0.49785667922469734,0.535634465253255,0.0643482911922696,0.3520557250463414,0.04591739413234067,0.07123020722277104
209,12.377,12.23,-1.32,0.4986874709642735,0.5349614517897794,0.06466313631655335,0.3527046234078606,0.04772023210629396,0.07130832540024612
210,12.459,12.28,-1.12,0.49953450065554816,0.5342805585062085,0.06498609488845286,0.3533400530482892,0.04953890780206266,0.07137408489579673
211,12.52,12.34,-1.02,0.5003967909183666,0.5335926039808792,0.06531675856486324,0.3539616981613271,0.05137223257421686,0.07142768364382159
212,12.541,12.39,-1.14,0.5012733641278703,0.532898406574753,0.0656547204536715,0.35456925429413566,0.05321902368458783,0.07146932301942868
213,12.6,12.45,-1.12,0.5021632429254472,0.5321987837856538,0.06599957522551368,0.3551624288466897,0.055078104957506424,0.07149920761504992
214,12.661,12.5,-0.85,0.503065450719071,0.5314945516048324,0.0663509192211416,0.35574094154818997,0.056948307416191044,0.07151754502197098
215,12.703,12.56,-1.01,0.5039790121729698,0.5307865238764825,0.06670835055462507,0.3563045249100807,0.05882846990004387,0.07152454561687213
216,12.785,12.61,-1.17,0.5049029536865559,0.5300755116608713,0.06707146921262584,0.3568529246551534,0.06071743966270326,0.07152042235337214
217,12.826,12.66,-0.95,0.5058363038625562,0.5293623226017198,0.06743987715005836,0.35738590012191407,0.06261407295079711,0.07150539055845094
218,12.888,12.72,-0.96,0.5067780939643196,0.5286477602983896,0.06781317838256548,0.3579032246430007,0.06451723556341116,0.07147966773353806
219,12.93,12.78,-1.22,0.5077273583623335,0.5279326236833256,0.06819097907633105,0.3584046858961505,0.06642580339229044,0.07144347336003173
220,12.971,12.83,-1.12,0.5086831349700003,0.5272177064051525,0.06857288763577943,0.3588900862261662,0.06833866294275937,0.0713970287090499
221,13.032,12.89,-0.95,0.5096444656687085,0.5265037962178394,0.06895851478972133,0.35935924293644744,0.07025471183530502,0.07134055665527199
222,13.095,12.94,-1.11,0.5106103967222002,0.5257916743764107,0.069347473676528,0.35981198854881913,0.07217285928770673,0.07127428149481133
223,13.157,13.0,-1.14,0.5115799791801946,0.5250821150397736,0.06973937992890282,0.36024817103056805,0.07409202657752137,0.07119842876714347
224,13.197,13.05,-0.86,0.5125522692712005,0.5243758846813216,0.07013385175875858,0.36066765398776607,0.07601114748470544,0.07111322508115155
225,13.26,13.11,-0.9,0.5135263287844547,0.5236737415080123,0.07053051004267186,0.3610703168239484,0.07792916871416962,0.07101889794532396
226,13.321,13.16,-1.09,0.5145012254409315,0.522976434888612,0.07092897840839418,0.36145605486302923,0.07984505029809899,0.07091567560209211
227,13.403,13.22,-0.88,0.5154760332533661,0.5222847047917624,0.07132888332292231,0.36182477943514313,0.08175776597794308,0.07080378686624036
228,13.424,13.27,-0.84,0.5164498328752634,0.5215992812344685,0.07172985418264297,0.3621764179240681,0.08366630356607108,0.07068346096727664
229,13.486,13.33,-1.04,0.5174217119388798,0.5209208837415563,0.0721315234059657,0.36251091377529365,0.08556966528714852,0.07055492739564716
230,13.526,13.38,-0.99,0.5183907653821715,0.5202502208166541,0.07253352652851382,0.3628282264648929,0.0874668680993195,0.0704184157527076
231,13.629,13.44,-0.75,0.5193560957646726,0.5195879894253204,0.07293550230046539,0.36312833143077927,0.08935694399529535,0.07027415560438269
232,13.649,13.49,-0.9,0.5203168135722437,0.5189348744909997,0.07333709278530533,0.36341121996893405,0.09123894028344974,0.07012237633845551
233,13.691,13.55,-0.99,0.5212720375106248,0.5182915484045075,0.07373794345917331,0.3636768990973982,0.09311191984901455,0.06996330702542983
234,13.752,13.6,-0.77,0.5222208947877451,0.5176586705476964,0.0741377033100924,0.3639253913904929,0.09497496139549941,0.06979717628288168
235,13.815,13.66,-0.78,0.5231625213848166,0.5170368868318397,0.07453602493652818,0.36415673478522476,0.0968271596665106,0.0696242121431783
236,13.857,13.71,-1.04,0.5240960623162879,0.5164268292511677,0.07493256464486892,0.3643709823614448,0.09866762564817523,0.06944464192443897
237,13.919,13.77,-0.9,0.5250206718787294,0.5158291154519875,0.07532698254547193,0.36456820209721097,0.10049548675239062,0.06925869210465903
238,14.001,13.82,-0.76,0.5259355138886541,0.5152443483178949,0.07571894264693321,0.36474847660090637,0.10230988698112348,0.06906658819899573
239,14.021,13.88,-0.91,0.5268397619092171,0.5146731155717135,0.076108112948242,0.36491190282183916,0.10410998707195128,0.06886855464032376
240,14.084,13.93,-0.91,0.5277325994656983,0.5141159893949008,0.07649416552844289,0.36505859174125294,0.10589496462498783,0.06866481466326968
241,14.166,13.99,-0.63,0.5286132202496951,0.5135735260651887,0.07687677663335779,0.36518866804584477,0.10766401421132427,0.0684555901919672
242,14.186,14.04,-0.72,0.5294808283120053,0.5130462656131649,0.07725562675889598,0.3653022697858617,0.10941634746314621,0.068241101731728
243,14.249,14.1,-0.88,0.5303346382442138,0.5125347314984104,0.07763040073051583,0.3653995480196053,0.11115119314574008,0.06802156826473858
244,14.31,14.15,-0.65,0.5311738753490114,0.5120394303057372,0.07800078777846653,0.36548066644585303,0.11286779721168617,0.0677972071497973
245,14.391,14.21,-0.58,0.5319977757992973,0.511560851462001,0.07836648160853643,0.3655458010254208,0.11456542283763207,0.06756823402602408
246,14.412,14.26,-0.79,0.5328055867861943,0.5110994669738894,0.07872718046811925,0.3655951395929537,0.1162433504441072,0.06733486272044864
247,14.475,14.32,-0.74,0.5335965666561842,0.5106557311870168,0.07908258720741662,0.3656288814602012,0.11790087769888889,0.0670973051593953
248,14.515,14.37,-0.53,0.5343699850376463,0.5102300805666096,0.0794324093355678,0.3656472370123631,0.1195373195044884,0.06685577128359163
249,14.578,14.43,-0.72,0.5351251229571476,0.5098229335000051,0.07977635907152021,0.3656504272992868,0.12115200797037093,0.06661046896691784
250,14.639,14.48,-0.82,0.5358612729458727,0.5094346901211174,0.08011415338951784,0.36563868362323065,0.12274429237053555,0.06636160393868373
251,14.723,14.54,-0.57,0.5365777391366238,0.509065732156911,0.08044551405914752,0.3656122471246702,0.12431353908709356,0.06610937970924775
252,14.744,14.59,-0.56,0.5372738373518652,0.5087164227957675,0.08077016767996702,0.3655713683672379,0.12585913154048867,0.06585399749870756
253,14.806,14.65,-0.93,0.5379488951833522,0.5083871065774465,0.081087845710827,0.36551630692247,0.12738047010698794,0.06559565616834645
254,14.847,14.7,-0.75,0.5386022520639349,0.5080781093041925,0.08139828449405619,0.36544733095474374,0.12887697202406306,0.06533455215453408
255,14.909,14.76,-0.62,0.5392332593321483,0.5077897379724874,0.08170122527471282,0.3653647168066807,0.1303480712842723,0.06507087940485695
256,14.971,14.81,-0.76,0.5398412802902023,0.5075222807249801,0.08199641421510165,0.36526874858539954,0.13179321851818962,0.06480482931641567
257,15.012,14.87,-0.77,0.5404256902559267,0.5072760068222548,0.08228360240466616,0.3651597177503212,0.1332118808668275,0.06453659067642543
258,15.094,14.92,-0.53,0.5409858766091725,0.5070511666342404,0.08256254586523737,0.3650379227036396,0.13460354184394532,0.06426634960538655
259,15.135,14.98,-0.64,0.5415212388331234,0.5068479916511479,0.08283300555157254,0.3649036683847201,0.13596770118864113,0.06399428950311155
260,15.177,15.03,-0.79,0.5420311885509349,0.5066666945138348,0.08309474734715924,0.3647572658695332,0.13730387470865751,0.06372059099784086
261,15.238,15.09,-0.57,0.5425151495580889,0.5065074690634316,0.0833475420553378,0.3645990319758848,0.13861159411487892,0.0634454318985826
262,15.3,15.14,-0.52,0.5429725578508382,0.506370490409964,0.08359116538588225,0.3644292888748639,0.1398904068475396,0.06316898715071333
263,15.341,15.2,-0.77,0.5434028616511147,0.5062559150195992,0.08382539793724927,0.3642483637086903,0.14113987589467245,0.06289142879482754
264,15.483,15.25,-0.65,0.5438055214282673,0.5061638808200994,0.08405002517472623,0.36405658821512377,0.1423595796033315,0.06261292592882457
265,15.505,15.31,-0.49,0.5441800099179769,0.5060945073240831,0.08426483740474297,0.3638542983586955,0.1435491114841345,0.062333644673248687
266,15.525,15.36,-0.69,0.5445258121386775,0.5060478957697768,0.0844696297456902,0.3636418339690782,0.144708080009673,0.06205374813993915
267,15.607,15.41,-0.74,0.544842425405773,0.5060241292790351,0.08466420209564415,0.3634195383869132,0.14583610840731698,0.06177339640409226
268,15.648,15.47,-0.49,0.5451293593438905,0.5060232730324942,0.08484835909740009,0.3631877581173667,0.1469328344469276,0.061492746479839225
269,15.669,15.53,-0.51,0.5453861358973681,0.5060453744617448,0.08502191010122971,0.3629468424914799,0.14799791022398187,0.061211952299402246
270,15.731,15.58,-0.7,0.5456122893391171,0.5060904634584003,0.08518466912582155,0.36269714333506403,0.1490310019385907,0.06093116469583447
271,15.834,15.64,-0.47,0.5458073662779198,0.5061585525999381,0.0853364548179013,0.36243901464460015,0.15003178967090072,0.060650531389284404
272,15.855,15.69,-0.39,0.5459709256641455,0.5062496373922168,0.08547709041106066,0.3621728122694665,0.1509999671534192,0.06037019697666086
273,15.894,15.75,-0.6,0.5461025387938362,0.5063636965285898,0.08560640368430683,0.36189889359991556,0.15193524154085788,0.060090302924543405
274,15.957,15.8,-0.58,0.546201789311098,0.5065006921655679,0.08572422692071925,0.3616176172606826,0.15283733317814358,0.059810987565182334
275,16.017,15.86,-0.34,0.5462682732087498,0.5066605702150152,0.08583039686643577,0.36132934281070445,0.1537059753673046,0.05953238609542813
276,16.058,15.91,-0.49,0.5463015988272082,0.5068432606528841,0.08592475469011493,0.36103443044977035,0.15454091413398025,0.059254630578420384
277,16.118,15.97,-0.62,0.5463013868516184,0.507048677844494,0.08600714594305926,0.36073324073284874,0.15534190799430406,0.05897784994785207
278,16.201,16.02,-0.43,0.5462672703072894,0.507276720886307,0.08607742052027291,0.3604261342924996,0.15610872772292578,0.058702170014583055
279,16.222,16.07,-0.46,0.5461988945535683,0.5075272739640133,0.08613543262283328,0.3601134715693999,0.15684115612295332,0.05842771347531963
280,16.284,16.13,-0.71,0.5460959172763875,0.5078002067265569,0.08618104072203008,0.3597956125507037,0.1575389877985811,0.05815459992305819
281,16.346,16.18,-0.57,0.5459580084797657,0.508095374675584,0.08621410752572724,0.35947291651588587,0.15820202893112353,0.05788294585902484
282,16.408,16.24,-0.43,0.5457848504765362,0.5084126195697364,0.08623449994737481,0.3591457417897883,0.15883009705911494,0.05761286470591217
283,16.468,16.3,-0.61,0.5455761378785342,0.5087517698432363,0.08624208907806973,0.3588144455027257,0.15942302086305682,0.057344466822315504
284,16.509,16.35,-0.62,0.5453315775864058,0.5091126410382684,0.0862367501619981,0.35847938335769186,0.15998063995531764,0.05707785951837999
285,16.571,16.41,-0.35,0.5450508887791736,0.5094950362507163,0.08621836257549423,0.35814090940489973,0.16050280467565828,0.05681314707272875
286,16.611,16.46,-0.43,0.5447338029037011,0.5098987465887697,0.08618680980989032,0.357799375823903,0.1609893758928581,0.05655043075073942
287,16.673,16.51,-0.62,0.5443800636642467,0.5103235516438003,0.086141979458314,0.3574551327133789,0.1614402248129334,0.05628980882419537
288,16.712,16.57,-0.44,0.5439894270123574,0.5107692199727557,0.08608376320659185,0.35710852788841735,0.1618552327944834,0.05603137659226828
289,16.775,16.62,-0.4,0.5435616611374332,0.5112355095911589,0.08601205682844208,0.3567599066849913,0.1622342911717565,0.055775226403716495
290,16.836,16.68,-0.6,0.5430965464584108,0.5117221684756589,0.08592676018514116,0.35640961177130176,0.1625773010860438,0.05552144768015636
291,16.978,16.73,-0.53,0.5425938756171347,0.5122289350749802,0.08582777722976656,0.35605798296603064,0.16288417332598512,0.055270126940281224
292,16.998,16.79,-0.34,0.5420534534740835,0.5127555388280711,0.0857150160160169,0.3557053570639966,0.163154828177349,0.055021347824924245
293,17.018,16.84,-0.52,0.5414750971071848,0.5133017006882654,0.08558838871158674,0.355352067669971,0.16338919528282198,0.0547751911228702
294,17.059,16.9,-0.61,0.5408586358144644,0.5138671336523275,0.08544781161610467,0.35499844504140615,0.16358721351231428,0.054531734797317113
295,17.1,16.95,-0.39,0.5402039111212653,0.5144515432933391,0.08529320518366837,0.35464481594065417,0.16374883084428396,0.054291054012851496
296,17.161,17.01,-0.41,0.5395107767927764,0.5150546282964151,0.08512449405004616,0.3542915034969796,0.16387400425857984,0.0540532211627507
297,17.223,17.07,-0.69,0.5387790988526331,0.5156760809962048,0.08494160706465573,0.3539388270783525,0.16396269964127644,0.05381830589640135
298,17.304,17.12,-0.54,0.5380087556083785,0.5163155879150865,0.08474447732745265,0.35358710217278955,0.164014891701947,0.05358637514662949
299,17.325,17.17,-0.47,0.5371996376845772,0.5169728303009429,0.08453304223087661,0.3532366402789399,0.1640305639037936,0.053357493156773225
300,17.387,17.23,-0.64,0.5363516480643562,0.5176474846634394,0.08430724350699355,0.35288774880573115,0.16400970840698684,0.05313172150741305
301,17.449,17.28,-0.63,0.5354647021400823,0.5183392233078129,0.08406702727986612,0.3525407309812686,0.1639523260254704,0.05290911914278643
302,17.49,17.34,-0.37,0.5345387277738122,0.5190477148652906,0.08381234412302058,0.3521958857716717,0.16385842619740487,0.0526897423969825
303,17.574,17.39,-0.5,0.5335736653680874,0.5197726248193159,0.08354314912178189,0.35185350781077124,0.1637280269693797,0.05247364502001704
304,17.594,17.45,-0.65,0.5325694679476225,0.5205136160267633,0.08325940194026413,0.3515138873414426,0.16356115499449897,0.05226087820384807
305,17.675,17.5,-0.45,0.5315261012524212,0.5212703492332542,0.08296106689289937,0.3511773101689642,0.16335784554447066,0.05205149060831941
306,17.736,17.56,-0.42,0.530443543842905,0.522042483581569,0.08264811302052866,0.3508440576263076,0.16311814253586046,0.0518455283869457
307,17.777,17.61,-0.68,0.5293217872176951,0.5228296771120212,0.08232051417119876,0.35051440655090593,0.16284209857066975,0.051643035212427815
308,17.839,17.67,-0.6,0.5281608359447151,0.5236315872535946,0.08197824908585741,0.35018862927233385,0.16252977499136642,0.05144405230181616
309,17.901,17.73,-0.46,0.5269607078062711,0.5244478713046591,0.08162130148916306,0.3498669936103756,0.16218124195046216,0.05124861844128615
310,17.942,17.78,-0.63,0.5257214339587235,0.5252781869021534,0.08124966018567047,0.34954976288299455,0.1617965784946675,0.0510567700105466
311,18.065,17.83,-0.7,0.524443059107267,0.5261221924782428,0.08086331916166954,0.34923719592371405,0.16137587266356704,0.050868541006948646
312,18.086,17.89,-0.46,0.5231256416962071,0.5269795477035806,0.08046227769291099,0.3489295471078852,0.16091922160268707,0.05068396306935996
313,18.106,17.94,-0.51,0.521769254114958,0.5278499139164345,0.08004654045840098,0.34862706638715585,0.16042673169077665,0.05050306550182542
314,18.147,18.0,-0.7,0.5203739829198002,0.5287329545370683,0.07961611766041696,0.34832999933119846,0.15989851868107677,0.050325875296997225
315,18.228,18.05,-0.52,0.518939929071244,0.5296283354669573,0.07917102515087357,0.348038587175504,0.15933470785632806,0.05015241715929907
316,18.309,18.11,-0.46,0.5174672081866981,0.5305357254725638,0.07871128456415104,0.34775306687396096,0.15873543419726974,0.049982713527788526
317,18.329,18.16,-0.66,0.5159559508080828,0.5314547965534858,0.07823692345642226,0.34747367115514255,0.15810084256437254,0.04981678459871858
318,18.413,18.22,-0.65,0.514406302683992,0.5323852242948862,0.07774797545129934,0.3472006285819018,0.1574310878925202,0.04965464834786003
319,18.433,18.27,-0.44,0.5128184250659981,0.5333266882041864,0.07724448039135196,0.34693416361472995,0.1567263353983366,0.04949632055268812
320,18.475,18.33,-0.61,0.5111924950186773,0.5342788720320697,0.07672648449489809,0.34667449667987527,0.15598676079982218,0.04934181481454783
321,18.538,18.39,-0.71,0.5095287057429058,0.5352414640778618,0.07619404051746313,0.34642184424322475,0.15521255054791058,0.0491911425808929
322,18.599,18.44,-0.5,0.5078272669119228,0.5362141574793232,0.07564720791736922,0.3461764188906177,0.15440390206951957,0.04904431316763316
323,18.641,18.5,-0.52,0.5060884050196276,0.5371966504867918,0.07508605302499896,0.3459384294148254,0.1535610240216412,0.04890133378154642
324,18.704,18.55,-0.79,0.5043123637405591,0.5381886467214825,0.07451064921533865,0.34570808090906047,0.15268413655597293,0.04876220954267324
325,18.764,18.6,-0.64,0.5024994043009792,0.5391898554176758,0.07392107708341406,0.3454855748667148,0.15177347159354665,0.04862694350662675
326,18.844,18.66,-0.52,0.5006498058604233,0.5401999916485352,0.0733174246222251,0.34527110928700794,0.1508292731087707,0.04849553668680297
327,18.864,18.71,-0.7,0.49876386590301364,0.5412187765353746,0.07269978740277881,0.34506487878627495,0.14985179742222896,0.04836798807656887
328,18.926,18.77,-0.74,0.4968419006377259,0.5422459374403297,0.07206826875576931,0.3448670747147474,0.14884131350149576,0.04824429467160454
329,18.989,18.82,-0.5,0.49488424540672477,0.5432812081425086,0.0714229799543546,0.3446778852788441,0.14779810326916934,0.04812445149261902
330,19.028,18.88,-0.58,0.4928912551008266,0.5443243289977557,0.07076404039739802,0.34449749566902355,0.14672246191729496,0.0480084516086375
331,19.09,18.93,-0.76,0.4908633045811046,0.5453750470821521,0.07009157779248987,0.3443260881931284,0.14561469822731835,0.04789628616100435
332,19.152,18.99,-0.53,0.48880078910562064,0.5464331163193178,0.06940572833803518,0.3441638424149548,0.14447513489470049,0.047787944388178016
333,19.193,19.05,-0.48,0.48670412476027436,0.5474982975914888,0.06870663690371853,0.34401093529756255,0.14330410885733777,0.047683413651333315
334,19.253,19.1,-0.72,0.48457374889284,0.548570358834226,0.0679944572087242,0.3438675413506982,0.14210197162693267,0.04758267946077448
335,19.316,19.16,-0.66,0.4824101205493629,0.5496490751145353,0.06726935199713673,0.3437338327817596,0.1408690896224586,0.04748572550319472
336,19.358,19.21,-0.48,0.4802137209121818,0.5507342286921655,0.06653149320998575,0.3436099796498983,0.13960584450487676,0.04739253366985649
337,19.421,19.26,-0.66,0.47798505373888617,0.5518256090639093,0.06578106215347741,0.34349615002292583,0.13831263351225218,0.04730308408580396
338,19.563,19.32,-0.77,0.4757246458014745,0.5529230129908556,0.06501824966304354,0.3433925101365817,0.1369898697943784,0.047217355140250036
339,19.585,19.37,-0.54,0.4734330473248643,0.5540262445086827,0.06424325626291143,0.3432992245555025,0.13563798274598182,0.047135323518270524
340,19.605,19.43,-0.57,0.4711108324237824,0.5551351149211476,0.06345629232097127,0.3432164563349097,0.1342574183375448,0.0470569642338991
341,19.646,19.48,-0.77,0.4687585995369495,0.5562494427769215,0.06265757819878895,0.3431443671816718,0.13284863944273773,0.046982250664691416
342,19.707,19.54,-0.57,0.46637697185737514,0.5573690538299041,0.06184734439665115,0.3430831176131652,0.13141212616141257,0.04691115458782736
343,19.77,19.59,-0.47,0.46396659775748667,0.5584937809831834,0.061025831693557665,0.3430328671122858,0.1299483761371078,0.04684364621783472
344,19.812,19.65,-0.64,0.46152815120772744,0.5596234642169061,0.06019329128208195,0.3429937742771016,0.1284579048680206,0.046779694246051176
345,19.873,19.7,-0.65,0.4590623321871828,0.5607579505004748,0.05934998489794244,0.34296599696403074,0.1269412460104226,0.046719265881975384
346,19.935,19.76,-0.41,0.4565698670847515,0.561897093689616,0.05849618494400036,0.34294969242392426,0.1253989516735448,0.04666232689665121
347,19.976,19.82,-0.53,0.45405150908938335,0.563040754408937,0.057632174608332525,0.3429450174307092,0.12383159270501035,0.046608841668188364
348,20.039,19.87,-0.71,0.451508038567926,0.5641887999205937,0.056758247976044375,0.3429521284021756,0.12223975896592199,0.046558773229471426
349,20.101,19.92,-0.52,0.44894026342913296,0.5653411039796743,0.05587471013454772,0.34297118151222744,0.12062405959475048,0.046512083318043115
350,20.122,19.98,-0.48,0.4463490194724192,0.566497546676826,0.05498187727211648,0.34300233279360237,0.11898512325920141,0.04646873242808334
351,20.183,20.03,-0.7,0.4437351707199757,0.5676580142685754,0.05408007676961099,0.34304573822985884,0.11732359839523568,0.04642867986438779
352,20.243,20.09,-0.6,0.4410996097308661,0.5688223989957515,0.05316964728527101,0.34310155383546764,0.11564015343239596,0.046391883798278605
353,20.305,20.14,-0.44,0.4384432578957232,0.5699905988904438,0.052250938832460125,0.34316993572303817,0.11393547700458659,0.04635830132542035
354,20.345,20.2,-0.61,0.43576706571067636,0.5711625175719968,0.05132431285026137,0.34325104015686564,0.11221027814545462,0.04632788852555884
355,20.407,20.25,-0.68,0.43307201302913206,0.5723380640326285,0.05039014226684363,0.3433450235920423,0.11046528646752246,0.04630060052423693
356,20.47,20.31,-0.44,0.4303591092900023,0.5735171524133583,0.04944881155551041,0.3434520426983574,0.10870125232424772,0.04627639155653549
357,20.51,20.36,-0.49,0.4276293937209476,0.5746997017709663,0.04850071678334337,0.3435722543680735,0.10691894695422145,0.046255215032843404
358,20.631,20.42,-0.66,0.42488393551518805,0.5758856358367025,0.04754626565236604,0.3437058157064368,0.10511916260673924,0.04623702360661431
359,20.652,20.48,-0.48,0.4221238339804305,0.5770748827674295,0.04658587753317755,0.34385288400360314,0.10330271264801989,0.046221769244027135
360,20.694,20.53,-0.4,0.41935021865849176,0.5782673748898322,0.04561998349104399,0.3440136166865971,0.1014704316474108,0.04620940329543234
361,20.777,20.58,-0.59,0.41656424941424597,0.5794630484382857,0.04464902630442657,0.3441881712501448,0.09962317544297865,0.0461998765684544
362,20.798,20.64,-0.59,0.4137671164925905,0.5806618432869386,0.04367346047575893,0.3443767051658793,0.09776182118593726,0.04619313940262346
363,20.86,20.69,-0.35,0.41096004054219604,0.5818637026765611,0.04269375223402948,0.34457937577030184,0.09588726736343245,0.04618914174539069
364,20.923,20.75,-0.5,0.40814427260491,0.5830685729366659,0.04171037952855046,0.34479634013247734,0.09400043379926244,0.04618783322934183
365,20.984,20.8,-0.64,0.4053210940697881,0.5842764032033643,0.040723832013266285,0.3450277549025457,0.09210226163215789,0.046189163250375295
366,21.005,20.86,-0.45,0.40249181659083705,0.5854871451333349,0.039734611021005325,0.3452737761419026,0.09019371327130063,0.046193081046544605
367,21.068,20.91,-0.47,0.39965778196767954,0.5867007526141789,0.03874322952717495,0.3455345591355692,0.08827577232882378,0.04619953577719881
368,21.129,20.97,-0.73,0.3968203619884698,0.5879171814713073,0.037750212102494594,0.3458102581869956,0.08634944352906584,0.04620847660203629
369,21.191,21.02,-0.61,0.39398095823446766,0.5891363891714333,0.03675609485441335,0.3461010263954568,0.08441575259435857,0.04621985275972252
370,21.232,21.08,-0.51,0.3911410018457167,0.5903583345227265,0.03576142535689775,0.34640701541628066,0.08247574610712827,0.04623361364578609
371,21.293,21.14,-0.69,0.3883019532472867,0.5915829773717334,0.034766762568320134,0.3467283752042824,0.08053049134805954,0.04624970888959214
372,21.355,21.19,-0.72,0.38546530183553585,0.5928102782972595,0.03377267673718562,0.3470652537409647,0.0785810761100263,0.046268088430273045
373,21.416,21.25,-0.48,0.3826325656238377,0.5940401983015118,0.032779749295408916,0.3474177967462165,0.07662860848747881,0.046288702591524164
374,21.458,21.3,-0.58,0.3798052908472513,0.5952726984988449,0.03178857273886346,0.34778614737521785,0.07467421664098613,0.0463115021551475
375,21.519,21.35,-0.74,0.376985051525655,0.5965077398024357,0.030799750494975207,0.34817044590103985,0.07271904853665843,0.04633643843318578
376,21.581,21.41,-0.56,0.3741734489849301,0.5977452826091277,0.029813896777184677,0.34857082938315354,0.07076427166022772,0.04636346333844657
377,21.623,21.46,-0.53,0.3713721113358715,0.5989852864825894,0.02883163642615416,0.3489874313218679,0.06881107270563815,0.04639252945318609
378,21.725,21.52,-0.79,0.3685826929106304,0.6002277098348057,0.02785360473762956,0.34942038129870606,0.06686065723804731,0.04642359009573753
379,21.745,21.57,-0.77,0.36580687365661557,0.6014725096058634,0.026880447276830716,0.3498698046030022,0.06491424933117003,0.046456599384921395
380,21.785,21.63,-0.58,0.3630463584878883,0.6027196409419853,0.025912819679180896,0.35033582184543727,0.06297309117891417,0.04649151230213204
381,21.827,21.68,-0.75,0.3603028765941521,0.6039690568718169,0.02495138743717503,0.35081854855951333,0.061038442681241,0.04652828475104716
382,21.888,21.74,-0.84,0.35757818070743946,0.6052207079810716,0.023996825673204155,0.3513180947920437,0.059111581004133544,0.04656687361494252
383,21.949,21.8,-0.62,0.3548740463265532,0.6064745420857353,0.023049818898169438,0.35183456468364366,0.05719380011353241,0.04660723681158156
384,22.011,21.85,-0.64,0.3521922708993053,0.6077305039040646,0.022111060755760203,0.35236805604000027,0.0552864102831088,0.04664933334560314
385,22.096,21.91,-0.84,0.3495346729626037,0.6089885347276159,0.021181253752334872,0.35291865989442966,0.05339073757576406,0.046693123358303244
386,22.117,21.96,-0.69,0.34690309124044477,0.6102485720915812,0.0202611089723948,0.3534864600620688,0.05150812329878808,0.04673856817471038
387,22.178,22.01,-0.62,0.3442993836998529,0.6115105494448152,0.0193513457796753,0.3540715326860638,0.0496399234326775,0.046785630347883835
388,22.24,22.07,-0.78,0.3417254265647842,0.6127743958201012,0.01845269150387428,0.3546739457763373,0.04778750803367278,0.0468342737004313
389,22.323,22.12,-0.81,0.33918311328797784,0.6140400355053641,0.017565881112936006,0.35529375874200486,0.045952260610115016,0.046884463363326946
390,22.344,22.18,-0.59,0.3366743534807251,0.6153073877166861,0.016691656870668023,0.35593102191909226,0.04413557747277653,0.046936165812155865
391,22.405,22.23,-0.74,0.3342010718005449,0.6165763662740505,0.015830767979411086,0.3565857760955142,0.042338867059370844,0.0469893489008949
392,22.447,22.29,-0.9,0.3317652067967973,0.61784687928074,0.014983970207524951,0.3572580520352138,0.04056354923348712,0.04704398189328686
393,22.508,22.34,-0.7,0.3293687097143532,0.61911882880724,0.014152025501534134,0.3579478700030772,0.038811054558242505,0.04710003549179029
394,22.549,22.4,-0.72,0.3270135432555916,0.6203921105803151,0.013335701582879573,0.35865523929193277,0.037082823544989305,0.047157481864030605
395,22.61,22.45,-0.97,0.32470168030117996,0.6216666136777163,0.012535771529304556,0.35938015775275056,0.0353803058774281,0.04721629466668742
396,22.691,22.51,-0.81,0.3224351025902588,0.6229422202288292,0.011753013340923062,0.3601226113292198,0.03370495961147667,0.04727644906682091
397,22.712,22.57,-0.66,0.3202157993607602,0.6242188051215347,0.01098820949101589,0.36088257359809506,0.03205825035125183,0.04733792176072413
398,22.815,22.62,-0.85,0.3180457659506723,0.6254962357156139,0.010242146461637064,0.361660005316837,0.03044165040152618,0.04740069099046123
399,22.836,22.67,-0.93,0.31592700236111404,0.6267743715630979,0.009515614264152518,0.3624548539800879,0.028856637897038115,0.0474647365582781
400,22.877,22.73,-0.68,0.31386151178212585,0.6280530641360194,0.00880940594483686,0.36326705338644677,0.0273046959090983,0.04753003983902106
401,22.939,22.78,-0.73,0.3118512990821412,0.6293321565619794,0.008124317075646224,0.36409652321686053,0.025787311530010466,0.047596583790603345
402,23.001,22.84,-0.97,0.3098983692621757,0.6306114833678351,0.007461145230261725,0.36494316862577353,0.024305974935878515,0.047664352962479783
403,23.041,22.89,-0.77,0.30800472587583755,0.6318908702316983,0.006820689445471267,0.36580687984607896,0.022862178428431613,0.04773333350203601
404,23.103,22.95,-0.7,0.3061723694163495,0.6331701337433443,0.006203749667959332,0.3666875318088846,0.02145741545657863,0.0478035131587714
405,23.187,23.0,-0.88,0.30440329567188246,0.6344490811730494,0.005611126186602116,0.36758498377915366,0.020093179618462662,0.04787488128618002
406,23.208,23.06,-0.88,0.3026994940506079,0.6357275102488975,0.0050436190503433415,0.3684990790085302,0.01877096364483256,0.047947428841291446
407,23.269,23.11,-0.67,0.30106294587696186,0.6370052089426326,0.004502027471673499,0.3694296444069931,0.01749225836461524,0.04802114838186214
408,23.332,23.17,-0.86,0.29949562266069735,0.6382819552642057,0.003987149215744736,0.3703764902351027,0.016258551653647597,0.048096034061194025
409,23.394,23.23,-1.02,0.29799948434039353,0.6395575170651637,0.003499779975233396,0.3713394098184154,0.01507132736758544,0.04817208162051354
410,23.435,23.28,-0.85,0.29657647750318833,0.6408316518509831,0.00304071273117259,0.3723181792852751,0.013932064260061465,0.048249288378776886
411,23.54,23.33,-0.84,0.2952285335826291,0.6421041066023209,0.0026107371001014004,0.3733125573287677,0.012842234887195403,0.048327653219707244
412,23.561,23.39,-1.1,0.29395756703664655,0.6433746176050129,0.0022106386679875117,0.3743222849932906,0.011803304499543855,0.04840717657586876
413,23.623,23.44,-0.99,0.292765473507742,0.6446429102885585,0.0018411983114543992,0.37534708548602563,0.010816729922543645,0.04848786040963792
414,23.664,23.5,-0.88,0.29165412796756973,0.6459086990727996,0.001503191506919294,0.37638666401358095,0.009883958426487056,0.04856970819101191
415,23.725,23.55,-1.07,0.29062538284819395,0.6471716872225303,0.0011973876283445165,0.3774407076440839,0.009006426587048269,0.048652724872290214
416,23.766,23.61,-1.12,0.28968106616237205,0.6484315667098539,0.0009245492343692098,0.37850888519504083,0.008185559137356652,0.04873691685976511
417,23.827,23.66,-0.88,0.2888229796152363,0.6496880180842205,0.0006854313456125308,0.3795908471473122,0.007422767812611202,0.04882229198261354
418,23.91,23.72,-0.98,0.2880528967097424,0.6509407103501562,0.00048078071297790327,0.3806862255854558,0.006719450188241146,0.04890885945918932
419,23.931,23.77,-1.17,0.28737256084822094,0.6521893008527558,0.0003113350778290722,0.38179463416448245,0.006076988512628851,0.04899662986089366
420,23.973,23.83,-0.99,0.28678368343231997,0.6534334351710231,0.00017782242492822884,0.38291566810289746,0.005496748535444519,0.04908561507376066
421,24.034,23.89,-0.93,0.2862879419636055,0.6546727470191461,8.096022904434055e-05,0.3840489042017832,0.004980078332691249,0.04917582825784943
422,24.096,23.94,-1.14,0.28588697814710373,0.6559068581557812,2.1454696141528078e-05,0.38519390088973354,0.004528307129587043,0.04926728380452777
423,24.138,24.0,-1.12,0.28558239600009394,0.657135378301446,0.0,0.386350198293764,0.004142744122428831,0.049359997291760646
424,24.199,24.05,-0.93,0.2853757599684913,0.6583579050641822,1.7277515059675077e-05,0.38751731833676784,0.0038246773006181648,0.049453985437543826
425,24.282,24.1,-1.11,0.2852685930532033,0.6595740238737193,7.395504630120044e-05,0.38869476486232385,0.0035753722700580396,0.0495492660516408
426,24.302,24.16,-1.23,0.28526237494887724,0.6607833079244261,0.00017068605707457467,0.3898820237875863,0.0033960710791402014,0.0496458579857855
427,24.364,24.21,-1.02,0.2853585401974928,0.6619853181273441,0.0003081088958906071,0.3910785632846908,0.0032879910485586975,0.049743781082483764
428,24.426,24.27,-1.07,0.2855584763592943,0.6631796030715562,0.00048684602329624073,0.39228383399071814,0.0032523236062004836,0.04984305612249932
429,24.487,24.32,-1.32,0.2858635222035871,0.6643656989950528,0.0007075032400435114,0.3934972692458755,0.003290233128353253,0.04994370477109636
430,24.569,24.38,-1.19,0.2862749659219075,0.6655431297652128,0.0009706689178139206,0.3947182853593125,0.0034028557884521046,0.05004574952313486
431,24.65,24.43,-1.08,0.2867940433660277,0.6667114068690306,0.0012769132337990192,0.3959462819018683,0.0035912984145767242,0.05014921364716251
432,24.671,24.49,-1.24,0.2874219363131964,0.6678700294132845,0.0016267874104699829,0.3971806420250251,0.0038566373568765127,0.05025412112872336
433,24.712,24.55,-1.24,0.28815977076093985,0.6690184841349637,0.0020208229618364918,0.39842073280544754,0.004199917366056563,0.05036049661318901
434,24.774,24.6,-0.98,0.28900861525369737,0.6701562454223919,0.002459530947414735,0.3996659056146512,0.004622150484052914,0.050468365348458
435,24.835,24.66,-1.1,0.28996947924355376,0.6712827753475429,0.002943401235088314,0.40091549651334546,0.005124314948060517,0.05057775312784699
436,24.877,24.71,-1.29,0.29104331148736284,0.6723975237100144,0.0034729017740686456,0.4021688266698035,0.00570735410913551,0.050688686233436545
437,24.918,24.76,-1.1,0.2922309984826076,0.6734999280930163,0.004048477879210127,0.4034252028013093,0.006372175366677091,0.05080119138004799
438,25.042,24.82,-1.07,0.2935333629444207,0.674589413931585,0.004670551528007802,0.4046839176374448,0.007119649120175672,0.05091529565995335
439,25.062,24.87,-1.29,0.29495116232626695,0.6756653945930857,0.0053395206716743485,0.4059442504037944,0.007950607739645817,0.05103102648840653
440,25.103,24.93,-1.26,0.2964850873868227,0.6767272714699915,0.006055758561711668,0.40720546732466706,0.00886584455615888,0.05114841155012183
441,25.144,24.98,-1.12,0.29813576080556586,0.677774434084946,0.006819613093394995,0.4084668221436061,0.00986611287389013,0.0512674787468634
442,25.206,25.04,-1.31,0.29990373584950614,0.6788062602081882,0.00763140616762351,0.40972755666051724,0.010952125005072423,0.05138825614633159
443,25.248,25.09,-1.42,0.3017894950933315,0.6798221159875352,0.008491433072624482,0.41098690128419035,0.012124551329197332,0.05151077193254576
444,25.31,25.15,-1.2,0.3037934491950561,0.6808213560912353,0.00939996188698553,0.4122440755988498,0.013384019377744968,0.051635054357915
445,25.393,25.2,-1.23,0.30591593572910447,0.6818033238640437,0.010357232905464944,0.4134982889431397,0.014731112945664619,0.05176113169716875
446,25.413,25.26,-1.46,0.30815721807865193,0.6827673514968577,0.01136345808899587,0.4147487409997122,0.016166371230756104,0.05188903220332046
447,25.475,25.32,-1.31,0.31051748438894483,0.6837127602102098,0.012418820540240447,0.4159946223934586,0.017690288002052253,0.05201878406585447
448,25.516,25.37,-1.22,0.31299684658322624,0.6846388604519111,0.01352347400598683,0.4172351152964703,0.01930331079828375,0.05215041537134909
449,25.577,25.42,-1.37,0.31559533944281054,0.6855449521091764,0.014677542407586884,0.4184693940380702,0.021005840157478792,0.05228395406679513
450,25.639,25.48,-1.35,0.3183129197527497,0.686430324735646,0.0158811194004351,0.41969662571882355,0.022798228878709432,0.05241942792591878
451,25.7,25.53,-1.15,0.32114946551443124,0.6872942577938356,0.01713426796321766,0.4209159708281434,0.024680781316984927,0.05255686451881134
452,25.762,25.59,-1.28,0.32410477522635084,0.6881360209135879,0.018437020017458568,0.4221265838655675,0.02665375271230662,0.052696291185092586
453,25.824,25.64,-1.41,0.3271785672342379,0.6889548741670539,0.01978937607780966,0.4233276139658293,0.028717348553919133,0.05283773501072258
454,25.908,25.7,-1.22,0.330370479151666,0.6897500683606256,0.021191304933531874,0.42451820552763,0.03087172398082288,0.05298122280845855
455,25.928,25.75,-1.19,0.33368006735228706,0.6905208453440685,0.022642743361672473,0.425697498845708,0.033116983219630906,0.053126781101859887
456,25.97,25.81,-1.43,0.33710680653483693,0.6912664383369437,0.024143595872507445,0.4268646307455485,0.0354531790608354,0.05327443611270631
457,26.031,25.86,-1.37,0.3406500893620285,0.6919860722723038,0.025693734487837298,0.4280187352200131,0.037880312374520456,0.0534242137516953
458,26.115,25.92,-1.24,0.34430922617436294,0.6926789641576502,0.027292998552728924,0.4291589440672245,0.040398331666537286,0.053576139612290775
459,26.134,25.98,-1.45,0.34808344477976094,0.6933443234531756,0.028941194581323874,0.4302843875290726,0.04300713267611065,0.05373023896760839
460,26.194,26.03,-1.53,0.3519718903197604,0.6939813524674042,0.03063809613733581,0.4313941949296604,0.04570655801575528,0.05388653677023865
461,26.256,26.08,-1.31,0.35597362521287096,0.6945892467703692,0.03238344374981651,0.43248749531290354,0.04849639685428171,0.0540450576548942
462,26.338,26.14,-1.34,0.36008762917555037,0.6951671956244263,0.034176944864725875,0.433563418078281,0.05137638464356368,0.054205825943725264
463,26.358,26.19,-1.57,0.3643127993211437,0.6957143824327234,0.03601827383280153,0.43462109361345974,0.054346202889621845,0.05436886565411294
464,26.42,26.25,-1.38,0.36864795033699027,0.6962299852052837,0.037907071934165704,0.43565965392235767,0.05740547896848653,0.05453420050872926
465,26.483,26.3,-1.31,0.373091814739785,0.6967131770426414,0.039842947440018456,0.43667823324727323,0.06055378598724463,0.05470185394764834
466,26.525,26.36,-1.5,0.37764304320919456,0.6971631266369398,0.041825475711570276,0.43767596868416403,0.06379064269061444,0.05487184914232658
467,26.588,26.41,-1.48,0.38230020499965744,0.6975789987904149,0.043854199335941826,0.4386520007911988,0.0671155134133219,0.05504420901132508
468,26.628,26.47,-1.28,0.3870617884302215,0.6979599549511851,0.04592862829818901,0.43960547419203405,0.07052780807849604,0.05521895623767448
469,26.69,26.52,-1.42,0.3919262014521983,0.6983051537662597,0.048048240188165045,0.4405355381762078,0.0740268822422434,0.05539611328776671
470,26.75,26.58,-1.53,0.39689177229431505,0.6986137516516343,0.05021248044073583,0.44144134729925477,0.07761203718449042,0.05557570243161417
471,26.813,26.64,-1.3,0.4019567501849345,0.6988849033792608,0.052420762607863346,0.44232206198482743,0.08128252004611791,0.05575774576423803
472,26.855,26.69,-1.3,0.40711930615081765,0.699117762680567,0.05467246866115928,0.4431768491306043,0.08503752401235555,0.055942265227862886
473,26.916,26.75,-1.56,0.4123775338918138,0.6993114828660792,0.056966949323592815,0.44400488271934796,0.08887618854233174,0.05612928263455468
474,26.957,26.8,-1.44,0.4177294507307395,0.6994652174606439,0.05930352442905516,0.44480534443633163,0.09279759964460417,0.05631881968895561
475,27.019,26.85,-1.3,0.42317299863759306,0.6995781208537574,0.0616814833084839,0.4455774242943856,0.09680079019842928,0.0565108980108242
476,27.08,26.91,-1.47,0.42870604532711853,0.6996493489645804,0.0641000852012758,0.44632032126787,0.10088474032042878,0.05670553915717839
477,27.163,26.96,-1.54,0.4343263854285934,0.6996780599213263,0.06655855969071672,0.4470332439368945,0.1050483777761791,0.05690276464393105
478,27.244,27.02,-1.28,0.44003174172656356,0.6996634147548082,0.06905610716210092,0.4477154111431116,0.10929057843613649,0.05710259596694892
479,27.265,27.07,-1.3,0.4458197664711112,0.6996045781059973,0.07159189928214009,0.4483660526583122,0.11361016677521181,0.057305054622452424
480,27.307,27.13,-1.45,0.451688042756116,0.6995007189474243,0.0741650794981912,0.4489844098668918,0.11800591641521149,0.057510162126640854
481,27.348,27.18,-1.25,0.4576340859638476,0.6993510113182317,0.07677476355577259,0.4495697364631113,0.12247655070929729,0.05771794003438141
482,27.411,27.24,-1.15,0.46365534527414864,0.6991546350726217,0.07942004003286712,0.45012129916387766,0.12702074336759675,0.057928409956750124
483,27.494,27.3,-1.31,0.46974920523643643,0.6989107766413827,0.08209997088970426,0.45063837843741006,0.13163711912308235,0.0581415935772033
484,27.534,27.35,-1.26,0.4759129874027348,0.698618629806181,0.08481359203303378,0.4511202692476298,0.13632425443681848,0.05835751266619077
485,27.597,27.41,-1.0,0.4821439520199186,0.6982773964863459,0.08755991389428544,0.4515662818134979,0.14108067824167397,0.058576189094050636
486,27.618,27.46,-1.15,0.48843929977931955,0.6978862875379488,0.0903379220213496,0.45197574238190347,0.1459048727235926,0.0587976448420291
487,27.679,27.51,-1.25,0.4947961736218032,0.6974445235649693,0.0931465776839253,0.4523479940121566,0.15079527413950333,0.059021902011250384
488,27.742,27.57,-1.03,0.5012116605964221,0.6969513357422735,0.09598481849248253,0.4526823973696701,0.15575027367095115,0.05924898282941293
489,27.804,27.62,-1.01,0.5076827937707815,0.6964059666499733,0.09885155903094593,0.45297833152600636,0.16076821831252266,0.059478909654933854
490,27.824,27.68,-1.22,0.5142065541913056,0.6958076711185416,0.10174569150321833,0.45323519476224605,0.16584741179409546,0.05971170497824948
491,27.885,27.73,-1.05,0.5207798728916067,0.695155717083931,0.10466608639357472,0.45345240537275067,0.17098611553587373,0.05994739142001318
492,27.967,27.79,-0.88,0.5273996329471384,0.6944493864518989,0.10761159314083024,0.4536294024667552,0.17618254963511534,0.060185991725991456
493,28.008,27.84,-1.04,0.5340626715742801,0.6936879759707745,0.11058104082608196,0.45376564676561687,0.18143489388339173,0.060427528758547816
494,28.069,27.9,-1.06,0.5407657822719562,0.6928707981119997,0.1135732388737029,0.45386062139395095,0.18674128881316124,0.060672025484694914
495,28.13,27.95,-0.77,0.5475057170038832,0.6919971819578563,0.11658697776512392,0.4539138326632337,0.19209983677241468,0.0609195049607389
496,28.151,28.01,-0.81,0.5542791884195297,0.6910664740958402,0.11962102976485518,0.4539248108465808,0.19750860302614384,0.06116999031353354
497,28.212,28.07,-0.99,0.5610828721118666,0.6900780395191418,0.12267414965819008,0.453893110943262,0.2029656168833657,0.06142350471834351
498,28.273,28.12,-0.74,0.5679134089099148,0.6890312625326843,0.12574507550007055,0.4538183134312529,0.20846887284843427,0.0616800713732912
499,28.335,28.17,-0.64,0.5747674072040264,0.6879255476641409,0.12883252937466974,0.45370002500590045,0.2140163317953885,0.0619397134703386
500,28.395,28.23,-0.78,0.5816414453017588,0.6867603205793136,0.13193521816533194,0.45353787930273776,0.21960592216408434,0.062202454162768296
501,28.457,28.28,-0.7,0.5885320738121902,0.6855350290012238,0.13505183433451637,0.4533315376027399,0.22523554117685438,0.06246831652916826
502,28.499,28.34,-0.42,0.595435818056559,0.6842491436322061,0.13818105671336575,0.45308068951867636,0.230903056074463,0.0627373235339494
503,28.539,28.39,-0.55,0.6023491805031985,0.6829021590782205,0.14132155130056853,0.4527850536613212,0.23660630537016492,0.06300949798442167
504,28.601,28.45,-0.62,0.6092686432248251,0.6814935947745147,0.1444719720702938,0.45244437828407535,0.2423431001207163,0.06328486248442985
505,28.704,28.5,-0.39,0.6161906703762992,0.6800229959116585,0.1476309617890917,0.4520584419041711,0.2481112252132514,0.06356343938448696
506,28.724,28.56,-0.37,0.6231117106910441,0.6784899343608501,0.1507971528417695,0.45162705389822033,0.25390844066700186,0.06384525072826588
507,28.765,28.61,-0.59,0.63002819999434,0.6768940095972829,0.1539691680663567,0.4511500550694995,0.259732482948861,0.06413031819527353
508,28.826,28.67,-0.41,0.6369365637316918,0.6752348496203249,0.15714562159831597,0.45062731818421375,0.2655810663017931,0.06441866303954615
509,28.887,28.73,-0.24,0.6438332195104018,0.673512111869313,0.16032511972416774,0.45005874847400723,0.2714518840850763,0.06471030602425491
510,28.948,28.78,-0.41,0.650714579652412,0.6717254841338383,0.1635062617446762,0.4494442841021581,0.27734261012533223,0.06500526735218723
511,28.99,28.83,-0.39,0.6575770537564171,0.6698746854574876,0.16668764084765245,0.44878389659121676,0.283250900077253,0.06530356659215099
512,29.053,28.89,-0.07,0.6644170512672358,0.6679594670340682,0.16986784499029148,0.4480775912102223,0.2891743927929224,0.06560522260138704
513,29.116,28.94,-0.15,0.6712309840504365,0.6659796130953379,0.17304545779087446,0.44732540731981607,0.29511071169864017,0.06591025344406796
514,29.158,29.0,-0.28,0.6780152689702258,0.663934941789244,0.17621905942963773,0.4465274186735283,0.3010574661781791,0.06621867630593925
515,29.219,29.05,-0.03,0.6847663304686107,0.6618253060476185,0.17938722755859235,0.44568373367337194,0.30701225296144785,0.06653050740512456
516,29.281,29.11,0.05,0.6914806031438666,0.6596505944422251,0.18254853822008116,0.44479449557778533,0.3129726575176041,0.06684576189908902
517,29.321,29.16,-0.13,0.698154534326408,0.657410732027954,0.18570156677382152,0.443859882660115,0.3189362554516995,0.0671644537877641
518,29.422,29.22,-0.09,0.704784586650214,0.6551056811718923,0.1888448888320158,0.44288010831642965,0.32490061390396396,0.06748659581287941
519,29.442,29.27,0.16,0.711367240617974,0.6527354423669903,0.19197708120187829,0.4418554211223059,0.3308632929508643,0.06781219935357727
520,29.523,29.33,0.0,0.7178989971580857,0.6503000550290563,0.19509672283478185,0.4407861048388511,0.3368218470070816,0.06814127431840997
521,29.544,29.39,-0.09,0.7243763801715691,0.6477995982758598,0.19820239578118784,0.43967247836842244,0.34277382622752034,0.06847382903384405
522,29.586,29.44,0.18,0.7307959390668598,0.645234191687162,0.2012926861505289,0.43851489566040536,0.3487167779084359,0.0688098701294057
523,29.647,29.5,0.24,0.7371542512803967,0.6426039960444804,0.20436618507526655,0.43731374556717584,0.35464824788674004,0.06914940241960878
524,29.73,29.55,0.03,0.7434479247808926,0.6399092140493293,0.20742148967841176,0.436069451650171,0.3605657819365018,0.06949242878284628
525,29.831,29.6,0.19,0.7496736005551681,0.6371500910186653,0.2104572040438188,0.43478247193603564,0.366466927161644,0.06983895003748895
526,29.852,29.66,0.34,0.7558279550733848,0.6343269155562847,0.2134719401885527,0.4334532986231078,0.3723492333838451,0.07018896481549307
527,29.873,29.71,0.27,0.7619077027314802,0.6314400201990257,0.2164643190365704,0.4320824577389614,0.37821025452467,0.07054246943389021
528,29.934,29.77,0.28,0.7679095982685187,0.6284897820367572,0.21943297139278245,0.43067050875036084,0.38404754998093693,0.0708994577646012
529,29.976,29.82,0.57,0.7738304391566262,0.6254766233052449,0.22237653891631898,0.42921804412763365,0.3898586859923504,0.07125992110302735
530,30.04,29.88,0.52,0.7796670679611685,0.622401011951006,0.22529367509166778,0.42772568886580636,0.3956412370004745,0.07162384803580092
531,30.181,29.93,0.39,0.7854163746688643,0.6192634621672045,0.22818304619630456,0.426194099964791,0.4013927869981952,0.07199122430796362
532,30.202,29.99,0.64,0.7910752989815744,0.6160645348995624,0.2310433322634619,0.42462396587066426,0.40711093086890904,0.07236203268972695
533,30.222,30.05,0.75,0.7966408325735664,0.6128048383211829,0.2338732280387563,0.42301600587981075,0.41279327571476604,0.07273625284288912
534,30.243,30.1,0.52,0.8021100213101234,0.6094850282751332,0.2366714439294991,0.42137096950752795,0.4184374421733574,0.07311386118697481
535,30.326,30.16,0.59,0.8074799674254497,0.6061058086836039,0.23943670694559963,0.4196896358226972,0.42404106572228023,0.07349483076520914
536,30.367,30.21,0.81,0.812747831657921,0.6026679319224809,0.2421677616310489,0.4179728127502656,0.4296017979710653,0.07387913111049238
537,30.428,30.26,0.7,0.817910835340826,0.5991721991601869,0.24486337098507432,0.4162213363433623,0.43511730793996706,0.07426672811160036
538,30.49,30.32,0.65,0.8229662624468099,0.5956194606597096,0.24752231737210723,0.41443607002687427,0.44058528332509356,0.07465758387988686
539,30.531,30.37,0.92,0.8279114615842675,0.5920106160427723,0.25014340341967867,0.41261790381426217,0.4460034317493322,0.07505165661677114
540,30.592,30.43,0.97,0.8327438479440095,0.5883466145150529,0.25272545290332243,0.4107677534992466,0.4513694819985466,0.07544890048225582
541,30.653,30.48,0.77,0.8374609051946036,0.5846284550512586,0.25526731161753474,0.4088865598238082,0.4566811852425443,0.07584926546467989
542,30.714,30.54,0.96,0.8420601873248686,0.5808571865387988,0.2577678482318065,0.40697528762389446,0.4619363162403742,0.07625269725189225
543,30.757,30.59,1.09,0.8465393204320335,0.5770339078788341,0.2602259551307132,0.4050349249543704,0.4671326745295893,0.07665913710403444
544,30.818,30.65,0.96,0.8508960044541005,0.5731597680435915,0.2626405492370453,0.4030664821950101,0.47226808559916117,0.0770685217281655
545,30.899,30.7,0.96,0.8551280148449776,0.5692359660890091,0.2650105728169002,0.4010709911397454,0.47734040204575834,0.07748078315502964
546,30.919,30.76,1.23,0.8592332041909805,0.565263751121935,0.26733499426556195,0.399049504071851,0.48234750471312676,0.07789584861830125
547,30.959,30.82,1.15,0.8632095037673713,0.561244422221209,0.2696128088729189,0.397003092828011,0.4872873038143484,0.0783136404366263
548,31.02,30.87,0.98,0.8670549250336611,0.5571793283119699,0.2718430395671461,0.3949328478542025,0.4921577400367767,0.07873407589873373
549,31.102,30.92,1.24,0.8707675610664959,0.5530698679924907,0.27402473763536356,0.3928398772562178,0.4969567856294778,0.07915706715182873
550,31.122,30.98,1.32,0.8743455879290483,0.5489174893127449,0.2761569834200267,0.3907253058474304,0.5016824454730449,0.07958252109343311
551,31.184,31.03,1.12,0.8777872659759958,0.5447236895038031,0.27823888698995575,0.38859027419608333,0.5063327581316502,0.08001033926685762
552,31.265,31.09,1.2,0.8810909410933183,0.5404900146571053,0.2802695887851415,0.3864359376739274,0.5109057968871936,0.08044041776056267
553,31.306,31.14,1.42,0.8842550458722888,0.5362180593526571,0.2822482602347703,0.3842634655075687,0.5153996707554241,0.08087264711174248
554,31.347,31.2,1.26,0.8872781007171445,0.5319094662352664,0.28417410434821794,0.38207403983347576,0.5198125254839284,0.08130691221453726
555,31.409,31.25,1.18,0.8901587148859907,0.5275659255380286,0.28604635627895053,0.3798688547573465,0.5241425445318626,0.08174309223333448
556,31.471,31.31,1.44,0.8928955874644963,0.5231891745523604,0.2878642838613336,0.3776491154183738,0.5283879500313071,0.08218106052163426
557,31.533,31.36,1.46,0.8954875082719796,0.5187809970439053,0.28962718812037747,0.37541603705869786,0.5325470037301093,0.08262068454693057
558,31.575,31.42,1.24,0.8979333586995215,0.5143432226135979,0.29133440375448044,0.37317084409802675,0.5366180079160563,0.08306182582203879
559,31.657,31.48,1.43,0.9002321124797776,0.5098777260031214,0.29298529959122427,0.3709147692132055,0.5405993063222055,0.08350433984328837
560,31.677,31.53,1.57,0.9023828363882082,0.5053864263439991,0.2945792790162526,0.3686490524225423,0.5444892850132146,0.08394807603600342
561,31.74,31.58,1.4,0.9043846908754816,0.5008712863496046,0.2961157803752079,0.36637494017495625,0.5482863732525096,0.08439287770774885
562,31.8,31.64,1.43,0.9062369306308604,0.49633431144949164,0.2975942773485546,0.3640936844445934,0.5519890443501166,0.08483858200991053
563,31.841,31.69,1.69,0.907938905076442,0.49177754886557007,0.2990142792989016,0.36180654183228833,0.5555958164909756,0.08528501990824011
564,31.903,31.75,1.6,0.9094900587922009,0.48720308662975625,0.3003753315903124,0.35951477267570664,0.5591052535435693,0.08573201616299478
565,32.004,31.8,1.45,0.9108899318718291,0.48261305254278347,0.3016770158790642,0.35721964017005586,0.5625159658487084,0.08617938931925555
566,32.025,31.86,1.68,0.9121381602093881,0.47800961307390866,0.30291895037535743,0.35492240950100834,0.5658266109883434,0.0866269517079244
567,32.066,31.91,1.74,0.9132344757167895,0.4733949722012587,0.3041007900755657,0.3526243469910986,0.5690358945343065,0.08707450945781316
568,32.128,31.97,1.56,0.9141787064721395,0.46877137019254445,0.30522222696474405,0.35032671926045045,0.5721425707768885,0.0875218625192035
569,32.192,32.03,1.66,0.9149707767990154,0.464141082325863,0.3062829901892131,0.34803079240244233,0.5751454434331333,0.08796880469927475
570,32.232,32.08,1.86,0.9156107072767788,0.45950641755035265,0.30728284619911767,0.34573783117488616,0.5780433663347472,0.08841512370983141
571,32.294,32.14,1.71,0.9160986146820682,0.4548697170865713,0.3082215988609466,0.3434490982073498,0.5808352440955141,0.08886060122780169
572,32.376,32.19,1.67,0.9164347118616054,0.4502333529666447,0.3090990895400556,0.341165853225334,0.5835200327581173,0.0893050129690095
573,32.416,32.25,1.93,0.9166193075364463,0.4455997265144216,0.30991519715321086,0.3388893522920903,0.5860967404202719,0.08974812877571177
574,32.458,32.3,1.93,0.9166528060378037,0.4409712667659889,0.31066983819112964,0.3366208470688495,0.5885644278400993,0.09018971271833039
575,32.498,32.35,1.72,0.916535706974611,0.4363504288309491,0.3113629667109334,0.3343615840941468,0.5909222090206846,0.090629523211725
576,32.56,32.41,1.92,0.9162686048330008,0.43173969219489144,0.31199457429834127,0.33211280408290605,0.5931692517737955,0.09106731314626214
577,32.62,32.47,2.04,0.9158521885078865,0.4271415589635412,0.31256468999939935,0.3298757412459263,0.5953047782627823,0.09150283003385055
578,32.68,32.52,1.9,0.9152872407668242,0.4225585520491613,0.3130733802216537,0.3276516226302276,0.5973280655247095,0.09193581616907215
579,32.742,32.58,1.91,0.9145746376463122,0.4179932132999264,0.31352074860494783,0.3254416674802908,0.5992384459717697,0.09236600880553086
580,32.803,32.63,2.16,0.9137153477806592,0.4134481015731564,0.31390693586237234,0.3232470866196593,0.6010353078720617,0.09279314034752278
581,32.844,32.69,2.04,0.9127104316635347,0.4089257907534348,0.3142321195922191,0.32106908185179284,0.60271809580985,0.09321693855707866
582,32.947,32.74,1.88,0.9115610408423419,0.40442886771673037,0.31449651406196305,0.31890884537858954,0.6042863111254587,0.09363712677636109
583,32.968,32.8,2.02,0.9102684170455914,0.39995993024171583,0.3147003699653064,0.31676755923469674,0.6057395123349846,0.09405342416530811
584,33.009,32.85,2.07,0.9088338912435203,0.39552158486952005,0.31484397415328363,0.31464639473551587,0.6070773155300357,0.09446554595432832
585,33.111,32.91,1.84,0.9072588826422836,0.39111644471319545,0.31492764934038486,0.31254651193667427,0.6082993947576565,0.09487320371182262
586,33.132,32.96,1.94,0.9055448976120852,0.3867471272182542,0.31495175378662843,0.31046905910277545,0.6094054823805111,0.09527610562633958
587,33.174,33.02,2.13,0.9036935285496616,0.38241625187575123,0.3149166809565127,0.30841517218337927,0.6103953694173131,0.09567395680321926
588,33.234,33.07,1.96,0.9017064526755325,0.378126437889575,0.3148228591558254,0.3063859742943046,0.6112689058634015,0.0960664595756177
589,33.276,33.13,1.88,0.8995854307664374,0.3738803017998317,0.31467075114729737,0.3043825752024895,0.6120260009912943,0.09645331382981502
590,33.337,33.18,2.13,0.8973323058233633,0.3696804550644238,0.31446085374602734,0.3024060708127908,0.6126666236310114,0.09683421734467093
591,33.398,33.24,2.11,0.8949490016756421,0.3655295016010691,0.31419369739554065,0.30045754265513513,0.613190802429946,0.09720886614501788
592,33.481,33.29,1.91,0.8924375215216527,0.36143003529209966,0.31386984572530746,0.2985380573703529,0.6135986260920175,0.09757695486871949
593,33.501,33.35,2.13,0.8897999464067358,0.3573846374544715,0.31348989509051367,0.2966486661929421,0.6138902435958273,0.09793817714707205
594,33.561,33.4,2.21,0.8870384336389698,0.3533958742775214,0.3130544740948756,0.294790404429024,0.6140658643915294,0.09829222599818123
595,33.624,33.46,2.03,0.8841552151435085,0.34946629423113645,0.3125642430972836,0.29296429092796034,0.6141257585761327,0.09863879423291774
596,33.685,33.51,2.0,0.8811525957562057,0.34559842544719244,0.3120198937029614,0.2911713275466411,0.6140702570469503,0.09897757487303409
597,33.727,33.57,2.25,0.8780329514572605,0.341794773077346,0.3114221482396699,0.28941249860616797,0.6138997516329217,0.09930826158097737
598,33.769,33.62,2.11,0.8747987275456176,0.3380578166304853,0.3107717592194083,0.28768877034113943,0.6136146952035346,0.09963054910086055
599,33.831,33.67,1.95,0.8714524367548968,0.33439000729330226,0.3100695087860883,0.28600109034178894,0.6132156017550361,0.09994413370997551
600,33.893,33.73,2.16,0.8679966573116814,0.33079376523754744,0.3093162081497315,0.2843503869890107,0.6127030464735836,0.10024871368013427
601,33.954,33.78,2.19,0.8644340309371455,0.3272714769175511,0.30851269700782824,0.2827375688820476,0.6120776657749611,0.10054398974802753
602,34.016,33.84,1.93,0.8607672607931622,0.3238254923616036,0.30765984295453147,0.28116352425855445,0.6113401573204219,0.10082966559374212
603,34.077,33.9,2.03,0.8569991093742074,0.3204581224608323,0.30675854087827964,0.2796291204070585,0.6104912800081548,0.10110544832658737
604,34.119,33.95,2.17,0.8531323963465143,0.31717163625933403,0.30580971234831683,0.2781352030723831,0.6095318539398196,0.10137104897740859
605,34.242,34.01,2.0,0.8491699963360572,0.3139682582495042,0.3048143049904846,0.2766825958551023,0.6084627603615205,0.10162618299660127
606,34.263,34.06,1.94,0.8451148366670161,0.31085016567674073,0.3037732918525726,0.27527209960647925,0.6072849415784987,0.10187057075706042
607,34.284,34.12,2.18,0.8409698950524281,0.30781948585795116,0.3026876707594044,0.27390449182060755,0.6059994008427525,0.10210393806126443
608,34.326,34.17,2.17,0.8367381972387946,0.30487829351849427,0.3015584636577639,0.2725805260255394,0.6046072022127429,0.10232601665160634
609,34.388,34.23,1.98,0.8324228146064971,0.30202860815234384,0.30038671595125904,0.27130093117503745,0.6031094703842909,0.10253654472299033
610,34.45,34.28,2.19,0.8280268617279724,0.29927239141039197,0.2991734958252487,0.270066411042387,0.6015073904917652,0.10273526743662181
611,34.513,34.34,2.27,0.8235534938857516,0.2966115445219067,0.2979198935620259,0.2688776436175805,0.5998022078786777,0.10292193743384144
612,34.575,34.39,2.08,0.8190059045526942,0.29404790575422196,0.2966270208464823,0.26773528050931444,0.5979952278368367,0.10309631534880156
613,34.595,34.45,2.08,0.8143873228370232,0.2915832479157762,0.29529601006239037,0.26663994635373606,0.5960878153132307,0.10325817031875617
614,34.657,34.5,2.28,0.8097010108950796,0.2892192759076601,0.29392801357927645,0.26559223823256556,0.5940813945838468,0.1034072804906874
615,34.698,34.56,2.1,0.8049502613149836,0.2869576243289106,0.29252420302977533,0.26459272510366383,0.5919774488936442,0.10354343352291799
616,34.759,34.61,1.95,0.8001383944746054,0.28479985514091516,0.2910857685773854,0.2636419472471544,0.5897775200618742,0.10366642708026645
617,34.841,34.67,2.13,0.795268755877404,0.28274745539641877,0.2896139181746309,0.262740415729977,0.5874832080519046,0.10377606932118177
618,34.88,34.72,2.16,0.7903447134698226,0.28080183503871214,0.28810987681177985,0.26188861189135504,0.5850961705046462,0.10387217937517239
619,34.942,34.78,1.88,0.7853696549440999,0.27896432477660565,0.2865748857564507,0.26108698685112686,0.5826181222345913,0.10395458780876811
620,35.024,34.83,1.97,0.7803469850304897,0.27723617404082557,0.28501020178465314,0.26033596104230694,0.5800508346873741,0.10402313707822877
621,35.044,34.89,2.09,0.7752801227830715,0.27561854902753125,0.28341709640402957,0.2596359237687178,0.5773961353576864,0.10407768196721388
622,35.086,34.94,1.91,0.7701724988635099,0.2741125308347593,0.2817968550702415,0.25898723278821106,0.5746559071662959,0.10411809000765447
623,35.147,35.0,1.85,0.7650275528273224,0.27271911369773494,0.2801507763975007,0.2583902139219956,0.5718320877947981,0.10414424188211051
624,35.209,35.05,2.13,0.7598487304174002,0.27143920332911126,0.27848017136420206,0.25784516069076574,0.5689266689766523,0.10415603180590366
625,35.292,35.1,2.09,0.7546394808697588,0.2702736153702451,0.27678636251458766,0.25735233397839286,0.5659416957429714,0.10415336788727052
626,35.313,35.16,1.97,0.7494032542367146,0.26922307395959594,0.2750706831573904,0.25691196172382674,0.5628792656214957,0.10413617246370817
627,35.377,35.22,2.33,0.744143498732913,0.2682882104242639,0.27333447656242094,0.25652423864169555,0.559741527787195,0.10410438241260982
628,35.437,35.27,2.51,0.7388636581098453,0.2674695621005638,0.27157909515608686,0.2561893259719869,0.5565306821630387,0.1040579494342659
629,35.497,35.33,2.33,0.7335671690646298,0.2667675712893623,0.26980589971684665,0.25590735125925795,0.5532489784696382,0.10399684030540592
630,35.538,35.38,2.41,0.7282574586888106,0.2661825843516979,0.2680162585715557,0.2556784081621703,0.5498987152227154,0.10392103710167604
631,35.626,35.44,2.72,0.722937941962733,0.26571485094996233,0.2662115467936089,0.25550255629465907,0.5464822386776735,0.10383053738772638
632,35.668,35.49,2.58,0.7176120193006997,0.2653645234395988,0.26439314540379816,0.2553798211003809,0.543001941720884,0.10372535437389431
633,35.689,35.55,2.51,0.7122830741516725,0.2651316564158343,0.26256244057486505,0.2553101937621247,0.5394602627075749,0.10360551703879027
634,35.75,35.6,2.81,0.7069544706597949,0.2650162064193566,0.26072082284076387,0.2552936311476987,0.5358596842464868,0.10347107021737272
635,35.812,35.66,2.85,0.7016295513885389,0.26501803180403943,0.25886968631166524,0.25533005579352513,0.532202731931726,0.10332207465433665
636,35.855,35.71,2.57,0.6963116351118039,0.26513689276884445,0.25701042789571316,0.25541935592687115,0.5284919730225026,0.10315860702287946
637,35.916,35.77,2.78,0.6910040146747768,0.2653724515550127,0.25514444652847923,0.2555613855274395,0.5247300150716908,0.10298075990916092
638,35.978,35.82,2.94,0.6857099549267863,0.26572427280865185,0.25327314241096893,0.25575596442893883,0.5209195045044162,0.10278864176303239
639,36.039,35.88,2.76,0.6804326907277849,0.26619182410784237,0.25139791625695745,0.2560028784611981,0.517063125148103,0.10258237681589075
640,36.123,35.93,2.69,0.6751754250294905,0.266774476652415,0.24952016855032327,0.25630187963338086,0.5131635967156108,0.10236210496679887
641,36.142,35.99,2.9,0.6699413270316741,0.26747150611357984,0.2476412988129226,0.25665268635884436,0.5092236732433041,0.10212798163823955
642,36.184,36.04,2.7,0.6647335304135991,0.26828209363962996,0.2457627048834368,0.257054983722037,0.5052461414861091,0.10188017760300774
643,36.245,36.1,2.48,0.6595551316401942,0.26920532701303007,0.24388578220753493,0.25750842378751043,0.5012338192717654,0.10161887878380786
644,36.327,36.15,2.61,0.6544091883422261,0.27024020195339576,0.24201192313960915,0.2580126259507142,0.497189553816584,0.10134428602710659
645,36.409,36.21,2.59,0.6492987177695365,0.2713856235601936,0.24014251625627794,0.2585671773297948,0.49311622000507854,0.10105661485272749
646,36.429,36.26,2.3,0.6442266953163552,0.27264040788848676,0.23827894568182023,0.25917163319721737,0.4890167186358119,0.10075609518062205
647,36.469,36.32,2.29,0.6391960531177137,0.27400328365073556,0.23642259042565875,0.2598255174497836,0.4848939746357558,0.10044297103623037
648,36.533,36.37,2.45,0.6342096787160431,0.2754728940375196,0.23457482373199456,0.2605283231154909,0.48075093524540036,0.10011750023582565
649,36.594,36.42,2.22,0.6292704137970719,0.2770477986500607,0.23273701244172365,0.2612795128955424,0.4765905681767898,0.09977995405321655
650,36.636,36.48,2.11,0.6243810529940979,0.2787264755375559,0.23091051636677537,0.2620785197396723,0.47241585974657263,0.099430616869162
651,36.719,36.53,2.32,0.6195443427596108,0.28050732333251466,0.22909668767697497,0.2629247474528242,0.46822981298610555,0.09906978580480372
652,36.823,36.59,2.23,0.6147629803031226,0.28238866347744507,0.22729687029947937,0.26381757133107037,0.464035445730627,0.09869777034034402
653,36.844,36.65,1.98,0.6100396125939399,0.2843687425363378,0.22551239933079792,0.26475633882449373,0.4598357886895056,0.09831489192012188
654,36.865,36.7,2.11,0.6053768354274814,0.2864457345845181,0.22374460046137545,0.26574037022464414,0.4556338834995787,0.09792148354517305
655,36.925,36.76,2.15,0.6007771925535533,0.2886177436706207,0.22199478941272616,0.26676895937414413,0.45143278076362325,0.09751788935430854
656,36.987,36.81,1.9,0.5962431748648217,0.29088280634468244,0.22026427138712343,0.26784137439611144,0.44723553807599753,0.09710446419473467
657,37.006,36.87,1.83,0.5917772196435291,0.29323889424661054,0.21855434052978026,0.26895685844144573,0.4430452180374666,0.09668157318325522
658,37.07,36.92,2.02,0.5873817098643535,0.29568391674952144,0.21686627940330824,0.27011463045256967,0.43886488626119924,0.09624959125909148
659,37.152,36.98,1.83,0.5830589735511932,0.2982157236526152,0.21520135847414015,0.2713138859425818,0.4346976093718853,0.09580890272932202
660,37.192,37.03,1.64,0.5788112831855845,0.3008321079183463,0.21356083561056605,0.27255379778879213,0.4305464529998558,0.09535990080789108
661,37.254,37.09,1.78,0.5746408551644406,0.3035308084486861,0.21194595559201465,0.2738335170393826,0.4264144797720298,0.09490298714905554
662,37.314,37.14,1.77,0.5705498493048462,0.3063095128952424,0.2103579496292011,0.27515217373163037,0.42230474730146117,0.09443857137606024
663,37.375,37.2,1.49,0.5665403683937443,0.3091658604979546,0.20879803489475493,0.276508877719904,0.4182203061771849,0.09396707060579591
664,37.415,37.25,1.55,0.5626144577804465,0.31209744494708946,0.2072674140639009,0.27790271951164874,0.41416419795598136,0.0934889089702092
665,37.456,37.31,1.64,0.5587741050099954,0.31510181726335407,0.2057672748647161,0.27933277110976495,0.4101394531576057,0.09300451713526325
666,37.517,37.36,1.44,0.5550212394954764,0.31817648869111115,0.2042987896374675,0.28079808686001473,0.40614908926495435,0.09251433181828725
667,37.579,37.42,1.32,0.5513577322274182,0.3213189335999139,0.2028631149024925,0.28229770430233714,0.4021961087305432,0.09201879530458522
668,37.641,37.47,1.56,0.5477853955184454,0.32452659238979603,0.20146139093601942,0.28383064502519956,0.3982834969905969,0.09151835496416291
669,37.682,37.53,1.45,0.5443059827813646,0.3277968743959449,0.20009474135327593,0.2853959155222009,0.3944142204879869,0.09101346276936345
670,37.743,37.58,1.24,0.5409211883388746,0.3311271607885349,0.1987642726982194,0.28699250805004645,0.39059122470518814,0.09050457481411202
671,37.805,37.64,1.4,0.537632647263088,0.33451480746364165,0.19747107403923572,0.2886194014868222,0.38681743220839515,0.08999215083536835
672,37.889,37.69,1.46,0.5344419352430682,0.3379571479212902,0.19621621657023947,0.29027556218929323,0.3830957407039272,0.08947665373729034
673,37.909,37.75,1.2,0.5313505684786428,0.34145149612680564,0.19500075321671934,0.29195994484785687,0.37942902110804194,0.08895854911856058
674,37.95,37.8,1.19,0.5283600035988454,0.3449951493517387,0.19382571824633663,0.2936714933379497,0.37582011563125894,0.0884383048033171
675,38.011,37.85,1.34,0.5254716376034775,0.34858539099072233,0.19269212688369547,0.2954091415670372,0.37227183587828694,0.08791639037612009
676,38.072,37.91,1.14,0.5226868078264482,0.35221949335068514,0.19160097492894465,0.29717181431656287,0.36878696096462166,0.0873932767213718
677,38.134,37.97,1.01,0.5200067919196771,0.35589472040895004,0.19055323837991858,0.2989584280782953,0.3653682356508192,0.08686943556758295
678,38.195,38.02,1.25,0.517432807856426,0.3596083305368816,0.1895498730575545,0.3007678918844527,0.36201836849538066,0.0863453390368192
679,38.277,38.08,1.23,0.5149660139529572,0.3633575791858797,0.18859181423435062,0.30259910813080737,0.3587400300271259,0.0858214591995677
680,38.298,38.13,0.96,0.5126075089074431,0.36713972153263535,0.18767997626565705,0.3044509733917371,0.35553585093787377,0.08529826763517409
681,38.339,38.19,1.1,0.5103583318550405,0.3709520150807166,0.18681525222357526,0.30632237922604433,0.3524084202962317,0.0847762349979301
682,38.399,38.24,1.19,0.5082194624380518,0.37479172221573354,0.18599851353320665,0.30821221297238743,0.34936028378331474,0.08425583058885033
683,38.459,38.3,1.01,0.5061918208901474,0.37865611271155575,0.18523060961092158,0.31011935853341294,0.34639394195121914,0.08373752193319099
684,38.521,38.35,0.97,0.5042762681336778,0.38254246618531124,0.18451236750418235,0.3120426971482099,0.34351184850506145,0.0832217743638156
685,38.562,38.41,1.18,0.5024736058891751,0.38644807449914825,0.18384459153228747,0.31398110815332436,0.34071640860939095,0.08270905061053482
686,38.623,38.46,1.02,0.5007845767962161,0.39037024410695087,0.1832280629273304,0.3159334697329115,0.3380099772198001,0.08219981039551803
687,38.684,38.52,0.86,0.4992098645448795,0.3943062983443433,0.1826635394746926,0.3178986596585681,0.33539485744056274,0.08169451003481631
688,38.724,38.57,1.02,0.497750094017074,0.39825357966044067,0.18215175515245602,0.3198755560191538,0.3328732989091426,0.08119360204595773
689,38.786,38.63,1.03,0.49640583143704076,0.4022094517899012,0.1816934197691985,0.32186303794062554,0.3304474962084181,0.08069753476150049
690,38.827,38.68,0.76,0.4951775845303652,0.40617130186392336,0.18128921859971742,0.3238599862956983,0.32811958730744656,0.08020675194840078
691,38.889,38.74,0.84,0.4940658026908371,0.4101365424589585,0.18093981201827936,0.3258652844031162,0.32589165203154813,0.07972169243307917
692,38.994,38.79,1.0,0.4930708771545205,0.41410261358207295,0.1806458351290449,0.327877818716471,0.32376571056246745,0.07924278973213156
693,39.014,38.85,0.83,0.492193141180398,0.4180669845920955,0.18040789739337804,0.32989647950274914,0.3217437219693231,0.07877047168872175
694,39.055,38.9,0.75,0.4914328702369481,0.42202715605591445,0.180226582253753,0.3319201615111237,0.3198275827710147,0.07830516011478615
695,39.118,38.96,0.99,0.49079028219400006,0.42598066153949926,0.1801024467539281,0.33394776463284565,0.318019125530743,0.07784727043922297
696,39.159,39.01,0.9,0.49026553751922514,0.4299250693333823,0.18003602115504624,0.3359781945532284,0.3163201174833236,0.07739721136221969
697,39.221,39.07,0.71,0.48985873947864617,0.4338579841124446,0.1800278085473722,0.338010363396606,0.31473225919599424,0.07695538451582726
698,39.283,39.12,0.87,0.48956993434058543,0.4377770485299214,0.18007828445745325,0.34004319036493225,0.3132571832634565,0.07652218413083525
699,39.385,39.17,0.95,0.48939911158254196,0.441679944745568,0.18018789645058794,0.3420756023705228,0.31189645303793284,0.07609799670995122
700,39.405,39.23,0.72,0.48934620410060153,0.44556439588790697,0.1803570637285696,0.34410653466343627,0.31065156139504657,0.07568320070727755
701,39.445,39.28,0.73,0.48941108842109343,0.4494281674505074,0.1805861767226872,0.3461349314542649,0.30952392953633817,0.07527816621410958
702,39.487,39.34,0.92,0.4895935849142939,0.45326906862232696,0.1808755966819627,0.348159746533513,0.30851490582926067,0.07488325465111878
703,39.55,39.4,0.75,0.4898934580100565,0.45708495355227097,0.18122565525669226,0.3501799438889308,0.3076257646855157,0.07449881846702526
704,39.611,39.45,0.61,0.49031041641532036,0.4608737225482494,0.18163665407750973,0.3521944983220621,0.3068577054785886,0.07412520084390616
705,39.652,39.51,0.81,0.49084411333349026,0.4646333232111101,0.18210886433033346,0.35420239606494924,0.3062118515013371,0.07376273540929708
706,39.712,39.56,0.79,0.4914941466857492,0.4683617515038746,0.18264252632768704,0.3562026353975319,0.3056892489644885,0.0734117459552308
707,39.773,39.62,0.53,0.4922600593344193,0.47205705275669074,0.1832378490770246,0.3581942272657705,0.3052908660368733,0.07307254616435734
708,39.835,39.67,0.69,0.4931413393085408,0.47571732260792243,0.1838950098468545,0.3601761958999959,0.30501759192819755,0.07274543934331427
709,39.875,39.73,0.81,0.49413742003188943,0.4793407078818063,0.1846141537316446,0.3621475794325122,0.3048702360151424,0.07243071816355225
710,39.977,39.78,0.66,0.4952476805537206,0.4829254074031314,0.18539539321662837,0.36410743051327693,0.3048495270115597,0.0721286644098803
711,39.997,39.84,0.63,0.4964714457825969,0.4864696727494417,0.18623880774362406,0.36605481692268294,0.3049561121835152,0.07183954873706398
712,40.08,39.89,0.86,0.4978079867237225,0.4899718089413421,0.18714444327888058,0.36798882218091367,0.3051905566099654,0.07156363043483228
713,40.101,39.95,0.75,0.49925652072029236,0.49343017507156045,0.18811231188390715,0.36990854615362245,0.30555334248991617,0.07130115720161753
714,40.162,40.0,0.57,0.5008162116994574,0.4968431848734608,0.18914239129026625,0.371813105653638,0.30604486849697354,0.07105236492728902
715,40.224,40.06,0.72,0.5024861704235986,0.5002093072297045,0.19023462447936315,0.3737016350381757,0.3066654491822591,0.0708174774850641
716,40.285,40.11,0.72,0.5042654547476902,0.5035270666217192,0.19138891926834242,0.3755732868007351,0.3074153144267127,0.0705967065327155
717,40.306,40.17,0.49,0.5061530698836154,0.5067950435205998,0.19260514790328384,0.3774272321566186,0.3082946089438039,0.07039025132318703
718,40.369,40.22,0.58,0.508147968672347,0.510011874720061,0.1938831466609466,0.37926266162092015,0.3093033918336341,0.07019829852478722
719,40.45,40.28,0.75,0.5102490518649561,0.5131762536121182,0.19522271546037137,0.3810787855778619,0.3104416361893642,0.07002102205120667
720,40.491,40.33,0.59,0.5124551684134354,0.516286930406257,0.19662361748575527,0.382874834840396,0.31170922875685025,0.06985858290168208
721,40.533,40.39,0.53,0.5147651157723321,0.519342712292987,0.1980855788220826,0.38465006119904616,0.3131059696483287,0.06971112901168638
722,40.614,40.44,0.79,0.5171776402121874,0.5223424635528006,0.19960828810501272,0.38640373795901856,0.3146315721110005,0.06957879511452594
723,40.676,40.5,0.73,0.5196914371458046,0.525285105611648,0.20119139618653803,0.3881351604645622,0.31628566235139877,0.06946170261417954
724,40.717,40.55,0.53,0.5223051514684003,0.5281696170440929,0.202834515817956,0.38984364660937154,0.31806777941646763,0.06935995946965133
725,40.818,40.6,0.67,0.5250173779127127,0.5309950335253499,0.20453722135172478,0.39152853733162285,0.31997737513233443,0.06927366009104315
726,40.839,40.66,0.72,0.5278266614201912,0.5337604477334446,0.20629904846380698,0.39318919709212363,0.32201381410182356,0.06920288524749434
727,40.879,40.72,0.51,0.5307314975294807,0.5364650092027566,0.20811949389812318,0.39482501433409534,0.3241763737617779,0.0691477019871279
728,40.961,40.77,0.52,0.5337303327835138,0.5391079241302671,0.20999801523466924,0.39643540192342014,0.32646424450122974,0.06910816356917979
729,40.981,40.83,0.71,0.5368215651566097,0.5416884551359255,0.2119340306827438,0.39801979756860306,0.32887652984142784,0.06908430940852504
730,41.022,40.88,0.55,0.5400035445030511,0.5442059209786558,0.21392691890067236,0.39957766421999685,0.33141224667868247,0.06907616503283333
731,41.083,40.94,0.41,0.5432745730286717,0.5466596962296202,0.21597601884338616,0.40110849044790686,0.33407032559093225,0.06908374205258688
732,41.145,40.99,0.62,0.5466329057870403,0.5490492109044331,0.21808062963918198,0.40261179079915294,0.33684961120889223,0.06910703814416332
733,41.187,41.05,0.63,0.5500767512019061,0.551373950056054,0.22024001049696593,0.4040871061314871,0.3397488626525998,0.06914603704613831
734,41.25,41.1,0.36,0.5536042716176262,0.5536334533300692,0.22245338064527775,0.4055340039250253,0.34276675403411444,0.06920070856893715
735,41.311,41.16,0.46,0.5572135838793237,0.5558273144840584,0.22471991930437069,0.40695207856968824,0.3459018750270611,0.06927100861795342
736,41.374,41.21,0.55,0.5609027599444988,0.5579551808727294,0.22703876569259226,0.40834095162762335,0.3491527315036631,0.0693568792302453
737,41.416,41.27,0.39,0.5646698275277297,0.5600167529005088,0.2294090190682661,0.40970027206974863,0.3525177462398279,0.06945824862492858
738,41.477,41.32,0.39,0.568512770779971,0.5620117834432959,0.2318297388081379,0.41102971648595077,0.35599525968873497,0.06957503126740855
739,41.558,41.38,0.6,0.5724295310037879,0.5639400772410946,0.2342999445232552,0.41232898926897626,0.359583530823268,0.06970712794757744
740,41.579,41.43,0.48,0.5764180074057375,0.565801490263155,0.23681861621301747,0.4135978227723199,0.36328073804755584,0.06985442587203089
741,41.641,41.49,0.29,0.5804760578870146,0.567595929047107,0.23938469445809418,0.4148359774423411,0.367084980177826,0.07001679877025341
742,41.703,41.54,0.45,0.5846014998734166,0.569323350013371,0.24199708065293102,0.41604324192454895,0.37099427749272973,0.07019410701460883
743,41.743,41.6,0.48,0.5887921111856275,0.570983758755914,0.24465463727863052,0.4172194331436168,0.3750065728532481,0.07038619775387535
744,41.805,41.65,0.25,0.5930456309507772,0.5725772093102491,0.2473561882170736,0.4183643963563613,0.37911973289217626,0.07059290506003012
745,41.907,41.71,0.36,0.5973597605561405,0.5741038033994351,0.2501005191071763,0.41947800517675726,0.38333154927304863,0.07081405008801153
746,41.927,41.76,0.49,0.601732164645744,0.5755636896587831,0.2528863777441781,0.42056016157207543,0.3876397400182387,0.07104944124823702
747,42.01,41.82,0.33,0.6061604721605219,0.5769570628399588,0.2557124745228629,0.4216107958292874,0.39204195090584204,0.07129887439171254
748,42.031,41.87,0.3,0.6106422774224993,0.5782841629952399,0.25857748292557137,0.4226298664909741,0.3965357569348263,0.07156213300761911
749,42.094,41.92,0.55,0.6151751412633012,0.5795452746427758,0.2614800400557577,0.42361736026007507,0.4011186638578372,0.07183898843326608
750,42.157,41.98,0.49,0.6197565921971194,0.5807407259137501,0.26441874721775016,0.42457329187277415,0.4057881097809674,0.07212920007626081
751,42.177,42.03,0.31,0.6243841276381231,0.5818708876823601,0.26739217054332054,0.4254977039386127,0.41054146682972353,0.07243251564869534
752,42.299,42.09,0.5,0.6290552151621607,0.5829361726795089,0.2703988416656579,0.4263906667466249,0.4153760428803757,0.07274867141309499
753,42.319,42.15,0.55,0.6337672938125096,0.5839370345910494,0.27343725844138966,0.4272522780360108,0.4202890833558377,0.0730773924398348
754,42.36,42.2,0.35,0.6385177754493935,0.5848739671413256,0.27650588572134677,0.4280826627296918,0.42527777308515974,0.07341839287573645
755,42.402,42.26,0.38,0.6433040461429693,0.5857475031626725,0.27960315617076237,0.4288819726291639,0.4303392382256182,0.07377137622360937
756,42.462,42.31,0.54,0.6481234676094775,0.5865582136514745,0.28272747113952734,0.4296503860692849,0.43547054824628734,0.07413603563254496
757,42.523,42.37,0.41,0.6529733786902053,0.5873067068113678,0.2858772015830871,0.4303881075318056,0.44066871797185636,0.07451205419880584
758,42.586,42.42,0.33,0.6578510968728135,0.5879936270842173,0.28905068903450865,0.4310953672164799,0.4459307096853081,0.07489910527716583
759,42.648,42.48,0.6,0.6627539198544066,0.5886196541695673,0.2922462466281617,0.4317724205685254,0.45125343528792866,0.07529685280253152
760,42.689,42.53,0.62,0.6676791271455579,0.589185502033296,0.29546216017537946,0.4324195477610192,0.4566337585149972,0.07570495162161556
761,42.73,42.59,0.44,0.6726239817143288,0.5896919179061857,0.29869668929239407,0.43303705313058394,0.46206849720538967,0.07612304783436782
762,42.791,42.64,0.63,0.6775857316691851,0.5901396812730697,0.3019480685807471,0.43362526456459244,0.46755442562326843,0.076550779144812
763,42.851,42.7,0.75,0.6825616119796059,0.5905296028531898,0.30521450886024903,0.43418453283823294,0.4730882768300039,0.07698777522087796
764,42.913,42.75,0.58,0.687548846233116,0.5908625235723814,0.30849419845433385,0.4347152309002533,0.47866674510444923,0.07743365806280003
765,42.954,42.81,0.58,0.6925446484274091,0.5911393135277403,0.31178530452724407,0.43521775310724753,0.48428648840964533,0.07788804237966396
766,43.035,42.86,0.81,0.6975462247961635,0.591360870945474,0.3150859744719829,0.4356925144076482,0.48994413090398714,0.07835053597369228
767,43.079,42.92,0.68,0.7025507756670812,0.591528121132691,0.31839433734760286,0.436139949477523,0.49563626549482237,0.07882074013184058
768,43.16,42.97,0.6,0.7075554973505715,0.591642015423884,0.3217085053642313,0.4365605118105443,0.5013594564323551,0.07929825002423938
769,43.181,43.03,0.84,0.7125575840573676,0.5917035301228445,0.32502657541417646,0.43695467276431527,0.5071102419416297,0.0797826551089498
770,43.242,43.08,0.88,0.7175542298432532,0.5917136654406693,0.328346630647443,0.43732292056488675,0.512885136890282,0.08027353954241806
771,43.283,43.14,0.65,0.7225426305789894,0.5916734444304095,0.33166674208996094,0.437665759271,0.5186806354896538,0.08077048259495934
772,43.343,43.19,0.84,0.7275199859434447,0.5915839119188459,0.33498497030275504,0.4379837076994957,0.5244932140267876,0.0812730590705869
773,43.405,43.25,1.0,0.7324835014378638,0.5914461334358632,0.3382993670801873,0.43827729831345713,0.5303193336247602,0.08178083973051994
774,43.446,43.3,0.85,0.7374303904191363,0.591261194141926,0.3416079771852871,0.4385470760749463,0.5361554430287435,0.08229339171976076
775,43.508,43.35,0.87,0.7423578761498425,0.5910301977542466,0.34490884011999196,0.4387935972646927,0.5419979814150948,0.08281027899620298
776,43.57,43.41,1.15,0.7472631938627625,0.5907542654723364,0.3481999919278851,0.4390174282716455,0.5478433812207272,0.0833310627617585
777,43.633,43.47,1.07,0.752143592837453,0.5904345349037118,0.35147946702684996,0.43921914435560716,0.5536880709899733,0.08385530189495942
778,43.695,43.52,0.96,0.7569963384863999,0.5900721589905549,0.3547453000689948,0.4393993283861407,0.5595284782361191,0.08438255338442718
779,43.757,43.58,1.15,0.7618187144481622,0.5896683049381364,0.35799552782519567,0.4395585695606946,0.5653610323147557,0.08491237276251352
780,43.799,43.63,1.22,0.7666080246848285,0.5892241531457711,0.3612281910916515,0.4396974621045796,0.5711821673060867,0.08544431453833662
781,43.84,43.69,1.02,0.7713615955810399,0.5887408961410524,0.3644413366158942,0.4398166039552014,0.5769883249032812,0.08597793262942471
782,43.901,43.74,1.19,0.7760767780417746,0.5882197375180829,0.36763301903969153,0.43991659543296274,0.5827759573038902,0.08651278079125124
783,43.943,43.8,1.38,0.7807509495860419,0.5876618908804554,0.37080130285622,0.4399980379014693,0.5885415301012773,0.087048413044061
784,44.007,43.85,1.22,0.7853815164336084,0.5870685787897784,0.37394426437880096,0.4400615324200001,0.5942815251729449,0.08758438409651087
785,44.069,43.91,1.21,0.7899659155818329,0.586441031720632,0.3770599937183083,0.44010767839164294,0.5999924435625777,0.08812024976575017
786,44.15,43.96,1.49,0.7945016168696752,0.5857804870228941,0.3801465967660515,0.4401370722110119,0.6056708083525939,0.08865556739360969
787,44.17,44.02,1.47,0.7989861250259523,0.5850881878923673,0.38320219717862525,0.44015030591581994,0.611313167523963,0.08918989625856215
788,44.212,44.07,1.36,0.8034169816989589,0.5843653823505452,0.3862249383609456,0.4401479658466995,0.616916096800017,0.0897227979830866
789,44.274,44.13,1.61,0.807791767464586,0.5836133222342524,0.3892129854434943,0.44013063131964014,0.622476202470949,0.09025383693601856
790,44.337,44.18,1.72,0.8121081038101214,0.5828332621957583,0.3921645272496978,0.4400988733153316,0.627990124195728,0.09078258062940603
791,44.399,44.24,1.53,0.816363655090966,0.5820264587138515,0.3950777782493598,0.4400532531896469,0.6334545377781685,0.09130860010937035
792,44.44,44.29,1.67,0.8205561304575986,0.581194169116245,0.3979509804940707,0.4399943214096006,0.6388661579139258,0.09183147034050188
793,44.501,44.35,1.93,0.824683285750219,0.5803376506136084,0.40078240553054073,0.43992261631933377,0.6442217409052242,0.09235077058338127
794,44.563,44.4,1.77,0.8287429253586021,0.5794581593454923,0.40357035628786947,0.4398386629408266,0.6495180873401547,0.09286608476489247
795,44.625,44.46,1.74,0.8327329040447424,0.578556949438454,0.40631316893479225,0.43974297181412253,0.6547520447333907,0.09337700184105499
796,44.687,44.51,2.05,0.83665112872586,0.5776352720767911,0.4090092147028989,0.4396360378818937,0.6599205101252115,0.09388311615211242
797,44.747,44.57,2.06,0.8404955602153079,0.5766943745863622,0.41165690167176033,0.43951833942309954,0.665020432635766,0.09438402776957058
798,44.788,44.62,1.92,0.8442642149188939,0.5757354995320023,0.41425467651186576,0.43939033704028363,0.6700488159715405,0.09487934283483013
799,44.869,44.67,2.19,0.8479551664841191,0.5747598838290058,0.4168010261812803,0.43925247270483286,0.6750027208810303,0.09536867388901135
800,44.889,44.73,2.34,0.8515665473998906,0.5737687578690832,0.419294479572039,0.43910516886427686,0.6798792675567025,0.09585164019353169
801,44.95,44.78,2.18,0.8550965505444029,0.5727633446611133,0.42173360910257557,0.4389488276152875,0.6846756379804197,0.09632786804100554
802,45.011,44.84,2.26,0.8585434306790666,0.5717448589869579,0.4241170322528837,0.4387838299454552,0.6893890782095956,0.09679699105608856
803,45.092,44.9,2.55,0.861905505886569,0.5707145065725886,0.4264434130395765,0.43861053504626796,0.6940169006014737,0.09725865048594544
804,45.113,44.95,2.43,0.8651811589513555,0.5696734832747814,0.4287114634284178,0.4384292796991289,0.6985564859730367,0.09771249548006138
805,45.154,45.01,2.37,0.8683688386809524,0.5686229742836639,0.43091994468216716,0.43824037773585467,0.7030052856941421,0.09815818335914053
806,45.236,45.06,2.64,0.8714670611666423,0.5675641533414243,0.43306766864167556,0.4380441195748298,0.7073608237115842,0.09859537987281138
807,45.277,45.12,2.66,0.8744744109820397,0.566498181977476,0.4351534989382112,0.4378407718337509,0.7116206985018801,0.09902375944580115
808,45.338,45.17,2.49,0.8773895423181456,0.5654262087603332,0.43717635213498757,0.43763057701970937,0.7157825849506602,0.09944300541219596
809,45.4,45.23,2.8,0.8802111800534663,0.5643493685664092,0.43913519879579993,0.4374137532974001,0.7198442361566135,0.0998528102373943
810,45.44,45.28,2.95,0.882938120757832,0.5632687818659267,0.44102906447867835,0.4371904943363686,0.7238034851580334,0.10025287572738188
811,45.481,45.34,2.78,0.885569233628637,0.562185554026127,0.44285703065262727,0.43696096923812056,0.7276582465801164,0.10064291322501137
812,45.543,45.39,2.82,0.8881034613583426,0.5611007746320057,0.4446182355358735,0.4367253225435024,0.7314065182013078,0.10102264379304038
813,45.605,45.45,3.14,0.890539820932194,0.5600155168248976,0.4463118748544591,0.43648367432013374,0.7350463824371617,0.10139179838373176
814,45.666,45.5,3.01,0.8928774043552351,0.5589308366593189,0.4479372025204255,0.436236120329029,0.7385760077403559,0.10175011799485514
815,45.728,45.56,2.89,0.8951153793078201,0.5578477724785168,0.44949353122913815,0.4359827322689694,0.7419936499156297,0.10209735381196251
816,45.769,45.61,3.2,0.8972529897289385,0.5567673443091682,0.450980232975507,0.4357235580967286,0.7452976533485376,0.10243326733681449
817,45.809,45.67,3.2,0.8992895563267875,0.555690553275605,0.4523967394890317,0.43545862242084704,0.7484864521470391,0.102757630501815
818,45.87,45.72,2.95,0.9012244770161505,0.554618381033839,0.4537425425877128,0.4351879269664227,0.751558571195044,0.1030702257703141
819,45.993,45.78,3.19,0.9030572272822298,0.553551789225583,0.455017194450888,0.43491145110849233,0.7545126271171216,0.10337084622267824
820,46.012,45.83,3.37,0.9047873604706498,0.5524917189524483,0.45622030781108863,0.4346291524718257,0.7573473291536726,0.10365929562809344
821,46.033,45.89,3.23,0.9064145080033882,0.5514390902705351,0.4573515560651992,0.43434096759496355,0.7600614799459313,0.10393538850217189
822,46.095,45.94,3.27,0.9079383795204428,0.550394801705728,0.4584106733055728,0.4340468126559527,0.7626539762302406,0.10419895015055669
823,46.157,46.0,3.59,0.9093587629471441,0.5493597297900858,0.4593974542721985,0.43374658425663704,0.7651238094411685,0.10444981669880463
824,46.198,46.05,3.48,0.9106755244871959,0.5483347286197447,0.4603117542274331,0.43344016026179016,0.7674700662232019,0.10468783510885833
825,46.279,46.1,3.38,0.911888608541687,0.5473206294347303,0.46115348875507617,0.4331274006889365,0.7696919288509388,0.10491286318241032
826,46.34,46.16,3.61,0.9129980375544647,0.5463182402210198,0.461922633485714,0.43280814864442263,0.7717886755578887,0.10512476955141598
827,46.361,46.22,3.66,0.9140039117843574,0.5453283453351107,0.4626192237503578,0.4324822313010402,0.7737596807741867,0.10532343365595537
828,46.423,46.27,3.39,0.9149064090048332,0.5443517051512491,0.463243354164511,0.43214946091228945,0.7756044152736816,0.1055087457096289
829,46.484,46.33,3.55,0.9157057841317517,0.543389055731424,0.46379517814487115,0.43180963585835064,0.7773224462309736,0.10568060665270962
830,46.544,46.38,3.72,0.9164023687799191,0.5424411085182165,0.46427490736095683,0.43146254171897414,0.7789134371890953,0.10583892809334251
831,46.586,46.44,3.59,0.9169965707491917,0.5415085500506542,0.4646828111240161,0.43110795236880484,0.7803771479385936,0.10598363223716982
832,46.647,46.49,3.6,0.9174888734408922,0.5405920417033073,0.46501921571556315,0.4307456310911478,0.7817134343088256,0.10611465180584943
833,46.729,46.55,3.89,0.9178798352053071,0.5396922194489789,0.4652845036577944,0.43037533170674497,0.7829222478723818,0.10623192994496693
834,46.749,46.6,3.76,0.9181700886210961,0.5388096936454,0.4654791129281191,0.4299967997144157,0.7840036355636769,0.10633542012181196
835,46.811,46.66,3.63,0.9183603397075325,0.5379450488463259,0.4656035361201163,0.42960977344032236,0.7849577392129116,0.10642508601342644
836,46.851,46.71,3.84,0.9184513670706091,0.5370988436373731,0.46565831955334613,0.4292139851923179,0.785784794996777,0.1065009013852566
837,46.913,46.77,3.89,0.9184440209842059,0.5362716104968005,0.4656440623345919,0.42880916241550504,0.7864851328074314,0.10656284996068871
838,46.975,46.82,3.63,0.9183392224076838,0.5354638556813063,0.46556141537323736,0.42839502884493585,0.7870591755413893,0.10661092528175997
839,47.057,46.88,3.73,0.9181379619414116,0.5346760591367952,0.4654110803535419,0.42797130565147096,0.7875074383100542,0.10664513056140976
840,47.078,46.93,3.88,0.9178412987218413,0.533908674434031,0.4651938086666038,0.4275377125771463,0.787830527573708,0.10666547852773156
841,47.14,46.99,3.69,0.9174503592578209,0.5331621287290876,0.4649104003048292,0.4270939690567893,0.7880291402008213,0.1066719912607918
842,47.203,47.04,3.67,0.9169663362098793,0.5324368227485323,0.46456170272167124,0.4266397953230813,0.7881040624545722,0.10666470002268216
843,47.244,47.1,3.95,0.9163904871142474,0.5317331307993001,0.4641486096592655,0.42617491349269804,0.7880561689084872,0.10664364508151489
844,47.305,47.15,3.84,0.9157241330534391,0.5310514008031987,0.4636720599464475,0.4256990486313861,0.7878864212931714,0.10660887553004551
845,47.366,47.21,3.65,0.9149686572752557,0.5303919543559333,0.4631330362695579,0.425211929795794,0.7875958672761689,0.10656044909954239
846,47.428,47.26,3.87,0.9141255037621355,0.529755086810463,0.4625325639183779,0.4247132910497331,0.7871856391770926,0.10649843196944218
847,47.469,47.32,3.93,0.9131961757528617,0.5291410673843939,0.46187170950950934,0.4242028724524503,0.7866569526202715,0.10642289857326466
848,47.53,47.37,3.7,0.9121822342187597,0.5285501392910076,0.4611515796894988,0.42368042101654235,0.7860111051272434,0.10633393140125418
849,47.592,47.42,3.79,0.911085296296662,0.5279825198934331,0.4603733198199551,0.42314569163347937,0.7852494746514734,0.10623162080025028
850,47.652,47.48,3.92,0.9099070336810328,0.5274384008814519,0.45953811264685224,0.42259844796525026,0.7843735180577599,0.10611606477131699
851,47.713,47.53,3.7,0.9086491709777361,0.5269179484704279,0.4586471769561814,0.4220384633012306,0.783384769548862,0.10598736876566336
852,47.795,47.59,3.59,0.9073134840219834,0.5264213036219063,0.4577017662179947,0.42146552138000176,0.78228483904193,0.10584564547937479
853,47.816,47.65,3.83,0.9059017981630016,0.5259485822854684,0.456703167220672,0.42087941717645333,0.7810754104973447,0.10569101464743244
854,47.858,47.7,3.72,0.9044159865179625,0.5254998756614396,0.45565269869702707,0.42027995765485615,0.7797582402025705,0.10552360283743747
855,47.919,47.76,3.48,0.9028579681976754,0.5250752504840044,0.45455170994374106,0.41966696248858315,0.7783351550135867,0.10534354324340031
856,47.981,47.81,3.72,0.9012297065065092,0.5246747493242054,0.45340157943556614,0.4190402647469393,0.7768080505564255,0.10515097547989886
857,48.021,47.87,3.77,0.8995332071189968,0.5242983909121935,0.45220371343578913,0.41839971154924865,0.7751788893913217,0.10494604537686514
858,48.082,47.92,3.51,0.8977705162356241,0.523946170477974,0.4509595446045682,0.4177451646860705,0.773449699141966,0.10472890477526163
859,48.184,47.98,3.59,0.8959437187203895,0.5236180601098063,0.44967053060683304,0.417076501207383,0.7716225705923333,0.10449971132395058
860,48.205,48.03,3.74,0.8940549362228245,0.5233140091293806,0.4483381527214652,0.4163936139777784,0.7696996557535869,0.10425862827809582
861,48.247,48.09,3.49,0.8921063252872669,0.5230339444828838,0.44696391445349765,0.4156964121989059,0.7676831659035802,0.10400582429945819
862,48.288,48.14,3.36,0.8901000754522035,0.5227777711471067,0.445549340151063,0.4149848218994783,0.7655753696014702,0.10374147325894817
