,Time_Host,Time_Arduino,easingdata,CH1_Oxy,CH1_Deoxy,CH2_Oxy,CH2_Deoxy,CH3_Oxy,CH3_Deoxy
0,0.056,18.82,-0.06,0.0,0.6526049979811422,0.0,0.0,0.0,1.0
1,1.264,0.04,0.0,0.008805050650364637,0.6548168225591949,0.015558646657176028,0.01654474466097326,0.0038784399604577242,0.9877251474622106
2,1.285,0.1,0.0,0.01757353831069949,0.6571355834576467,0.031087784326518184,0.033117841752149886,0.007779095018166852,0.9754482902909681
3,1.305,0.15,0.0,0.026302058204371093,0.6595597433271019,0.046581213463799835,0.049712370976450246,0.01170023076177338,0.9631745190438914
4,1.326,0.21,0.0,0.03498724321029177,0.6620876647109927,0.06203276832211559,0.06632139386136325,0.015640093236620793,0.950908922002185
5,1.347,0.26,0.0,0.0436257668780661,0.664717612484105,0.07743632276109481,0.08293796088966826,0.019596910869263066,0.9386565801312098
6,1.367,1.05,0.0,0.052214346374556034,0.6674477564321186,0.09278579598368575,0.09955511863356464,0.023568896418460588,0.9264225620641166
7,1.387,1.11,0.0,0.060749745357717426,0.670276173961079,0.10807515819034934,0.11616591687587041,0.027554248947765758,0.9142119191192174
8,1.429,1.16,0.0,0.0692287767738468,0.673200852926126,0.12329843614107514,0.13276341570272557,0.031551155814970845,0.9020296803611955
9,1.511,1.22,0.0,0.0776483055746548,0.676219694569218,0.1384497186161997,0.149340692552989,0.03555779467385441,0.8898808477156934
10,1.552,1.27,0.0,0.08600525135085271,0.6793305165559929,0.1535231617675537,0.16589084921026329,0.03957233548382196,0.8777703911462639
11,1.594,1.33,0.15,0.0942965908792011,0.682531056102314,0.16851299435199987,0.18240701872420623,0.04359294252319336,0.8657032439021192
12,1.657,1.38,0.04,0.10251936058022547,0.6858189731814419,0.1834135228399428,0.19888237224850439,0.04761777640205034,0.8536842978445862
13,1.718,1.44,-0.12,0.11067065888406284,0.6891918538031203,0.19821913639189956,0.2153101257835836,0.05164499607073078,0.8417183988596316
14,1.759,1.49,0.25,0.11874764850216823,0.692647213356167,0.21292431169672082,0.23168354681281292,0.05567276082023554,0.8298103423632833
15,1.862,1.55,0.08,0.1267475586028688,0.6961825000064351,0.22752361766554904,0.24799596082162276,0.05969923227098062,0.8179648689062924
16,1.883,1.6,-0.15,0.13466768688898131,0.6997950981423702,0.2420117199760766,0.2642407576896087,0.06372257634647228,0.8061866598839341
17,1.945,1.66,0.08,0.14250540157591152,0.7034823318608256,0.25638338546212347,0.28041139794635034,0.06774096522863116,0.7944803333564424
18,2.007,1.71,0.05,0.15025814326885834,0.7072414684862033,0.2706334863439997,0.2965014188823129,0.07175257929163281,0.7828504399851736
19,2.069,1.77,-0.0,0.15792342673796067,0.7110697221162774,0.2847570042955582,0.31250444050680143,0.07575560901123589,0.7713014590892459
20,2.129,1.82,-0.07,0.16549884259042627,0.7149642571883187,0.298749034344268,0.32841417134551393,0.07974825684665203,0.7598377948270805
21,2.15,1.88,0.16,0.17298205883887705,0.718922192059373,0.3126047886010479,0.344224414070807,0.08372873909211369,0.7484637725069317
22,2.23,1.93,0.03,0.18037082236534555,0.7229406025947402,0.3263195998170073,0.3599290709583097,0.0876952876954143,0.737183635030137
23,2.273,1.99,-0.16,0.18766296028055535,0.7270165257588574,0.3398889247646435,0.3755221491640313,0.09164615204081447,0.7260015394704571
24,2.313,2.04,0.27,0.19485638117830573,0.7311469632029377,0.35330834744142736,0.3909977658165964,0.09557960069382838,0.7149215537925172
25,2.375,2.1,0.17,0.20194907628496025,0.7353288848438732,0.3665735820940783,0.4063501529197345,0.09949392310552362,0.7039476537120045
26,2.436,2.15,0.02,0.20893912050421198,0.7395592324290795,0.3796804760621763,0.4215736620606344,0.10338743127408284,0.6930837196999495
27,2.498,2.21,0.22,0.2158246733574556,0.7438349230822063,0.3926250124400897,0.4366627689202822,0.10725846136151701,0.6823335341330957
28,2.559,2.26,0.31,0.2226039798202608,0.7481528528248774,0.40540331255652234,0.4516120775823901,0.11110537526359092,0.6717007785920119
29,2.601,2.32,0.29,0.22927537105561038,0.752509900069826,0.41801163827132143,0.46641632463797783,0.11492656213118838,0.6611890313082804
30,2.642,2.37,0.2,0.2358372650447189,0.7569029290810003,0.4304463940895088,0.48107038308309585,0.11872043984150167,0.6508017647617752
31,2.703,2.43,0.52,0.24228816711638637,0.7613287933964641,0.44270412909280976,0.49556926600758755,0.12248545641760428,0.6405423434287343
32,2.766,2.48,0.4,0.2486266703759756,0.7657843392101281,0.4547815386892495,0.5099081300731828,0.12622009139515544,0.630414021681001
33,2.828,2.54,0.09,0.2548514560352551,0.7702664087084571,0.4666754661816823,0.524082278779573,0.12992285713516813,0.620419941836494
34,2.889,2.59,0.46,0.26096129364450804,0.77477184335829,0.4783829041563896,0.5380871655174689,0.13359230008193929,0.6105631323606644
35,2.93,2.65,0.44,0.26695504122847075,0.7792974871418672,0.48990099569314444,0.5519183964079796,0.13722700196538232,0.60084650621843
36,2.99,2.7,0.29,0.27283164532779386,0.7838401897352,0.5012270353983721,0.565571732927999,0.1408255809470969,0.5912728593758558
37,3.05,2.76,0.36,0.2785901409477811,0.7883968096261808,0.5123584702632321,0.5790430943216573,0.14438669270959562,0.5818448694506576
38,3.111,2.81,0.51,0.28422965141620266,0.7929642171692137,0.5232929003486199,0.5923285597982735,0.14790903148822548,0.5725650945103891
39,3.131,2.87,0.39,0.28974938815202184,0.7975392975734873,0.5340280792992641,0.6054243705176142,0.15139133104544625,0.5634359720169558
40,3.192,2.92,0.21,0.29514865034692606,0.8021189538223243,0.5445619146892604,0.6183269313635934,0.15483236558723923,0.554459817915907
41,3.275,2.98,0.55,0.30042682456159486,0.8067001095213743,0.554892468201541,0.6310328125078922,0.15823095062152337,0.5456388258687865
42,3.337,3.03,0.39,0.30558338423868603,0.8112797116737026,0.5650179556439232,0.6435387507653031,0.16158594375854296,0.5369750666266783
43,3.358,3.09,0.11,0.3106178891345671,0.8158547333801043,0.5749367468045214,0.6558416507429156,0.1648962454532578,0.5284704875429665
44,3.42,3.14,0.36,0.3155299846718644,0.8204221764632182,0.5846473651494352,0.6679385857855646,0.16816079968982353,0.5201269122232398
45,3.481,3.2,0.33,0.32031940121495006,0.8249790740142382,0.5941484873657531,0.679826798720254,0.17137859460829505,0.511946040310174
46,3.522,3.25,0.23,0.3249859532705349,0.8295224928611782,0.6034389427530416,0.6915037024025169,0.17454866307369513,0.5039294474011733
47,3.582,3.31,0.24,0.3295295386155624,0.8340495359578152,0.6125177124665979,0.7029668800679144,0.17767008318758853,0.49607858509649544
48,3.644,3.36,0.48,0.3339501373546147,0.8385573446925919,0.6213839286158537,0.7142140854920798,0.18074197874232154,0.4883947811755166
49,3.705,3.42,0.38,0.3382478109090788,0.8430431011168376,0.6300368732214287,0.7252432429628863,0.1837635196181339,0.48087923989869225
50,3.766,3.47,0.17,0.34242270094036226,0.8475040300916823,0.6384759770344535,0.7360524470684516,0.1867339221234119,0.4735330424326459
51,3.827,3.53,0.61,0.3464750282095111,0.8519374013530328,0.6467008182218928,0.7466399623048113,0.18965244927843572,0.46635714739569
52,3.867,3.58,0.51,0.3504050913756373,0.8563405314939944,0.6547111209217129,0.7570042225072064,0.192518411043068,0.4593523915209472
53,3.929,3.64,0.35,0.3542132657356167,0.8607107858641864,0.662506753671831,0.7671438301090487,0.19533116448891572,0.45251949043413847
54,3.971,3.69,0.53,0.3579000019075438,0.8650455803855478,0.6700877277168826,0.7770575552327477,0.19809011391659803,0.44585903954300504
55,4.076,3.75,0.6,0.36146582446046166,0.8693423832843802,0.6774541951969265,0.7867443346166929,0.2007947109188691,0.43937151503521404
56,4.096,3.8,0.55,0.36491133049292446,0.8735987167394401,0.684606447222303,0.7962032703827747,0.20344445439045067,0.4330572749814866
57,4.139,3.86,0.44,0.36823718816298634,0.877812158445955,0.6915449118389357,0.8054336286488982,0.20603889048551446,0.42691656054060023
58,4.201,3.91,0.75,0.37144413517222863,0.8819803430954954,0.6982701518884272,0.8144348379910207,0.2085776125238486,0.42094949726283687
59,4.262,3.97,0.63,0.37453297720646495,0.8861009637716992,0.7047828627673488,0.8232064877593045,0.2110602608468371,0.4151560964883588
60,4.304,4.02,0.33,0.37750458633578177,0.8901717732618386,0.7110838700901749,0.8317483262530181,0.21348652262446824,0.40953625683691136
61,4.344,4.08,0.67,0.3803598993765862,0.8941905852842371,0.7171741272603374,0.8400602587588593,0.21585613161466272,0.40408976578517564
62,4.449,4.13,0.65,0.3830999162183266,0.8981552756315279,0.7230547129538879,0.8481423454574297,0.2181688678762719,0.39881630132803036
63,4.471,4.19,0.42,0.3857256981175268,0.9020637832297979,0.728726828520246,0.8559947992026532,0.22042455743711678,0.39371543371997186
64,4.531,4.24,0.42,0.38823836596169997,0.9059141111138349,0.734191795304461,0.863617983179031,0.22262307191844966,0.38878662729294744
65,4.573,4.3,0.59,0.3906390985056283,0.9097043273189397,0.7394510518953651,0.8710124084417508,0.224764328117244,0.3840292423468621
66,4.637,4.35,0.45,0.3929291305824255,0.9134325656899865,0.7445061513039388,0.8781787313447456,0.22684828754772637,0.37944253710904324
67,4.678,4.41,0.28,0.39510975129173176,0.917097026608635,0.7493587580761788,0.8851177508618678,0.22887495594353982,0.3750256697590164
68,4.74,4.46,0.62,0.3971823021673218,0.9206959776398431,0.7540106453447099,0.8918304058064009,0.2308443827219,0.3707777005150201
69,4.804,4.52,0.44,0.39914817532634694,0.9242277540990357,0.7584636918233502,0.8983177719541651,0.23275666041108775,0.36669759377874334
70,4.865,4.57,0.21,0.4010088116023832,0.9276907595414041,0.7627198787488041,0.9045810590754926,0.2346119240426043,0.3627842203348096
71,4.906,4.63,0.46,0.4027656986644309,0.9310834661748661,0.7667812867736246,0.9106216078813472,0.23641035050930528,0.35903635960157293
72,4.946,4.68,0.45,0.4044203691239899,0.9344044151982029,0.7706500928145584,0.9164408868888327,0.23815215789081565,0.35545270192981426
73,5.007,4.74,0.37,0.4059743986323117,0.9376522170658712,0.7743285668603594,0.92204048921129,0.2398376047474942,0.35203185094597966
74,5.069,4.79,0.3,0.40742940396988486,0.9408255516809964,0.7778190687431139,0.9274221292781226,0.24146698938417502,0.34877232593664803
75,5.13,4.85,0.56,0.4087870411301558,0.943923168518064,0.7811240448770754,0.932587639489429,0.24304064908490355,0.3456725642709372
76,5.211,4.9,0.43,0.4100490033994597,0.9469438866767611,0.7842460249689669,0.9375389668104441,0.24455895931988525,0.34273092385754694
77,5.232,4.96,0.19,0.41121701943511846,0.9498865948682955,0.7871876187036737,0.9422781693106923,0.24602233292586795,0.33994568563312755
78,5.294,5.01,0.65,0.4122928513436466,0.9527502513354177,0.7899515124092148,0.9468074126526648,0.24743121926118322,0.3373150560786598
79,5.335,5.07,0.55,0.4132782927609901,0.9555338837072817,0.7925404657048324,0.9511289665347491,0.2487861033366793,0.3348371697605491
80,5.418,5.12,0.4,0.4141751669366964,0.9582365887902557,0.7949573081359881,0.9552452010930714,0.25008750492378096,0.33251009189317754
81,5.481,5.18,0.52,0.414985324823872,0.9608575322958529,0.7972049357999811,0.9591585832668726,0.2513359776409407,0.3303318209197012
82,5.543,5.23,0.6,0.41571064317674483,0.9633959485069968,0.7992863079658394,0.9628716731320089,0.25253210801980036,0.32830029110788567
83,5.564,5.29,0.52,0.4163530226576318,0.9658511398838421,0.8012044436920733,0.9663871202070987,0.2536765145524331,0.3264133751577842
84,5.626,5.34,0.4,0.41691438595507857,0.9682224766103333,0.8029624184458186,0.9697076597367823,0.2547698467210514,0.32466888681810885
85,5.667,5.4,0.7,0.41739667591488405,0.97050939608274,0.8045633607268141,0.9728361089564799,0.25581278401158364,0.3230645835081982
86,5.728,5.45,0.55,0.4178018536856584,0.9727114023414468,0.8060104486995655,0.9757753633429793,0.25680603491253157,0.32159816894254073
87,5.789,5.51,0.26,0.41813189688048646,0.97482806544734,0.8073069068369464,0.9785283928551018,0.2577503359005245,0.32026729575485313
88,5.85,5.56,0.54,0.4183887977561908,0.9768590208041819,0.8084560025783817,0.9810982381686288,0.25864645041398415,0.3190695681187509
89,5.911,5.62,0.51,0.4185745614116105,0.9788039684284282,0.8094610430056474,0.9834880069095946,0.25949516781629556,0.31800254436209024
90,5.974,5.67,0.34,0.41869120400622173,0.9806626721680393,0.8103253715392147,0.9857008698899875,0.2602973023498194,0.31706373957216266
91,6.036,5.73,0.32,0.41874075100030317,0.9824349588720903,0.8110523646579348,0.9877400573498631,0.2610536920820101,0.31625062818905986
92,6.057,5.78,0.5,0.41872523541771994,0.9841207175132853,0.8116454286447357,0.9896088552098494,0.26176519784484653,0.3155606465846617
93,6.121,5.84,0.38,0.4186466961323025,0.9857198982657003,0.8121079963608834,0.9913106013379727,0.26243270216873266,0.3149911956248349
94,6.161,5.89,0.19,0.4185071761787297,0.987232511540184,0.8124435240512711,0.9928486818346492,0.263057108211957,0.3145396432125822
95,6.223,5.95,0.55,0.41830872108877704,0.9886586269798467,0.8126554881831087,0.9942265273395811,0.2636393386867408,0.3142033268100288
96,6.286,6.0,0.39,0.418053377253756,0.9899983724180116,0.812747382320306,0.995447609364172,0.26418033478285746,0.3139795559372515
97,6.348,6.06,0.12,0.4177431903139446,0.9912519328009164,0.8127227140357676,0.996515436652955,0.2646810550897581,0.31386561464607665
98,6.39,6.11,0.33,0.4173802035757734,0.9924195490773879,0.8125850018637312,0.9974335515774123,0.2651424745180987,0.3138587639670746
99,6.473,6.17,0.36,0.41696645645750663,0.9935015170576356,0.8123377722942028,0.998205526565457,0.26556558322151447,0.3139562443280723
100,6.493,6.22,0.33,0.4165039829641493,0.9944981862431517,0.8119845568114734,0.9988349605697102,0.2659513855194065,0.31415527794261255
101,6.555,6.28,0.26,0.4159948101922914,0.9954099586295295,0.8115288889786376,0.9993254755775578,0.2663008988214107,0.3144530711668904
102,6.656,6.33,0.58,0.41544095686558086,0.9962372874838543,0.8109743015699573,0.9996807131658341,0.2666151525541697,0.31484681682376653
103,6.676,6.39,0.46,0.41484443190150666,0.9969806760981507,0.8103243237528625,0.9999043311028084,0.2668951870910218,0.31533369649248993
104,6.738,6.44,0.23,0.4142072330101769,0.99764067652021,0.8095824783213241,1.0,0.26714205268524005,0.31591088276279133
105,6.798,6.5,0.66,0.4135313453257821,0.9982178882629745,0.8087522789822845,0.9999714000161783,0.2673568084074831,0.3165755414520486
106,6.838,6.55,0.58,0.4128187400714341,0.998712956993555,0.8078372276967735,0.99982221761577,0.26754052108815635,0.3173248337842777
107,6.899,6.61,0.44,0.41207137325804805,0.9991265732029354,0.8068408120772733,0.999556142383766,0.26769426426539306,0.31815591852978575
108,6.94,6.66,0.54,0.4112911844178742,0.9994594708575073,0.8057665028428146,0.9991768638991505,0.26781911713939444,0.3190659541044044
109,7.021,6.72,0.65,0.410480095373226,0.9997124260336564,0.8046177513331909,0.9986880686688057,0.2679161635339129,0.3200521006272697
110,7.042,6.77,0.54,0.40964000904091336,0.9998862555365979,0.8033979870836198,0.9980934371237512,0.2679864908657019,0.3211115219361593
111,7.125,6.83,0.4,0.4087728082728548,0.9999818155046238,0.8021106154611073,0.9973966406794441,0.26803118912276375,0.322241387559461
112,7.187,6.88,0.73,0.40788035473328427,1.0,0.8007590153637167,0.9966013388617164,0.2680513498522297,0.3234388746439134
113,7.23,6.94,0.53,0.4069644878128968,0.9999417395878692,0.7993465369838475,0.9957111764998112,0.26804806515869956,0.3247011698373057
114,7.291,6.99,0.24,0.40602702358020026,0.9998079999046414,0.7978764996365453,0.9947297809878795,0.2680224267138485,0.32602547112537505
115,7.332,7.05,0.5,0.40506975377026405,0.9995997802174598,0.7963521896537524,0.9936607596162229,0.2679755247780805,0.32740898962218556
116,7.374,7.1,0.49,0.4040944448109863,0.9993181119764319,0.7947768583453079,0.9925076969735077,0.2679084472349564,0.32884895131334707
117,7.437,7.16,0.39,0.4031028368869405,0.9989640573613879,0.7931537200273974,0.9912741524210991,0.26782227863903163,0.33034259875156585
118,7.498,7.21,0.35,0.4020966430407901,0.998538707825054,0.7914859501190478,0.9899636576406181,0.26771809927763884,0.33188719270418354
119,7.559,7.27,0.61,0.40107754831220666,0.998043182634636,0.7897766833071411,0.988579714255786,0.2675969842470865,0.3334800137525041
120,7.62,7.32,0.51,0.40004720891421364,0.9974786274137949,0.7880290117803345,0.9871257915295433,0.2674600025437132,0.33511836384282245
121,7.66,7.38,0.3,0.39900725144689875,0.9968462126868718,0.78624598353221,0.9856053241373369,0.2673082161702196,0.33679956778917525
122,7.783,7.43,0.72,0.397959272148452,0.9961471324270894,0.7844306007339182,0.9840217100173442,0.267142679257696,0.3385209747279125
123,7.804,7.49,0.6,0.3969048361834886,0.9953826026103408,0.7825858181765245,0.9823783082982964,0.26696443720378343,0.34027995952424894
124,7.845,7.54,0.46,0.3958454769685952,0.9945538597761555,0.7807145417832114,0.980678437305458,0.2667745258274167,0.34207392413099963
125,7.886,7.6,0.65,0.39478269553499995,0.9936621595974523,0.7788196271914211,0.9789253726452494,0.2665739705406266,0.3439002988997361
126,7.946,7.65,0.71,0.3937179599282447,0.9927087754607218,0.7769038784049653,0.9771223453689234,0.26636378553792195,0.3457565438445927
127,8.008,7.71,0.65,0.3926527046447405,0.9916949970581663,0.7749700465160885,0.9752725402155936,0.26614497300381035,0.34764014985893904
128,8.029,7.76,0.52,0.39158833010509214,0.990622128993212,0.7730208284974309,0.97337909393481,0.26591852233904484,0.34954863988512613
129,8.112,7.82,0.81,0.39052620216407113,0.9894914894007041,0.7710588660637876,0.9714450936887585,0.26568540940622043,0.35147957003749325
130,8.153,7.87,0.66,0.3894676516571116,0.9883044085830095,0.7690867446035198,0.9694735755340578,0.2654465957953811,0.3534305306787996
131,8.215,7.93,0.37,0.38841397398319344,0.9870622276631403,0.7671069921794278,0.9674675229830046,0.26520302811030794,0.3553991474502315
132,8.276,7.98,0.77,0.38736642872397137,0.9857662972558949,0.7651220785988485,0.9654298656440192,0.2649556372761605,0.35738308225514315
133,8.337,8.04,0.76,0.3863262392989995,0.9844179761578845,0.7631344145526866,0.9633634779409366,0.26470533786912703,0.3593800341967116
134,8.358,8.09,0.6,0.3852945926568784,0.9830186300572572,0.7611463508230161,0.9612711779107438,0.26445302746870775,0.361387740469757
135,8.418,8.15,0.6,0.38427263900210046,0.9815696302640098,0.7591601775587987,0.9591557260793215,0.26419958603324556,0.36340397720704576
136,8.482,8.2,0.75,0.3832614915573108,0.9800723524619284,0.7571781236191624,0.9570198244147639,0.2639458752993477,0.365426560280422
137,8.544,8.26,0.62,0.38226222636066054,0.9785281754832842,0.7552023559836039,0.9548661153578099,0.2636927382058769,0.3674533460571223
138,8.606,8.31,0.41,0.38127588209789554,0.9769384801074655,0.7532349792284165,0.9526971809288832,0.2634409983431869,0.3694822321116665
139,8.648,8.37,0.75,0.38030345996877535,0.9753046478848255,0.7512780350685778,0.9505155419111901,0.2631914594282524,0.37151115789376554
140,8.711,8.42,0.58,0.3793459235873679,0.9736280599871181,0.7493335019642808,0.9483236571092755,0.2629449048063071,0.3735381053527533
141,8.774,8.48,0.29,0.37840419891571914,0.9719100960859596,0.7474032947912433,0.9461239226823859,0.2627020969795537,0.3755610995191161
142,8.858,8.53,0.5,0.3774791742303577,0.9701521332607782,0.7454892645738836,0.9439186715519332,0.26246377716345753,0.37757820904376604
143,8.878,8.59,0.47,0.37657170012107505,0.9683555449376688,0.7435931982804175,0.9417101728822862,0.2622306648710796,0.3795875466957598
144,8.919,8.64,0.39,0.3756825895214111,0.9665216998604289,0.7417168186789107,0.9395006316340405,0.26200345752581233,0.3815872698192367
145,8.979,8.7,0.33,0.37481261777026537,0.9646519610948969,0.7398617842532935,0.9372921881888261,0.26178283010277487,0.38357558075042375
146,9.042,8.75,0.61,0.37396252270403785,0.9627476850675518,0.7380296891783076,0.9350869180446406,0.26156943479904105,0.3855507271955829
147,9.105,8.81,0.46,0.37313300477871186,0.9608102206391091,0.7362220633523363,0.9328868315806083,0.2613639007328273,0.3875110025707551
148,9.147,8.86,0.23,0.3723247272213168,0.9588409082135875,0.7344403724870514,0.9306938738899659,0.2611668336717339,0.38945474630411475
149,9.21,8.92,0.62,0.37153831621023053,0.9568410788830939,0.732686018252804,0.928509924679993,0.2609788157901289,0.3913803441016987
150,9.252,8.97,0.5,0.37077436108380724,0.954812053608386,0.7309603384786726,0.9263367982375249,0.2608004054557567,0.3932862281772424
151,9.315,9.03,0.38,0.37003341457682265,0.9527551424351591,0.7292646074060779,0.9241762434586308,0.2606321370456316,0.3951708774468645
152,9.377,9.08,0.53,0.36931599308422236,0.9506716437459695,0.7276000359948488,0.9220299439410209,0.2604745207912533,0.39703281768935145
153,9.419,9.14,0.56,0.3686225769516645,0.9485628435476459,0.7259677722806027,0.9198995181377352,0.26032804265319215,0.3988706216727726
154,9.461,9.19,0.5,0.3679536107923726,0.9464300147939105,0.7243689017822973,0.9177865195706295,0.2601931642250995,0.4006829092481121
155,9.523,9.25,0.37,0.3673095038298287,0.9442744167428061,0.7228044479587977,0.9156924371021272,0.26007032266720287,0.40246834741057586
156,9.585,9.3,0.66,0.36669063026581955,0.9420972943484772,0.7212753727132762,0.9136186952636736,0.2599599306693517,0.4042256503292092
157,9.645,9.36,0.48,0.36609732967331077,0.9398998776868669,0.7197825769442214,0.9115666546393025,0.259862376443681,0.4059535793454372
158,9.687,9.41,0.16,0.36552990741358304,0.9376833814148761,0.7183269011417963,0.9095376123027109,0.2597780237469374,0.4076509429411149
159,9.748,9.47,0.44,0.3649886350770222,0.9354490042625252,0.7169091260282382,0.9075328023062242,0.25970721193249197,0.4093165966766416
160,9.809,9.52,0.41,0.3644737509469212,0.933197928557631,0.7155299732409498,0.9055533962200399,0.2596502560319988,0.41094944309967063
161,9.851,9.58,0.26,0.36398546048560126,0.9309313197825229,0.7141901060568849,0.9036005037201431,0.259607446866566,0.41254843162497257
162,9.953,9.63,0.24,0.3635239368420849,0.9286503261624655,0.7128901301567725,0.9016751732233282,0.2595790511871817,0.41411255838605515
163,9.974,9.69,0.42,0.36308932138046796,0.9263560782856356,0.7116305944276623,0.8997783925678037,0.2595653118440633,0.4156408660591688
164,10.014,9.74,0.3,0.3626817242280955,0.9240496887546068,0.7104119918022332,0.8979110897378749,0.25956644798452766,0.4171324436603364
165,10.077,9.8,0.07,0.36230122484262933,0.9217322518692677,0.709234760133285,0.8960741336311873,0.2595826552789215,0.4185864263160775
166,10.117,9.85,0.44,0.3619478725970959,0.9194048433410255,0.7080992831018137,0.8942683348669738,0.2596141061740862,0.4200019950085277
167,10.178,9.91,0.33,0.36162168738201034,0.917068520038042,0.7070058911570674,0.8924944466337162,0.25966095017378,0.4213783762956896
168,10.24,9.96,0.09,0.36132266022366644,0.9147243197611662,0.705954862486985,0.8907531655745704,0.2597233141454133,0.42271484200758647
169,10.343,10.02,0.29,0.36105075391767527,0.9123732610501905,0.7049464240174393,0.8890451327088349,0.2598013026524019,0.42401070891911147
170,10.364,10.07,0.31,0.3608059036768335,0.9100163430200036,0.7039807524387419,0.8873709343876736,0.25989499831140384,0.42526533840035674
171,10.406,10.13,0.25,0.3605880177924269,0.907654545226065,0.7030579752579187,0.8857311032821866,0.2600044621736504,0.4264781360451924
172,10.468,10.18,0.17,0.3603969783080953,0.905288827558446,0.7021781718752983,0.8841261194018716,0.2601297341295192,0.4276485512788472
173,10.529,10.24,0.45,0.3602326417054082,0.9029201301635256,0.7013413746839697,0.8825564111414613,0.2602708333354487,0.4287760769451979
174,10.57,10.29,0.34,0.36009483960033256,0.900549373392243,0.7005475701906915,0.881022356354115,0.2604277586622724,0.4298602488744055
175,10.632,10.35,0.04,0.3599833794498195,0.898177457773633,0.6997967001568504,0.8795242834488991,0.2606004891640298,0.4309006454314817
176,10.693,10.4,0.45,0.3598980452677697,0.8958052640122255,0.6990886627581026,0.8780624725104886,0.26078898456630717,0.4318968870463307
177,10.734,10.46,0.38,0.35983859834967485,0.8934336530077798,0.6984233137613561,0.8766371564389931,0.26099318577314473,0.4328486357258075
178,10.795,10.51,0.25,0.3598047780052489,0.8910634658957696,0.6978004677177813,0.8752485221078307,0.26121301539150427,0.433755594548376
179,10.836,10.57,0.41,0.3597963022983554,0.8886955241071002,0.6972198991705243,0.8738967115376367,0.26144837827226014,0.4346175071419981
180,10.899,10.62,0.53,0.35981286879352786,0.8863306294456428,0.6966813438757933,0.8725818230842707,0.261699162066677,0.4354341571458835
181,10.96,10.68,0.42,0.3598541553083739,0.8839695641822639,0.69618450003597,0.8713039126390664,0.26196523779736075,0.43620536765668655
182,11.062,10.73,0.27,0.3599198206711395,0.8816130911641183,0.6957290295434001,0.8700629948395167,0.26224646044269284,0.4369310006596974
183,11.083,10.79,0.6,0.360009505482672,0.8792619539381347,0.6953145592335004,0.8688590442886632,0.2625426695337901,0.43761095644551545
184,11.124,10.84,0.42,0.36012283288197944,0.8769168768877619,0.6949406821458074,0.8676919967815241,0.2628536897630486,0.4382451730126404
185,11.165,10.9,0.12,0.36025940931455097,0.8745785653821512,0.6946069587915843,0.866561750536949,0.2631793316033213,0.4388336254563871
186,11.227,10.95,0.37,0.36041882530257097,0.8722477059370364,0.6943129184265956,0.8654681674333534,0.26351939193674395,0.43937632534451143
187,11.289,11.01,0.37,0.3606006562161452,0.8699249663866397,0.6940580603276554,0.8644110742468347,0.26387365469217267,0.43987332007995383
188,11.329,11.06,0.28,0.3608044630446503,0.8676109960659655,0.6938418550715585,0.8633902638902345,0.26424189149009236,0.44032469225119014
189,11.432,11.12,0.28,0.3610297931673035,0.8653064260029358,0.6936637458149856,0.862405496651799,0.2646238622937511,0.4407305589708003
190,11.452,11.17,0.5,0.3612761811220363,0.8630118691199281,0.6935231495739701,0.8614565014321766,0.26501931606520857,0.4410910712029684
191,11.513,11.23,0.41,0.3615431493717738,0.860727920444319,0.6934194585015256,0.8605429769785576,0.2654279914249598,0.4414064130806921
192,11.554,11.28,0.23,0.3618302090672484,0.8584551573276065,0.693352041162071,0.8596645931147767,0.2658496173137851,0.4416768012135366
193,11.614,11.34,0.65,0.36213686080551805,0.8561941396726336,0.6933202438013373,0.8588209919661947,0.26628391365548265,0.44190248398679516
194,11.675,11.39,0.55,0.3624625953833898,0.8539454101683807,0.6933233916104794,0.8580117891781803,0.2667305920191583,0.4420837408529337
195,11.716,11.45,0.4,0.3628068945449776,0.8517094945317849,0.6933607899831606,0.8572365751270226,0.2671893562797619,0.4422208816161904
196,11.797,11.5,0.59,0.3631692317226271,0.849486901756094,0.693431725764393,0.856494916122145,0.267659903275599,0.4423142457111753
197,11.858,11.56,0.64,0.36354907277046156,0.8472781243653001,0.6935354684899552,0.8557863555985502,0.26814192346160165,0.4423642014762423
198,11.962,11.61,0.64,0.3639458766898443,0.8450836386741258,0.6936712716152557,0.8551104152984274,0.2686351015571844,0.442371145422328
199,11.983,11.67,0.57,0.36435909634609814,0.8429039050529281,0.6938383737325644,0.8544665964408584,0.2691391171875368,0.4423355014978945
200,12.003,11.72,0.91,0.36478817917587336,0.8407393681967534,0.6940359997755863,0.8538543808785658,0.26965364551724613,0.44225772035055055
201,12.085,11.78,0.79,0.36523256788461933,0.838590457397625,0.6942633622104032,0.8532732322406482,0.2701783578752073,0.442138278585861
202,12.105,11.83,0.56,0.36569170113369015,0.8364575868189696,0.6945196622118713,0.8527225970602709,0.27071292236985495,0.4419776780238026
203,12.168,11.89,1.06,0.3661650142166817,0.8343411557709748,0.6948040908246086,0.8522019058862957,0.27125700449384693,0.441776444953275
204,12.25,11.94,1.02,0.3666519397246613,0.8322415489855932,0.6951158301077613,0.8517105743778672,0.2718102677174093,0.4415351293850497
205,12.271,12.0,0.8,0.367151908199993,0.8301591368898898,0.6954540542627919,0.8512480043810033,0.2723723740696346,0.4412543043035259
206,12.332,12.05,0.93,0.367664348778473,0.8280942758765539,0.6958179307435582,0.8508135849863122,0.2729429847071128,0.4409345649176405
207,12.395,12.11,1.04,0.36818868981948694,0.8260473085705475,0.6962066213479883,0.8504066935670384,0.27352176046939863,0.44057652791119006
208,12.435,12.16,0.94,0.36872435952390953,0.824018564091002,0.6966192832906821,0.8500266967967186,0.27410836242091,0.44018083069274566
209,12.539,12.22,0.77,0.36927078653946716,0.8220083583075883,0.6970550702558012,0.8496729516457929,0.27470245237890156,0.43974813064528795
210,12.559,12.27,1.12,0.36982740055327457,0.8200169940907656,0.6975131334296157,0.8493448063565976,0.27530369342718763,0.4392791043756595
211,12.601,12.33,0.94,0.37039363287123744,0.8180447615555,0.6979926225120864,0.8490416013962637,0.2759117504153182,0.4387744469639085
212,12.663,12.38,0.65,0.3709689169839974,0.816091938298194,0.6984926867068572,0.8487626703871185,0.27652629044292615,0.4382348712125881
213,12.723,12.44,0.94,0.3715526891190776,0.8141587896267272,0.6990124756890462,0.8485073410142849,0.27714698332897225,0.43766110689607085
214,12.765,12.49,0.94,0.37214438877887945,0.8122455687835989,0.6995511405502384,0.8482749359102354,0.2777735020656047,0.43705390000994365
215,12.826,12.55,0.82,0.37274345926418306,0.8103525171622653,0.7001078347201014,0.8480647735161241,0.2784055232563111,0.4364140120205832
216,12.93,12.6,0.77,0.3733493481827833,0.8084798645168766,0.7006817148640649,0.847876168919776,0.27904272753799597,0.43574221911507277
217,12.949,12.66,1.0,0.37396150794288685,0.8066278291657851,0.7012719417565138,0.8477084346702842,0.27968479998660833,0.4350393114516578
218,12.99,12.71,0.92,0.37457939623090103,0.8047966181892614,0.7018776811289688,0.847560881569205,0.2803314305059584,0.43430609241096585
219,13.052,12.77,0.67,0.37520247647328203,0.802986427621834,0.702498104492776,0.8474328194383579,0.280982314199368,0.43354337784825214
220,13.093,12.82,1.12,0.37583021828215096,0.8011974426395939,0.7031323899358551,0.8473235578642486,0.2816371517238143,0.43275199534697395
221,13.155,12.88,0.98,0.3764620978844424,0.7994298377426977,0.7037797228930964,0.8472324069191475,0.28229564962624715,0.431932783474023
222,13.257,12.93,0.58,0.3770975985343889,0.7976837769332347,0.7044392968900259,0.847158677858882,0.28295752066177926,0.431086591036986
223,13.278,12.99,0.79,0.3777362109091722,0.7959594138886208,0.7051103142593752,0.8471016837974633,0.28362248409347424,0.430214276343842
224,13.36,13.04,0.87,0.3783774334876062,0.7942568921306612,0.7057919868302285,0.8470607403586988,0.28429026597345847,0.4293167064655658
225,13.381,13.1,0.84,0.37902077291176817,0.7925763451903137,0.706483536589476,0.8470351663049465,0.28496059940502827,0.4283947565022234
226,13.422,13.15,0.79,0.37966574433154476,0.7909178967680601,0.7071841963153662,0.8470242841431245,0.28563322478532904,0.42744930885330096
227,13.483,13.21,1.11,0.38031187173210357,0.7892816608896869,0.7078932101830109,0.8470274207080576,0.28630789002814666,0.4264812524930924
228,13.544,13.26,1.01,0.3809586882443459,0.7876677420571881,0.7086098343417564,0.8470439077232192,0.2869843507663822,0.42549148225196076
229,13.627,13.32,0.79,0.38160573643844664,0.7860762353944208,0.7093333374644009,0.8470730823388956,0.2876623705338567,0.4244808981042276
230,13.648,13.37,1.22,0.3822525686006289,0.7845072267870913,0.7100630012682957,0.847114287647797,0.2883417209261879,0.42345040446337023
231,13.709,13.43,1.17,0.3828987469933655,0.7829607930166084,0.7107981210084281,0.8471668731781306,0.2890221817405659,0.42240090948514925
232,13.771,13.48,1.05,0.383543844099226,0.7814370018873347,0.7115380059426222,0.8472301953641619,0.2897035410943302,0.4213333243792607
233,13.813,13.54,1.17,0.3841874428485962,0.7799359123468453,0.7122819797690213,0.8473036179943432,0.2903855955223321,0.4202485627300778
234,13.874,13.59,1.3,0.3848291368314929,0.7784575745989121,0.7130293810360238,0.8473865126371517,0.29106815005317405,0.41914753982698516
235,13.936,13.65,1.2,0.3854685304937066,0.777002030208998,0.7137795635248638,0.8474782590448323,0.29175101826452626,0.41803117200473733
236,13.998,13.7,1.06,0.38610523931749563,0.7755693122021365,0.714531896605044,0.8475782455352903,0.29243402231780474,0.41690037599421537
237,14.06,13.76,1.4,0.38673888998702227,0.7741594451532332,0.7152857655628341,0.8476858693524185,0.29311699297257493,0.41575606828389944
238,14.081,13.81,1.19,0.38736912053867356,0.7727724452700215,0.7160405719030466,0.8478005370052034,0.2937997695811138,0.4145991644923199
239,14.164,13.87,0.92,0.3879955804963658,0.7714083204690637,0.7167957336243139,0.8479216645859663,0.29448220006360654,0.41343057875170613
240,14.205,13.92,1.2,0.3886179309918949,0.7700670704453183,0.717550685468095,0.8480486780681455,0.295164140864486,0.4122512231030149
241,14.247,13.98,1.17,0.3892358448703772,0.7687486867358783,0.7183048791416512,0.848181013584034,0.29584545689042424,0.4110620069025045
242,14.309,14.03,1.03,0.3898490067808061,0.7674531527785865,0.7190577835152444,0.848318117682936,0.29652602143045187,0.4098638362400419
243,14.37,14.09,1.01,0.3904571132517118,0.7661804439664059,0.7198088847937916,0.8484594475702572,0.29720571605863144,0.40865761336938655
244,14.41,14.14,1.2,0.39105987275187487,0.7649305276986356,0.7205576866631986,0.8486044713281297,0.2978844305196963,0.4074442361507217
245,14.471,14.2,1.09,0.39165700573603235,0.7637033634301716,0.7213037104115954,0.8487526681182179,0.2985620625980623,0.40622459750572965
246,14.555,14.25,0.89,0.39224824467553987,0.7624989027199978,0.7220464950257198,0.8489035283673533,0.2992385179706105,0.4049995848855377
247,14.575,14.31,1.3,0.39283333407398113,0.7613170892800072,0.7227855972627366,0.8490565539366314,0.2999137100436389,0.40377007975189333
248,14.679,14.36,1.14,0.3934120304677527,0.7601578590251579,0.7235205916978127,0.8492112582745701,0.3005875597743813,0.40253695707194576
249,14.741,14.42,0.9,0.3939841024116775,0.7590211401258802,0.724251070747812,0.8493671665549005,0.3012599954775017,0.40130108482702315
250,14.762,14.47,1.12,0.39454933044971524,0.757906853063638,0.7249766446714913,0.8495238157995659,0.30193095261699177,0.40006332353578855
251,14.803,14.53,1.09,0.39510750707086706,0.7568149106904957,0.7256969415466108,0.8496807549874925,0.3026003735839189,0.39882452579213906
252,14.864,14.58,1.04,0.39565843665041767,0.7557452182934012,0.7264116072244162,0.8498375451496647,0.3032682074604659,0.39758553581819894
253,14.925,14.64,0.98,0.39620193537670867,0.7546976736636962,0.7271203052619837,0.8499937594509982,0.30393440977066943,0.3963471890327695
254,14.967,14.69,1.27,0.3967378311636816,0.7536721671721563,0.7278227168329582,0.8501489832594571,0.30459894221824746,0.3951103116355823
255,15.028,14.75,1.14,0.3972659635494845,0.7526685818496518,0.72851854061725,0.8503028142028298,0.3052617724119157,0.3938757202076611
256,15.11,14.8,0.88,0.3977861835814804,0.7516867934733472,0.7292074926702931,0.85045486221352,0.3059228735786075,0.3926442213280423
257,15.131,14.86,1.33,0.3982983536880402,0.750726670658254,0.7298893062725046,0.8506047495616763,0.3065822242650544,0.3914166112070468
258,15.193,14.91,1.23,0.39880234753754135,0.7497880749538647,0.7305637317596244,0.8507521108769547,0.3072398080282174,0.3901936753362508
259,15.234,14.97,1.11,0.3992980498850292,0.7488708609455599,0.7312305363346405,0.8508965931591786,0.3078956131150836,0.38897618815529506
260,15.295,15.02,1.28,0.39978535640702384,0.7479748763605143,0.7318895038620283,0.8510378557781919,0.3085496321323779,0.38776491273565605
261,15.357,15.08,1.4,0.40026417352498805,0.7470999621778571,0.7325404346450469,0.8511755704632061,0.30920186170680863,0.38656060048145147
262,15.419,15.13,1.35,0.400734418218039,0.7462459527427997,0.7331831451868691,0.8513094212819504,0.3098523021365498,0.385363990847273
263,15.481,15.19,1.22,0.4011960178255455,0.7454126758843795,0.7338174679363477,0.8514391046099161,0.3105009570347382,0.3841758110729707
264,15.523,15.24,1.54,0.4016489098402924,0.7445999530364811,0.7344432510192322,0.8515643290899924,0.31114783296586024,0.38299677593523607
265,15.565,15.3,1.4,0.4020930416929107,0.7438075993618118,0.7350603579556535,0.8516848155827855,0.3117929390760015,0.38182758751575
266,15.626,15.35,1.12,0.4025283705282753,0.743035423878521,0.7356686673646976,0.8518002971079083,0.31243628671800583,0.38066893498559257
267,15.688,15.41,1.45,0.402954862974572,0.742283229589124,0.7362680726568848,0.851910518776529,0.3130778890726559,0.37952149440554916
268,15.754,15.46,1.38,0.40337249490573424,0.741550813611373,0.7368584817153551,0.8520152377154822,0.3137177607670196,0.3783859285418863
269,15.854,15.52,1.2,0.403781251197929,0.7408379673107138,0.7374398165665441,0.8521142229832627,0.31435591749111574,0.37726288669713814
270,15.874,15.57,1.2,0.40418112548072505,0.7401444764340833,0.7380120130410843,0.8522072554782738,0.31499237561403537,0.3761530045554191
271,15.915,15.63,1.32,0.4045721198835066,0.7394701212449482,0.7385750204256192,0.8522941278397533,0.31562715180066336,0.37505690404172753
272,15.995,15.68,1.19,0.40495424477764613,0.7388146766595912,0.739128801106171,0.8523746443418369,0.31626026263012197,0.3739751931946538
273,16.015,15.74,1.01,0.4053275185148973,0.7381779123847324,0.7396733302036635,0.8524486207812447,0.3168917242170206,0.37290846605188255
274,16.077,15.79,1.38,0.4056919671624118,0.7375595930567077,0.7402085952021511,0.85251588435911,0.3175215518365416,0.37185730254787597
275,16.136,15.85,1.2,0.40604762423473006,0.736959478382575,0.7407345955702747,0.8525762735574878,0.3181497595543493,0.37082226842313165
276,16.198,15.9,0.95,0.40639453042305224,0.7363773232836636,0.7412513423764372,0.8526296380110978,0.31877635986227365,0.3698039151444364
277,16.238,15.96,1.24,0.40673273332206333,0.7358128780422012,0.7417588578981793,0.8526758383748626,0.31940136332070085,0.3688027798355523
278,16.28,16.01,1.22,0.4070622871545813,0.7352658884517217,0.7422571752262265,0.8527147461878017,0.3200247782085951,0.36781938521778906
279,16.342,16.07,1.08,0.4073832524942909,0.7347360959719953,0.7427463378636775,0.8527462437338401,0.3206466101820437,0.36685423955993784
280,16.403,16.12,1.02,0.4076956959868066,0.7342232378893199,0.7432263993207832,0.8527702239001047,0.32126686194218346,0.365907836637076
281,16.445,16.18,1.18,0.40799969006927045,0.7337270474831364,0.7436974227057342,0.8527865900333046,0.3218855329133486,0.36498065569775473
282,16.505,16.23,1.06,0.40829531268867447,0.7332472541999626,0.7441594803118733,0.8527952557948033,0.32250261893226706,0.36407316143909185
283,16.566,16.29,0.85,0.4085826470190816,0.732783583835598,0.7446126532017413,0.8527961450149616,0.32311811194908135,0.36318580398932365
284,16.628,16.34,1.2,0.4088617811779112,0.7323357587264653,0.745057030788378,0.8527891915473004,0.32373199974091554,0.3623190188974205
285,16.689,16.4,1.0,0.40913280794144546,0.7319034979508426,0.7454927104142963,0.8527743391229792,0.3243442656386463,0.36147322712940627
286,16.73,16.45,0.75,0.4093958244597054,0.7314865175406378,0.7459197969285564,0.852751541206042,0.32495488826747015,0.3606488350710596
287,16.792,16.51,0.98,0.40965093197083413,0.7310845307042887,0.746338402262354,0.8527207608498508,0.32556384130179766,0.3598462345366979
288,16.853,16.56,0.97,0.409898235515125,0.7306972480612938,0.746748645003535,0.8526819705550966,0.3261710932349404,0.35906580278377354
289,16.935,16.62,0.88,0.41013784364885064,0.7303243778887436,0.7471506499704429,0.8526351521297306,0.3267766071639629,0.35830790253306316
290,16.956,16.67,0.84,0.4103698681580477,0.7299656263801052,0.7475445477855162,0.8525802965511051,0.3273803405899774,0.3575728819943031
291,16.997,16.73,1.07,0.4105944237724156,0.729620697916431,0.7479304744490478,0.8525174038305671,0.32798224523409175,0.35686107489717794
292,17.058,16.78,0.96,0.4108116278794946,0.7292892953500729,0.7483085709135434,0.8524464828806829,0.32858226686918607,0.356172800527588
293,17.141,16.84,0.7,0.4110216002393026,0.7289711203008968,0.7486789826591304,0.8523675513852181,0.3291803451676572,0.35550836376913303
294,17.162,16.89,1.14,0.41122446269961616,0.7286658734649121,0.7490418592704884,0.8522806356719358,0.3297764135652531,0.35486805514974734
295,17.224,16.95,1.0,0.4114203389120851,0.72837325493518,0.7493973540157675,0.8521857705882286,0.3303703991410919,0.35425215089341594
296,17.326,17.0,0.84,0.41160935404935706,0.7280929645348314,0.749745623427959,0.852082999379568,0.3309622225139265,0.35366091297691676
297,17.366,17.06,1.02,0.41179163452337686,0.7278247021620363,0.750086826889169,0.8519723735707396,0.33155179775468563,0.35309458919153885
298,17.387,17.11,1.0,0.41196730770502343,0.7275681681467336,0.750421126218235,0.851853952849823,0.33213903231532205,0.3525534132096939
299,17.448,17.17,0.94,0.41213650164526955,0.727323063618799,0.750748685262138,0.8517278049548334,0.33272382697397956,0.35203760465629313
300,17.509,17.22,0.84,0.41229934479806235,0.7270890908871733,0.751069669491665,0.8515940055628998,0.3333060757964636,0.351547369184727
301,17.549,17.28,1.12,0.41245596574513116,0.7268659538293514,0.7513842456017759,0.8514526381818096,0.33388566611395903,0.3510828985572592
302,17.612,17.33,0.99,0.412606492922936,0.7266533582905041,0.7516925811171312,0.8513037940437008,0.33446247851690336,0.3506443707296206
303,17.673,17.39,0.76,0.41275105435198917,0.7264510124914016,0.7519948440032437,0.8511475720006253,0.3350363868648793,0.3502319499395821
304,17.735,17.44,1.19,0.41288977736880106,0.7262586274441849,0.7522912022837211,0.8509840784216589,0.335607258312362,0.34984578679927597
305,17.777,17.5,1.08,0.4130227883607298,0.7260759173749423,0.7525818236640732,0.8508134270912077,0.33617495335013514,0.3494860183910425
306,17.839,17.55,0.93,0.4131502125040291,0.7259026001519837,0.7528668751625486,0.8506357391081486,0.33673932586216515,0.34915276836660825
307,17.902,17.61,1.11,0.41327217350539014,0.725738397718733,0.7531465227484482,0.8504511427854764,0.33730022319771363,0.34884614704943256
308,17.944,17.66,1.17,0.4133887933472753,0.7255830365302005,0.7534209309883299,0.8502597735501732,0.33785748625848777,0.3485662515400514
309,18.045,17.72,1.1,0.41350019203735994,0.7254362479919751,0.7536902627004951,0.8500617738430851,0.3384109496006422,0.3483131658242233
310,18.065,17.77,0.98,0.4136064873624146,0.7252977689006246,0.7539546786181076,0.8498572930186371,0.3389604415514497,0.3480869608836648
311,18.106,17.83,1.21,0.41370779464697394,0.7251673418843472,0.7542143370612743,0.8496464872442673,0.3395057843404698,0.34788769480913595
312,18.166,17.88,1.03,0.41380422651715754,0.7250447158426475,0.7544693936184024,0.8494295193994552,0.34004679424504697,0.347715412915612
313,18.228,17.94,0.76,0.413895892670028,0.7249296463837348,0.7547200008371527,0.8492065589741941,0.34058328174994057,0.34757014785927
314,18.269,17.99,1.17,0.41398289964887597,0.7248218962582833,0.7549663079252956,0.8489777819667224,0.34111505172083245,0.3474519197560314
315,18.33,18.05,1.08,0.41406535062481625,0.7247212357881517,0.7552084604617579,0.8487433707803036,0.3416419035913754,0.3473607363014252
316,18.434,18.1,0.95,0.4141433451850555,0.7246274432886602,0.7554466001181196,0.8485035141188361,0.34216363156334706,0.34729659289159365
317,18.455,18.16,1.13,0.41421697912815836,0.7245403054830808,0.755680864390776,0.8482584068810833,0.34268002481940524,0.3472594727452934
318,18.516,18.21,1.21,0.41428634426661604,0.724459617908056,0.7559113863439422,0.8480082500533445,0.34319086774793023,0.3472493470267362
319,18.598,18.27,1.17,0.41435152823702576,0.7243851853086484,0.7561382943636646,0.8477532506003699,0.3436959401794477,0.34726617496907874
320,18.618,18.32,1.04,0.41441261431820076,0.7243168220216886,0.756361711922996,0.8474936213543082,0.34419501763414684,0.3473099039983488
321,18.66,18.38,1.36,0.41446968125753075,0.724254352346108,0.7565817573584888,0.8472295809014465,0.3446878715800398,0.347380469857572
322,18.701,18.43,1.21,0.4145228031059167,0.724197610898956,0.7567985436581625,0.8469613534664866,0.34517426970134096,0.34747779673084445
323,18.782,18.49,0.92,0.4145720490616135,0.7241464429558074,0.7570121782610975,0.8466891687940741,0.34565397617666554,0.3476017973670992
324,18.825,18.54,1.33,0.4146174833233247,0.7241007047742501,0.7572227628688091,0.8464132620272824,0.3461267519666465,0.3477523732033289
325,18.887,18.6,1.23,0.4146591649529106,0.724060263899112,0.7574303932685444,0.8461338735827418,0.34659235511055764,0.34792941448707115
326,18.949,18.65,1.08,0.4146971477480635,0.7240249994481103,0.7576351591686364,0.8458512490221062,0.3470505410314845,0.3481328003980255
327,19.01,18.71,1.21,0.4147314801252788,0.7239948023767157,0.7578371440460212,0.845565638919583,0.34750106284954174,0.34836239916874484
328,19.031,18.76,1.26,0.4147622050134103,0.7239695757211644,0.7580364250060018,0.8452772987252996,0.347943671702627,0.3486180682043541
329,19.113,18.82,1.21,0.41478935975807796,0.7239492348186077,0.7582330726543196,0.844986488624306,0.3483781170741914,0.3488996542012425
330,19.154,18.87,1.08,0.41481297603717177,0.7239337075033926,0.7584271509815825,0.8446934733910212,0.34880414712749197,0.3492069932646654
331,19.195,18.93,1.42,0.4148330797876681,0.7239229342784904,0.7586187172600717,0.8443985222389262,0.3492215090457714,0.34953991102518867
332,19.277,18.98,1.3,0.4148496911439459,0.7239168684610948,0.7588078219529387,0.8441019086653037,0.3496299493778056,0.34989822275390037
333,19.319,19.04,1.0,0.41486282438777655,0.7239154763014158,0.7589945086357884,0.8438039102907913,0.35002921438824636,0.3502817334763217
334,19.381,19.09,1.42,0.41487248791014475,0.7239187370737055,0.759178813930641,0.8435048086935028,0.3504190504121995,0.3506902380849562
335,19.424,19.15,1.33,0.41487868418505297,0.7239266431385725,0.7593607674522688,0.843204889237442,0.3507992042134789,0.3511235214504443
336,19.504,19.2,1.17,0.41488140975544635,0.7239391999757121,0.7595403917668883,0.8429044408949526,0.35116942334596185,0.3515813585313529
337,19.525,19.26,1.33,0.41488065523135603,0.7239564261863579,0.7597177023631702,0.842603756062983,0.3515294565174555,0.35206351448270334
338,19.587,19.31,1.43,0.414876405300324,0.723978353464967,0.7598927076355008,0.8423031303730121,0.35187905395548624,0.35256974476337916
339,19.647,19.37,1.35,0.41486863875015023,0.7240050265397964,0.760065408879417,0.8420028624945249,0.35221796777444025,0.3530997952425733
340,19.729,19.42,1.22,0.4148573285039966,0.7240365030821204,0.7602358002991344,0.8417032539319398,0.3525459523434895,0.3536534023054467
341,19.749,19.48,1.52,0.41484244166785844,0.7240728535839226,0.7604038690270771,0.8414046088149233,0.3528627646547613,0.3542302929581773
342,19.811,19.53,1.38,0.41482393959039887,0.724114161203958,0.760569595155303,0.8411072336820289,0.3531681646912351,0.35483018493256857
343,19.935,19.59,1.06,0.4148017779351176,0.7241605215821031,0.7607329517787155,0.8408114372575982,0.3534619157938566,0.35545278679038106
344,19.957,19.64,1.48,0.41477590676480475,0.7242120426219238,0.7608939050499491,0.8405175302218478,0.3537437850273564,0.3560977980275495
345,19.976,19.7,1.41,0.41474627063820424,0.7242688442413937,0.7610524142458196,0.8402258249740532,0.35401354354423753,0.35676490917845155
346,20.04,19.75,1.34,0.41471280871878186,0.72433105809172,0.7612084318452292,0.8399366353887472,0.35427096694634597,0.3574538019204245
347,20.08,19.81,1.49,0.4146754548954457,0.7243988272443689,0.7613619036184145,0.8396502765648878,0.35451583564340705,0.35816414917874806
348,20.142,19.86,1.57,0.41463413791502735,0.7244723058465317,0.7615127687273996,0.8393670645680142,0.3547479352079295,0.35889561523227415
349,20.244,19.92,1.51,0.4145887815263111,0.7245516587453894,0.7616609598374947,0.8390873161654739,0.354967056725936,0.35964785581979747
350,20.265,19.97,1.38,0.41453930463538696,0.7246370610816363,0.7618064032396551,0.8388113485548641,0.3551729971430473,0.36042051824718097
351,20.306,20.03,1.68,0.4144856214720768,0.7247286978528389,0.7619490189834763,0.8385394790858945,0.35536555960551297,0.36121324149518474
352,20.368,20.08,1.52,0.4144276417671744,0.7248267634473052,0.7620887210205821,0.8382720249759219,0.35554455379583205,0.3620256563279285
353,20.429,20.14,1.22,0.4143652709402268,0.7249314611491775,0.7622254173581458,0.8380093030194079,0.35570979626263255,0.3628573854019323
354,20.469,20.19,1.63,0.4142984102975827,0.7250430026154957,0.7623590102222852,0.8377516292915571,0.3558611107444839,0.36370804337571777
355,20.571,20.25,1.5,0.4142269572404248,0.7251616073259969,0.7624893962310665,0.8374993188463634,0.35599832848730306,0.36457723702000294
356,20.612,20.3,1.35,0.41415080548248295,0.7252875020064904,0.7626164665768381,0.8372526854093221,0.35612128855497494,0.36546456532859234
357,20.632,20.36,1.47,0.41406984527707724,0.7254209200268142,0.7627401072175894,0.8370120410650933,0.3562298381327657,0.3663696196301253
358,20.693,20.41,1.55,0.4139839636530921,0.725562100774554,0.7628601990769964,0.8367776959404645,0.35632383282309815,0.36729198370086436
359,20.755,20.47,1.5,0.413893044659454,0.7257112890057896,0.762976618252799,0.8365499578829892,0.35640313693324843,0.3682312338786965
360,20.795,20.52,1.39,0.4137969696176631,0.7258687341741576,0.7630892362331475,0.8363291321356787,0.35646762375451424,0.369186939178532
361,20.857,20.58,1.7,0.4136956173819099,0.7260346897395451,0.7631979201205432,0.8361155210081341,0.356517175832409,0.3701586614092803
362,20.918,20.63,1.56,0.41358886460629113,0.7262094124577645,0.7633025328629928,0.835909423544496,0.35655168522746444,0.3711459552925832
363,20.979,20.69,1.28,0.4134765860186352,0.7263931616525773,0.7634029334920004,0.835711135188587,0.35657105376624865,0.3721483685834802
364,21.062,20.74,1.71,0.4133586547004434,0.7265861984714376,0.7634989773670234,0.8355209474466098,0.3565751932822378,0.3731654421931887
365,21.083,20.8,1.62,0.41323494237246233,0.7267887851263114,0.7635905164260264,0.8353391475477729,0.35656402584619684,0.37419671031420304
366,21.124,20.85,1.45,0.41310531968539177,0.7270011841209678,0.7636773994417728,0.835166018103222,0.3565374839857216,0.37524170054797024
367,21.206,20.91,1.62,0.41296965651521267,0.7272236574662847,0.763759472283478,0.8350018367637014,0.35649551089359877,0.376299934035442
368,21.247,20.96,1.66,0.41282782226259607,0.7274564658852639,0.7638365781834294,0.8348468758764194,0.35643806062467503,0.37737092559080176
369,21.288,21.02,1.59,0.4126796861558585,0.7276998680095091,0.7639085580081825,0.834701402141602,0.35636509828095975,0.37845418383863455
370,21.349,21.07,1.48,0.4125251175569396,0.7279541195689165,0.7639752505339268,0.8345656762692287,0.35627660018470986,0.37954921135478487
371,21.41,21.13,1.73,0.4123639862698803,0.7282194725763099,0.7640364927256137,0.834439952636431,0.3561725540392672,0.3806555048111167
372,21.473,21.18,1.58,0.4121961628512831,0.7284961745087445,0.7640921200194323,0.8343244789460297,0.35605295907744455,0.38177255512435326
373,21.514,21.24,1.27,0.41202151892223726,0.728784467487161,0.7641419666082138,0.8342194958866676,0.35591782619726064,0.38289984760914464
374,21.575,21.29,1.73,0.4118399274811897,0.729084587456045,0.7641858657293444,0.8341252367949824,0.3557671780848163,0.3840368621354934
375,21.638,21.35,1.62,0.4116512632172373,0.7293967633647095,0.7642236499547556,0.83404192732027,0.3556010493240815,0.38518307329068113
376,21.721,21.4,1.45,0.4114554028233103,0.7297212163518325,0.7642551514825501,0.8339697850921025,0.3554194864933208,0.3863379505458956
377,21.741,21.46,1.64,0.41125222530869393,0.7300581589349702,0.7642802024298041,0.8339090193914163,0.35522254824786376,0.3875009584278103
378,21.783,21.51,1.69,0.4110416123103252,0.7304077942068546,0.7642986351260633,0.8338598308256467,0.35501030538896033,0.3886715566953769
379,21.844,21.57,1.63,0.41082344840231794,0.730770315040278,0.7643102824070537,0.8338224110085156,0.3547828409184953,0.3898492005220704
380,21.907,21.62,1.55,0.4105976214031929,0.731145903303321,0.7643149779081263,0.8337969422451007,0.3545402500793745,0.3910333406838106
381,21.968,21.68,1.81,0.41036402268031624,0.7315347290866454,0.7643125563569577,0.8337835972228237,0.35428264038143714,0.3922234237527688
382,22.01,21.73,1.67,0.41012254745107674,0.7319369499445272,0.7643028538650445,0.8337825387089876,0.35401013161279776,0.3934188922972453
383,22.091,21.79,1.37,0.4098730950803617,0.7323527101512537,0.764285708217549,0.8337939192554752,0.3537228558365613,0.394619185087789
384,22.133,21.84,1.79,0.40961556937391025,0.7327821399744714,0.7642609591610692,0.8338178809111999,0.3534209573728831,0.3958237373097156
385,22.195,21.9,1.65,0.40934987886713387,0.7332253549670317,0.7642284486889058,0.8338545549428922,0.3531045927663595,0.39703198078217555
386,22.236,21.95,1.47,0.40907593710898976,0.7336824552788656,0.7641880213233954,0.833904061564826,0.3527739307387144,0.39824334418395296
387,22.299,22.01,1.66,0.40879366294047065,0.7341535249904614,0.7641395243948459,0.8339665096781168,0.3524291521267271,0.39945725328619575
388,22.361,22.06,1.69,0.4085029807672579,0.7346386314695337,0.7640828083166006,0.8340419966202662,0.35207044980535773,0.4006731311922578
389,22.443,22.12,1.65,0.4082038208260825,0.7351378247524265,0.7640177268557578,0.8341306079256017,0.3516980285960323,0.4018903985847805
390,22.525,22.17,1.55,0.40789611944434817,0.7356511369517176,0.7639441373991016,0.8342324170972057,0.3513121051600631,0.40310847398009203
391,22.545,22.23,1.83,0.4075798192925763,0.7361785816914358,0.7638619012138316,0.8343474853908504,0.35091290787721235,0.40432677398994454
392,22.588,22.28,1.7,0.40725486962925966,0.7367201535712675,0.7637708837027217,0.8344758616113853,0.35050067670944596,0.40554471359055305
393,22.607,22.34,1.46,0.40692122653773555,0.7372758276610806,0.763670954653378,0.8346175819219701,0.3500756630499753,0.4067617063988575
394,22.668,22.39,1.9,0.40657885315471,0.7378455590270694,0.7635619884812862,0.8347726696665032,0.34963812955772006,0.4079771649558953
395,22.75,22.45,1.74,0.40622771989009177,0.7384292822907749,0.7634438644663732,0.8349411352055892,0.34918834997736925,0.40919050101714927
396,22.812,22.5,1.59,0.40586780463781175,0.7390269112221854,0.7633164669828088,0.8351229757663692,0.3487266089452392,0.4104011258497347
397,22.832,22.56,1.77,0.40549909297731407,0.7396383383681292,0.7631796857217947,0.8353181753065546,0.3482532017811671,0.41160845053628575
398,22.893,22.61,1.77,0.4051215783654108,0.7402634347171765,0.7630334159070943,0.8355267043930137,0.3477684342667327,0.41281188628536336
399,22.955,22.67,1.69,0.4047352623182067,0.7409020494022275,0.7628775585030806,0.8357485200952453,0.3472726224101462,0.41401084474816124
400,23.016,22.72,1.61,0.4043401545828123,0.7415540094418998,0.7627120204151026,0.8359835658940432,0.3467660921981643,0.41520473834124716
401,23.077,22.78,1.84,0.40393627329856335,0.742219119521768,0.7625367146819845,0.8362317716056432,0.3462491793354252,0.4163929805750274
402,23.138,22.83,1.7,0.4035236451474846,0.742897161816426,0.7623515606604923,0.8364930533216037,0.3457222289716187,0.41757498638756674
403,23.179,22.89,1.46,0.4031023054937532,0.7435878958531997,0.7621564842016243,0.8367673133646342,0.3451855954169237,0.4187501724833284
404,23.219,22.94,1.9,0.40267229851193903,0.7442910584182122,0.7619514178185964,0.8370544402605414,0.3446396418461623,0.4199179576763275
405,23.279,23.0,1.73,0.402233677303815,0.7450063635053659,0.7617363008463944,0.8373543087264483,0.3440847399921337,0.4210777632371328
406,23.341,23.05,1.5,0.4017865040035444,0.7457335023087177,0.7615110795927587,0.8376667796754239,0.3435212698285923,0.4222290132431246
407,23.382,23.11,1.71,0.4013308498710629,0.746472143258674,0.7612757074804566,0.8379917002377024,0.34294961924335626,0.4233711349314088
408,23.445,23.16,1.68,0.40086679537350034,0.7472219321023578,0.7610301451806983,0.8383289037986802,0.3423701837020644,0.424503559053767
409,23.506,23.22,1.61,0.40039443025453275,0.7479824920283605,0.7607743607375693,0.8386782100538713,0.3417833659031131,0.42562572023302925
410,23.546,23.27,1.54,0.39991385359158693,0.7487534238359387,0.7605083296833791,0.839039425080972,0.3411895754242892,0.4267370573202837
411,23.629,23.33,1.76,0.39942517384085013,0.7495343061486015,0.7602320351448397,0.8394123414291478,0.3405892283616157,0.427837013752358
412,23.649,23.38,1.63,0.3989285088700635,0.7503246956719135,0.759945467940003,0.8397967382256232,0.3399827469609314,0.42892503790900455
413,23.71,23.44,1.38,0.3984239859791158,0.7511241274951993,0.7596486266659,0.8401923812996089,0.3393705592427379,0.4300005834692117
414,23.793,23.49,1.76,0.3979117419084754,0.7519321154367048,0.7593415177768231,0.8405990233235735,0.3387530986208625,0.43106310976603196
415,23.813,23.55,1.59,0.39739192283551683,0.7527481524316415,0.7590241556531818,0.8410164039718336,0.3381308035154936,0.4321120821392975
416,23.915,23.6,1.32,0.39686468435880157,0.7535717109624324,0.7586965626608625,0.8414442500964204,0.337504116961139,0.433146972285585
417,23.935,23.66,1.55,0.3963301914703622,0.7544022435304263,0.7583587692009989,0.841882275920176,0.336873486210039,0.43416725860480276
418,23.997,23.71,1.53,0.39578861851605257,0.7552391831682708,0.758010813750068,0.8423301832470239,0.3362393623315535,0.43517242654277366
419,24.059,23.77,1.44,0.3952401491440486,0.7560819439919954,0.7576527428902379,0.8427876616893293,0.3356021998080014,0.4361619689292122
420,24.099,23.82,1.41,0.3946849762416075,0.7569299217917275,0.7572846113299034,0.8432543889122288,0.33496245612738473,0.4371353863105338
421,24.18,23.88,1.55,0.39412330186020256,0.7577824946598802,0.7569064819143609,0.8437300308947848,0.33432059137340825,0.4380921872769689
422,24.22,23.93,1.44,0.3935553371291668,0.7586390236555807,0.7565184256265887,0.8442142422077793,0.3336770678132037,0.43903188878347577
423,24.283,23.99,1.24,0.3929813021579934,0.7594988535040358,0.756120521578133,0.8447066663079053,0.33303234948316646,0.43995401646396165
424,24.324,24.04,1.64,0.3924014259274502,0.7603613133295066,0.7557128569901289,0.8452069358480715,0.33238690177330377,0.44085810493834215
425,24.407,24.1,1.49,0.39181594616968135,0.7612257174204818,0.7552955271644978,0.8457146730034808,0.331741191010486,0.44174369811197906
426,24.428,24.15,1.2,0.39122510923748277,0.7620913660256046,0.7548686354453784,0.8462294898131261,0.3310956840409797,0.4426103494670605
427,24.49,24.21,1.44,0.3906291699629498,0.7629575461788877,0.7544322931708485,0.8467509885363546,0.3304508478126546,0.4434576223455132
428,24.532,24.26,1.41,0.39002839150570023,0.7638235325527981,0.7539866196149959,0.8472787620241443,0.3298071489572673,0.4442850902230518
429,24.595,24.32,1.27,0.3894230451908663,0.7646885883378728,0.7535317419204228,0.8478123941047185,0.3291650533732038,0.44509233697402145
430,24.657,24.37,1.23,0.3888134103370094,0.7655519661476917,0.7530677950212841,0.8483514599830693,0.3285250258090088,0.4458789571267468
431,24.719,24.43,1.42,0.38819977407406664,0.7664129089481564,0.7525949215569714,0.848895526653917,0.3278875294479927,0.4466445561091435
432,24.781,24.48,1.31,0.3875824311514152,0.767270651010045,0.7521132717765739,0.8494441533275763,0.3272530254941683,0.44738875048436355
433,24.841,24.54,1.13,0.3869616837361368,0.768124418883748,0.7516230034342627,0.8499968918681382,0.3266219727597361,0.448111168176262
434,24.924,24.59,1.54,0.38633784120156145,0.7689734323950257,0.7511242816757655,0.8505532872433242,0.32599482725431583,0.44881144868448414
435,24.944,24.65,1.42,0.38571121990617746,0.7698169056605533,0.7506172789161139,0.8511128779853236,0.32537204177611767,0.4494892432889766
436,25.004,24.7,1.12,0.38508214296300225,0.7706540481219933,0.7501021747088669,0.8516751966618903,0.3247540655052616,0.4501442152437433
437,25.086,24.76,1.41,0.38445093999951674,0.7714840655973276,0.7495791556070245,0.852239770356967,0.3241413435994841,0.4507760399596759
438,25.106,24.81,1.4,0.38381794690828885,0.7723061613481982,0.749048415015871,0.8528061211600999,0.32353431679251166,0.4513844051762896
439,25.147,24.87,1.25,0.3831835055884514,0.7731195371619527,0.7485101530380198,0.8533737666638931,0.3229334209953885,0.45196901112222115
440,25.208,24.92,1.24,0.38254796367823596,0.7739233944470436,0.7479645763109497,0.8539422204687467,0.3223390869010341,0.4525295706643956
441,25.27,24.98,1.42,0.3819116742788207,0.7747169353403385,0.7474118978373324,0.8545109926941322,0.3217517395923045,0.45306580944580377
442,25.331,25.03,1.3,0.38127499566982587,0.7754993638247448,0.7468523368084646,0.8550795904956572,0.3211717981538417,0.45357746601186466
443,25.393,25.09,1.12,0.38063829101687957,0.7762698868553415,0.7462861184211227,0.8556475185871717,0.3205996752879825,0.454064291925376
444,25.414,25.14,1.5,0.38000192807173383,0.7770277154920285,0.7457134736881684,0.856214279767154,0.32003577693499785,0.45452605187008216
445,25.474,25.2,1.31,0.37936627886544966,0.7777720660365494,0.7451346392432405,0.8567793754485978,0.3194805018979354,0.4549625237428846
446,25.536,25.25,1.01,0.3787317193951811,0.7785021611716296,0.7445498571398728,0.8573423061916027,0.3189342414723381,0.4553734987347233
447,25.597,25.31,1.27,0.3780986293050849,0.7792172310999539,0.7439593746453783,0.8579025722378645,0.31839737908111776,0.45575878140015086
448,25.638,25.36,1.26,0.3774673915618784,0.7799165146807256,0.7433634440298361,0.8584596740462745,0.3178702899148513,0.456118189715635
449,25.699,25.42,1.13,0.3768383921255511,0.7805992605616181,0.7427623223505122,0.8590131128288492,0.31735334057771836,0.4564515551266752
450,25.76,25.47,1.12,0.3762120196157048,0.7812647283040718,0.7421562712320304,0.8595623910862449,0.31684688873923117,0.4567587225838883
451,25.823,25.53,1.32,0.3755886649739503,0.7819121895000695,0.7415455566425869,0.8601070131421662,0.3163512827918724,0.45703955056826306
452,25.886,25.58,1.21,0.3749687211227804,0.7825409288786441,0.740930448666505,0.8606464856759896,0.3158668615147456,0.4572939111058125
453,25.926,25.64,1.07,0.3743525826213446,0.7831502454004106,0.7403112212734361,0.8611803182529214,0.3153939537433381,0.45752168977189256
454,25.966,25.69,1.45,0.37374064531857404,0.7837394533384096,0.7396881520845328,0.8617080238509902,0.3149328780455042,0.45772278568548636
455,26.028,25.75,1.29,0.37313330600412636,0.7843078833435275,0.7390615221359391,0.8622291193841626,0.3144839424038025,0.4578971114937671
456,26.13,25.8,0.99,0.372530962057644,0.7848548834927241,0.7384316156399582,0.8627431262208478,0.31404744390435524,0.4580445933472525
457,26.151,25.86,1.27,0.37193401109684643,0.7853798203182693,0.7377987197442639,0.8632495706970827,0.31362366843242706,0.45816517086585185
458,26.214,25.91,1.26,0.37134285062500416,0.7858820798161545,0.7371631242895264,0.8637479846237004,0.3132128903749539,0.4582587970960945
459,26.274,25.97,1.12,0.3707578776783652,0.7863610684318305,0.736525121565825,0.8642379057868135,0.31281537233022716,0.45832543845984586
460,26.356,26.02,1.12,0.37017948847408366,0.7868162140214965,0.7358850060682108,0.8647188784409627,0.3124313648249021,0.45836507469485915
461,26.377,26.08,1.28,0.36960807805916446,0.7872469667872978,0.735243074251761,0.8651904537943284,0.3120611060384823,0.458377698787513
462,26.418,26.13,1.18,0.3690440399609095,0.7876528001848864,0.7345996242864525,0.865652190485405,0.3117048215354285,0.45836331689806564
463,26.502,26.19,1.02,0.36848776583933013,0.788033211801837,0.7339549558121757,0.8661036550505644,0.31136272400503084,0.45832194827873846
464,26.522,26.24,1.4,0.36793964514197247,0.7883877242054795,0.7333093696941975,0.8665444223819195,0.3110350130091853,0.45825362518490914
465,26.583,26.3,1.22,0.36740006476158915,0.7887158857587472,0.7326631677793783,0.8669740761749137,0.3107218747382206,0.45815839277966786
466,26.625,26.35,0.95,0.36686940869708745,0.7890172714026918,0.73201665265344,0.8673922093650697,0.31042348177493745,0.45803630903195475
467,26.687,26.41,1.25,0.36634805771819384,0.7892914834043485,0.7313701273995732,0.8677984245533508,0.31013999286704363,0.45788744460849107
468,26.749,26.46,1.23,0.3658363890342975,0.7895381520686517,0.7307238953586637,0.8681923344196278,0.30987155270818206,0.4577118827597074
469,26.811,26.52,1.1,0.36533477596795,0.7897569364131303,0.7300782598914083,0.8685735621237719,0.309618291727729,0.4575097191999073
470,26.853,26.57,1.1,0.36484358763348074,0.7899475248042285,0.7294335241425738,0.8689417416939237,0.3093803258895103,0.4572810619819473
471,26.916,26.63,1.25,0.3643631886211519,0.7901096355542733,0.7287899908076215,0.8692965184015562,0.3091577564995843,0.4570260313667161
472,26.999,26.68,1.14,0.36389393868724645,0.7902430174782575,0.728147961901906,0.8696375491229604,0.30895067002324816,0.4567447596876931
473,27.019,26.74,0.99,0.36343619245046,0.7903474504097147,0.72750773853265,0.8699645026867983,0.3087591379114281,0.45643739121086413
474,27.08,26.79,1.35,0.36299029909494307,0.7904227456750639,0.7268696206738976,0.8702770602073542,0.3085832164366051,0.4561040819902701
475,27.142,26.85,1.19,0.3625566020803258,0.7904687465258571,0.7262339069446515,0.8705749154031005,0.30842294653843033,0.4557449997194446
476,27.225,26.9,0.91,0.36213543885905214,0.7904853285283587,0.7256008943904062,0.8708577749001659,0.3082783536791833,0.4553603235789642
477,27.246,26.96,1.2,0.3617271406013483,0.7904723999098907,0.7249708782682902,0.8711253585202992,0.3081494477092416,0.4549502440802888
478,27.306,27.01,1.19,0.36133203192814883,0.7904299018613636,0.724344151836016,0.871377399552938,0.30803622274274023,0.4545149629060344
479,27.367,27.07,1.04,0.36095043065229526,0.7903578087954652,0.7237210061448174,0.8716136450110661,0.3079386570435751,0.4540546927468142
480,27.409,27.12,1.07,0.36058264752829033,0.7902561285600944,0.7231017298365044,0.8718338558706289,0.3078567129218691,0.4535696571348069
481,27.47,27.18,1.23,0.3602289860108483,0.7901249026068211,0.7224866089447269,0.8720378072933737,0.307790336641014,0.4530600902742052
482,27.572,27.23,1.13,0.35988974202245533,0.7899642061142914,0.7218759267005216,0.872225288833019,0.3077394583354059,0.4525262368686789
483,27.654,27.29,0.98,0.35956520373012496,0.7897741480666421,0.7212699633422235,0.8723961046246614,0.3077039919389937,0.4519683519459795
484,27.675,27.34,1.31,0.3592556513315134,0.7895548712871148,0.720668995929827,0.8725500735573184,0.30768383512476927,0.4513867006797942
485,27.695,27.4,1.16,0.35896135685054575,0.789306552427157,0.7200732981638859,0.8726870294295044,0.30767886925533827,0.4507815582089297
486,27.736,27.45,0.86,0.3586825839427075,0.7890294019113243,0.7194831402090484,0.8728068210877415,0.30768895934472673,0.4501532094538765
487,27.778,27.51,1.19,0.3584195877101637,0.7887236638382658,0.7188987885223111,0.8729093125479163,0.3077139540315855,0.44950194893076967
488,27.84,27.56,1.16,0.3581726145268828,0.7883896158380151,0.7183205056860751,0.8729943830994115,0.3077536855639589,0.4488280805627395
489,27.902,27.62,1.02,0.35794190187393354,0.7880275688858001,0.7177485502460719,0.8730619273919648,0.307807969795744,0.4481319174886518
490,27.963,27.67,1.04,0.35772767818508044,0.7876378670726493,0.7171831765542019,0.8731118555052366,0.3078766061949354,0.4474137818692451
491,28.025,27.73,1.19,0.3575301627027502,0.7872208873332146,0.7166246346162884,0.8731440930011212,0.3079593778637361,0.44667400469064983
492,28.088,27.78,1.11,0.3573495653444012,0.7867770391312925,0.7160731699447248,0.8731585809588565,0.3080560515706268,0.44591292556522855
493,28.109,27.84,0.93,0.35718608657931467,0.7863067641035716,0.7155290234159917,0.8731552759929908,0.30816637779448114,0.44513089252965643
494,28.171,27.89,1.29,0.35703991731581064,0.7858105356622067,0.7149924311330197,0.8731341502542632,0.3082900907808184,0.44432826184015023
495,28.252,27.95,1.14,0.3569112387988936,0.7852888585568794,0.7144636242923905,0.8730951914134436,0.3084269086102939,0.4435053977647423
496,28.273,28.0,0.84,0.356800222518349,0.7847422683970346,0.7139428290563941,0.8730384026281641,0.3085765332795356,0.4426626723724968
497,28.333,28.06,1.16,0.3567070301273288,0.7841713311349969,0.7134302664299764,0.872963802492766,0.308738650794446,0.4418004653195675
498,28.395,28.11,1.15,0.3566318133714942,0.7835766425106488,0.7129261521426353,0.872871424971185,0.3089129312760863,0.4409191636320125
499,28.455,28.17,0.99,0.3565747140287993,0.7829588274583604,0.7124306965353359,0.8727613193129066,0.3090990290792291,0.44001916148533354
500,28.518,28.22,0.99,0.3565358638599884,0.7823185394769325,0.7119441044525113,0.8726335499520581,0.3092965829236314,0.43910085998076953
501,28.56,28.28,1.13,0.3565153845698548,0.7816564599634241,0.7114665751392028,0.8724881963897546,0.30950521603807024,0.4381646669184056
502,28.623,28.33,1.01,0.35651338777929226,0.7809732975118083,0.7109983021433757,0.8723253530598506,0.3097245363171793,0.4372109965671644
503,28.705,28.39,0.89,0.35652997500815686,0.7802697871774278,0.7105394732234502,0.8721451291782762,0.3099541364911034,0.4362402694317548
504,28.725,28.44,1.25,0.3565652376689322,0.7795466897082977,0.7100902702610643,0.8719476485761611,0.3101935943079575,0.43525291201665745
505,28.767,28.5,1.12,0.35661925707117537,0.7788047907443366,0.7096508691790762,0.871733049516978,0.3104424727290596,0.4342493565872053
506,28.847,28.55,0.85,0.3566921044367064,0.7780448999856305,0.7092214398648078,0.8715014844979498,0.3107003201369033,0.4332300409277932
507,28.888,28.61,1.23,0.3567838409255076,0.7772678503308507,0.7088021460985326,0.8712531200359743,0.3109666705558543,0.4321954080972112
508,28.929,28.66,1.23,0.35689451767230995,0.776474496986952,0.708393145487231,0.8709881364383333,0.31124104388558754,0.4311459061810806
509,28.99,28.72,1.09,0.35702417583385676,0.7756657165513121,0.7079945894036558,0.8707067275584615,0.3115229461472922,0.4300819880413971
510,29.072,28.77,1.17,0.3571728466468221,0.77484240606758,0.7076066229307534,0.8704091005370992,0.3118118697426941,0.4290041110632263
511,29.134,28.83,1.31,0.3573405514963464,0.7740054820566247,0.7072293848114725,0.8700954755292075,0.3121072937259996,0.4279127368986204
512,29.175,28.88,1.23,0.3575273019951552,0.7731558795240402,0.7068630074039973,0.8697660854170698,0.3124086840889343,0.42680833120782385
513,29.216,28.94,1.1,0.35773310007324155,0.772294550945696,0.7065076166424432,0.8694211755100304,0.31271549405909677,0.42569136339786356
514,29.278,28.99,1.45,0.3579579380780989,0.7714224652328984,0.7061633320030622,0.8690610032313398,0.3130271644119011,0.42456230635862985
515,29.34,29.05,1.32,0.3582017988854979,0.7705406066788132,0.7058302664760224,0.8686858377925891,0.31334312379642765,0.4234216361965595
516,29.442,29.1,1.05,0.3584646560208029,0.7696499738878636,0.7055085265428406,0.8682959598562145,0.3136627890755497,0.4222698319660283
517,29.462,29.16,1.43,0.3587464737908264,0.7687515786898602,0.7051982121595677,0.8678916611865669,0.3139855656807486,0.42110737539855475
518,29.524,29.21,1.38,0.35904720742621976,0.7678464450406435,0.704899416745835,0.8674732442900521,0.3143108479820835,0.41993475062992547
519,29.544,29.27,1.23,0.3593668032343904,0.7669356079110338,0.7046122271798823,0.8670410220448882,0.3146380196737968,0.41875244392540095
520,29.606,29.32,1.32,0.3597051987629146,0.7660201121659668,0.704336723799674,0.8665953173210612,0.314966454176071,0.4175609434032383
521,29.666,29.38,1.44,0.36006232297339275,0.7651010114357901,0.7040729804102183,0.8661364625911192,0.3152955150534961,0.4163607387568239
522,29.727,29.43,1.33,0.3604380964256912,0.7641793669817453,0.7038210642972045,0.8656647995324634,0.31562455645086307,0.4151523209757616
523,29.808,29.49,1.14,0.3608324314725108,0.7632562465577114,0.7035810362471097,0.8651806786218059,0.3159529235469327,0.4139361820663271
524,29.828,29.54,1.43,0.3612452324642107,0.7623327232703186,0.7033529505739239,0.8646844587224831,0.3162799530268625,0.4127128147717534
525,29.869,29.6,1.21,0.36167639596381007,0.7614098744395348,0.7031368551526607,0.8641765066653245,0.3166049735739866,0.41148271229284217
526,29.932,29.65,0.81,0.36212581097208774,0.7604887804617283,0.7029327914598116,0.8636571968237851,0.3169273063816295,0.41024636800940856
527,29.992,29.71,1.09,0.3625933591627018,0.7595705236770662,0.7027407946209016,0.8631269106840425,0.31724626568558234,0.4090042752030626
528,30.054,29.76,0.96,0.3630789151272478,0.7586561872429392,0.7025608934652884,0.8625860364107475,0.31756115931777146,0.40775692678182496
529,30.157,29.82,0.74,0.36358234663015954,0.7577468540149312,0.7023931105883398,0.8620349684090886,0.3178712892814883,0.4065048150071048
530,30.24,29.87,0.75,0.3641035148733136,0.756843605436755,0.7022374624210875,0.8614741068838134,0.31817595234835694,0.405248431223591
531,30.261,29.93,0.82,0.3646422747701516,0.7559475204404698,0.7020939593074224,0.8609038573958284,0.3184744406770455,0.40398826559260215
532,30.281,29.98,0.68,0.3651984752290996,0.755059674358169,0.7019626055888714,0.8603246304169663,0.31876604245356277,0.40272480682939504
533,30.321,30.04,0.51,0.365771959446038,0.7541811378461882,0.7018433996969878,0.8597368408834569,0.31905004255282376,0.4014585419448911
534,30.383,30.09,0.8,0.36636256520554256,0.753312975822801,0.701736334253369,0.8591409077486081,0.31932572322101477,0.4001899559922205
535,30.424,30.15,0.66,0.36697012519058486,0.7524562464202947,0.7016413961772883,0.8585372535351925,0.3195923647781545,0.39891953181840223
536,30.526,30.2,0.32,0.3675944673003607,0.7516119999522105,0.7015585668008878,0.8579263038880619,0.31984924634011874,0.39764774982139184
537,30.546,30.26,0.7,0.3682354149758915,0.750781277896394,0.701487821991821,0.8573084871275481,0.32009564655927936,0.3963750877126376
538,30.607,30.31,0.67,0.36889278753303173,0.7499651118943769,0.7014291322831878,0.8566842338042372,0.32033084438279924,0.39510202028522573
539,30.647,30.37,0.51,0.36956640050249184,0.7491645227674967,0.7013824630105717,0.8560539762557026,0.32055411982750404,0.39382901918767993
540,30.708,30.42,0.58,0.37025606597644006,0.7483805195501432,0.7013477744559532,0.8554181481657908,0.3207647547701442,0.3925565527034965
541,30.769,30.48,0.71,0.37096159296119746,0.7476140985405212,0.701325021998242,0.8547771841270463,0.32096203375180166,0.3912850855364771
542,30.811,30.53,0.66,0.37168278773550234,0.7468662423693031,0.701314156270163,0.8541315192068383,0.32114524479515594,0.3900150786018903
543,30.916,30.59,0.54,0.3724194542137877,0.7461379190865151,0.7013151233212241,0.8534815885177084,0.3213136802332783,0.38874698882346714
544,30.937,30.64,0.86,0.37317139431387325,0.7454300812670206,0.7013278647864729,0.8528278267924257,0.32146663754858645,0.38748126893622065
545,30.978,30.7,0.74,0.3739384083284478,0.7447436651349535,0.7013523180607306,0.8521706679642101,0.32160342022057553,0.38621836729503994
546,31.041,30.75,0.46,0.374720295299703,0.7440795897073835,0.7013884164779732,0.8515105447525514,0.32172333858092084,0.38495872768897105
547,31.083,30.81,0.8,0.3755168533964832,0.7434387559574168,0.7014360894955135,0.8508478882550127,0.3218257106745405,0.3837027891610487
548,31.146,30.86,0.77,0.376327880293319,0.7428220459968214,0.7014952628826381,0.8501831275453683,0.3219098631251796,0.3824509858335131
549,31.209,30.92,0.61,0.3771531735507176,0.7422303222781845,0.701565858913346,0.8495166892783781,0.3219751320040149,0.381203746738254
550,31.272,30.97,0.67,0.377992530996047,0.741664426816595,0.7016477965628094,0.8488489973014798,0.3220208636997196,0.37996149565234566
551,31.293,31.03,0.83,0.3788457511043124,0.7411251804308842,0.7017409917071532,0.8481804722736718,0.32204641578838206,0.3787246509385177
552,31.356,31.08,0.78,0.3797126333780934,0.7406133820044758,0.7018453573261132,0.8475115312918394,0.32205115790163985,0.3774936253903639
553,31.46,31.14,0.7,0.38059297872589354,0.7401298077659269,0.7019608037081249,0.8468425875247523,0.3220344725913533,0.3762688260820513
554,31.481,31.19,1.04,0.38148658983813827,0.7396752105892868,0.7020872386573747,0.8461740498549379,0.3219957561891197,0.375050654222255
555,31.523,31.25,0.93,0.3823932715600651,0.7392503193144329,0.7022245677023463,0.8455063225286151,0.3219344196589434,0.3738395050119903
556,31.586,31.3,0.66,0.3833128312607548,0.7388558380875222,0.702372694305406,0.84483980481384,0.321849889441404,0.3726357675059641
557,31.649,31.36,1.04,0.3842450791975741,0.7384924457216736,0.7025315200729683,0.844174890667004,0.3217416082877053,0.3714398244770232
558,31.69,31.41,1.03,0.38518982887531783,0.738160795077952,0.7027009449658032,0.8435119684078037,0.3216090360820165,0.37025205228326746
559,31.754,31.47,0.92,0.3861468973993575,0.7378615124666867,0.7028808675090419,0.8428514204027922,0.32145165065051307,0.3690728207374324
560,31.817,31.52,1.01,0.38711610582209516,0.7375951970691823,0.7030711850014361,0.8421936227576267,0.32126894855552723,0.3679024929782017
561,31.859,31.58,1.18,0.38809727948201117,0.7373624203798965,0.7032717937234055,0.8415389450181305,0.32106044587325155,0.36674142534314014
562,31.92,31.63,1.12,0.38909024833459477,0.7371637256691552,0.7034825891434143,0.8408877498802758,0.32082567895349384,0.3655899672429474
563,32.001,31.69,1.01,0.3900948472744575,0.7369996274664357,0.7037034661222159,0.8402403929091674,0.3205642051600299,0.3644484610367677
564,32.022,31.74,1.33,0.39111091644793294,0.7368706110642835,0.7039343191145156,0.8395972222670947,0.32027560359015667,0.3633172419083203
565,32.083,31.8,1.2,0.3921383015554839,0.7367771320429438,0.7041750423676061,0.8389585784507102,0.3199594757721078,0.36219663774263633
566,32.145,31.85,0.91,0.39317685414326364,0.7367196158157955,0.7044255301165412,0.8383247940373881,0.31961544633904815,0.36108696900319553
567,32.206,31.91,1.28,0.39422643188321493,0.7366984571956736,0.704685676775436,0.8376961934408119,0.31924316367840794,0.3599885486092592
568,32.247,31.96,1.26,0.39528689884113155,0.7367140199821526,0.7049553771244916,0.8370730926758487,0.31884230055534,0.3589016818132134
569,32.308,32.02,1.09,0.3963581257321378,0.736766636569888,0.7052345264923682,0.8364557991327564,0.3184125547090773,0.35782666607779023
570,32.369,32.07,1.17,0.39743999016303233,0.7368566075782488,0.7055230209335244,0.8358446113607888,0.3179536494209549,0.3567637909530981
571,32.41,32.13,1.33,0.39853237686091675,0.7369842015026515,0.7058207574001387,0.8352398188612742,0.3174653340528856,0.3557133379534152
572,32.472,32.18,1.26,0.3996351778875259,0.7371496543881085,0.7061276339082333,0.8346417018902454,0.3169473845551078,0.3546755804336988
573,32.514,32.24,1.16,0.40074829283868985,0.7373531695255455,0.7064435496976391,0.8340505312706878,0.3163996039420484,0.353650783465773
574,32.573,32.29,1.57,0.40187162902838397,0.7375949171714817,0.7067684053854637,0.8334665682144557,0.3158218227351772,0.35263920371416096
575,32.635,32.35,1.46,0.4030051016568652,0.7378750342916599,0.7071021031127505,0.8328900641539152,0.31521389937179606,0.35164108931152277
576,32.797,32.4,1.19,0.4041486339624389,0.7381936243292034,0.7074445466840569,0.8323212605833495,0.3145757205787877,0.3506566797336502
577,32.817,32.46,1.58,0.40530215735645053,0.7385507569978437,0.7077956416997205,0.8317603889101497,0.3139072017104615,0.34968620567396275
578,32.837,32.51,1.54,0.4064656115411569,0.7389464681006941,0.7081552956806348,0.8312076703157838,0.31320828704974224,0.34872988891744927
579,32.858,32.57,1.38,0.4076389446101831,0.7393807593749533,0.7085234181854,0.8306633156265208,0.312478950072028,0.34778794221404935
580,32.919,32.62,1.45,0.40882211313130684,0.7398535983628534,0.7088999209197278,0.8301275251938885,0.3117191936711093,0.3468605691515274
581,32.98,32.68,1.6,0.4100150822113325,0.7403649183091016,0.7092847178379869,0.8296004887848624,0.3109290503466159,0.3459479640279254
582,33.0,32.73,1.54,0.4112178255428491,0.7409146180849548,0.7096777252367806,0.8290823854817921,0.3101085823525346,0.34505031172369854
583,33.103,32.79,1.43,0.41243032543269487,0.7415025621389371,0.7100788618404628,0.8285733835920529,0.30925788180639396,0.34416778757366673
584,33.123,32.84,1.8,0.4136525728119745,0.7421285804741177,0.7104880488785094,0.8280736405673956,0.30837707075878157,0.34330055723893943
585,33.166,32.9,1.66,0.4148845672275045,0.7427924686517879,0.7109052101546774,0.8275833029329497,0.3074663012229482,0.3424487765789792
586,33.227,32.95,1.41,0.41612631681460266,0.7434939878212862,0.7113302721079036,0.8271025062257983,0.3065257551643564,0.341612591523968
587,33.288,33.01,1.76,0.4173778382511925,0.7442328647756699,0.7117631638649148,0.826631374943036,0.3055556444501467,0.34079213794763963
588,33.37,33.06,1.76,0.41863915669326063,0.7450087920328623,0.712203817284552,0.8261700224992006,0.30455621075860717,0.33998754154075017
589,33.39,33.12,1.62,0.41991030569177396,0.7458214279418615,0.7126521669938355,0.8257185511929663,0.30352772544880424,0.33919891768540905
590,33.472,33.17,1.67,0.42119132709120494,0.7466703968136256,0.7131081504158111,0.8252770521830011,0.3024704893906138,0.3384263713305639
591,33.494,33.23,1.81,0.4224822709098452,0.7475552890763011,0.7135717077892187,0.8248456054729254,0.3013848327554911,0.3376699968689719
592,33.554,33.28,1.68,0.4237831952021273,0.7484756614544652,0.7140427821800394,0.8244242799053159,0.3002711147684333,0.336929878016031
593,33.616,33.34,1.53,0.4250941659032254,0.7494310371720203,0.7145213194849935,0.8240131331647018,0.29912972342167987,0.33620608769089033
594,33.679,33.39,1.87,0.42641525665624275,0.7504209061783916,0.7150072684270813,0.8236122117894957,0.2979610751507739,0.3354986879003062
595,33.739,33.45,1.7,0.4277465486223357,0.7514447253976931,0.7155005805432608,0.8232215511928008,0.29676561447367716,0.3348077296257281
596,33.8,33.5,1.42,0.4290881302741566,0.7525019190005428,0.7160012101643717,0.8228411756920385,0.29554381359368875,0.3341332527140961
597,33.84,33.56,1.76,0.4304400971730378,0.7535918786982029,0.7165091143874082,0.8224710985473493,0.29429617196697505,0.3334752857728069
598,33.904,33.61,1.73,0.4318025517303696,0.7547139640587075,0.71702425304026,0.8221113220087282,0.29302321583557556,0.3328338460692869
599,33.966,33.67,1.56,0.433175602953654,0.7558675028446445,0.7175465886390437,0.8217618373718721,0.2917254977267867,0.33220893943562974
600,34.028,33.72,1.59,0.4345593661777139,0.7570517913723713,0.7180760863381491,0.8214226250427414,0.2904035959198628,0.3316005601787944
601,34.048,33.78,1.73,0.4359539627815279,0.7582660948926021,0.718612713873114,0.8210936546108762,0.2890581138810448,0.3310086909968739
602,34.11,33.83,1.59,0.4373595198911836,0.7595096479923885,0.7191564414964549,0.8207748849315201,0.2876896796680019,0.3304333029019463
603,34.214,33.89,1.43,0.43877617006947145,0.7607816550185216,0.7197072419065896,0.8204662642165939,0.28629894530482825,0.3298743551500327
604,34.235,33.94,1.78,0.44020405099267873,0.7620812905223949,0.7202650901700113,0.8201677301345546,0.2848865861287862,0.3293317951786902
605,34.277,34.0,1.58,0.4416433051151679,0.763407699726344,0.7208299636368927,0.8198792099191523,0.2834533001100375,0.3288055585527484
606,34.338,34.05,1.3,0.4430940793223558,0.7647599990114485,0.7214018418503357,0.8196006204870663,0.28199980714564454,0.32829556891866046
607,34.399,34.11,1.56,0.44455652457272676,0.7661372764267587,0.7219807064495085,0.8193318685643615,0.2805268483291739,0.32780173796788575
608,34.441,34.16,1.51,0.4460307955295482,0.76753859221986,0.7225665410669492,0.8190728508216776,0.2790351851972708,0.32732396540967096
609,34.502,34.22,1.32,0.4475170501829662,0.7689629793886734,0.7231593312203247,0.8188234540180337,0.27752559895457535,0.3268621389535735
610,34.584,34.27,1.3,0.44901544946314265,0.7704094442544432,0.723759064198936,0.8185835551531458,0.275998889678338,0.3264161343020702
611,34.604,34.33,1.45,0.4505261568450417,0.7718769670559988,0.7243657289452252,0.8183530216281729,0.2744558755040885,0.32598581515356617
612,34.664,34.38,1.32,0.4520493379454379,0.7733645025654826,0.7249793159315361,0.8181317114148184,0.2728973917937189,0.3255710332160951
613,34.725,34.44,1.17,0.45358516011269345,0.7748709807258038,0.7255998170323695,0.8179194732327013,0.2713242902873299,0.32517162823199397
614,34.786,34.49,1.49,0.4551337920098543,0.776395307310119,0.7262272253923788,0.8177161467349048,0.26973743824019053,0.3247874280138388
615,34.848,34.55,1.33,0.45669540319163915,0.7779363646036146,0.7268615352903594,0.8175215627015776,0.26813771754618276,0.324418248491905
616,34.868,34.6,1.04,0.4582701636759318,0.7794930121077854,0.7275027419995056,0.8173355432414602,0.26652602384912755,0.3240638937733873
617,34.952,34.66,1.32,0.459858243510426,0.7810640872673226,0.728150841644221,0.81715790200118,0.26490326564342936,0.32372415621356443
618,34.993,34.71,1.27,0.4614598123351077,0.7826484062196496,0.7288058310537847,0.8169884443821596,0.2632703633655096,0.3233988164990428
619,35.056,34.77,1.06,0.4630750389412819,0.7842447645671198,0.7294677076131947,0.8168269677649632,0.2616282484775011,0.3230876437431857
620,35.117,34.82,1.02,0.46470409082783665,0.7858519381719562,0.7301364691115078,0.8166732617409,0.2599778625446644,0.3227903955938215
621,35.178,34.88,1.14,0.466347133755417,0.7874686839741015,0.7308121135880061,0.8165271083506724,0.25832015630798255,0.32250681835328987
622,35.239,34.93,0.99,0.46800433129917296,0.7890937408321851,0.7314946391765261,0.816388282329807,0.2566560887533786,0.3222366471108551
623,35.34,34.99,0.84,0.4696758444007388,0.7907258303877883,0.7321840439483063,0.8162565513605468,0.2549866261789542,0.3219796058875113
624,35.361,35.04,1.16,0.47136183092008643,0.7923636579531933,0.7328803257537081,0.8161316763298486,0.2533127412616022,0.3217354077932062
625,35.381,35.1,0.98,0.47306244518788365,0.7940059134227574,0.7335834820631625,0.8160134115931261,0.25163541212431123,0.3215037551964987
626,35.422,35.15,0.68,0.47477783755898745,0.7956512722080086,0.7342935098076969,0.8159015052433588,0.24995562140546274,0.3212843399066426
627,35.483,35.21,0.94,0.4765081539677065,0.79729839619649,0.7350104052194006,0.8157956993851961,0.24827435533141967,0.3210768433680516
628,35.544,35.26,0.9,0.47825353548549576,0.7989459347342919,0.7357341636722009,0.8156957304136743,0.24659260279370204,0.3208809368670743
629,35.605,35.32,0.73,0.48001411788175324,0.8005925256321367,0.7364647795233379,0.8156013292971716,0.24491135443200818,0.3206962817510086
630,35.688,35.37,0.71,0.48179003118838126,0.8022367961948724,0.7372022459559155,0.8155122218642393,0.24323160172428973,0.32052252965930467
631,35.71,35.43,0.83,0.4835813992687408,0.8038773642742415,0.7379465548228897,0.8154281290939821,0.2415543360850591,0.32035932276690754
632,35.751,35.48,0.7,0.48538833939161224,0.8055128393447506,0.7386976964928427,0.8153487674096631,0.23988054797308606,0.3202062940396781
633,35.813,35.54,0.54,0.4872109618107765,0.8071418236023575,0.739455659697893,0.8152738489752052,0.23821122600960332,0.3200630675018448
634,35.875,35.59,0.86,0.48904936935082194,0.8087629130855818,0.7402204313840886,0.8152030819942467,0.23654735610810776,0.31992925851544457
635,35.936,35.65,0.66,0.4909036569997871,0.8103746988185166,0.740991996564614,0.8151361710114211,0.2348899206168192,0.3198044740716982
636,35.978,35.7,0.36,0.49277391150923716,0.8119757679751104,0.7417703381761304,0.8150728172155364,0.23323989747484136,0.319688313094235
637,36.04,35.76,0.62,0.49466021100235863,0.8135647050639766,0.7425554369385393,0.8150127187443513,0.23159825938305983,0.3195803667540281
638,36.1,35.81,0.58,0.49656262459065165,0.8151400931328837,0.7433472712184527,0.8149555709906647,0.22996597299078497,0.3194802187958603
639,36.161,35.87,0.39,0.49848121199979045,0.8167005149919815,0.7441458168966316,0.814901066909436,0.22834399809908498,0.3193874458761228
640,36.221,35.92,0.37,0.5004160232051887,0.8182445544548187,0.7449510472396454,0.8148488973256974,0.22673328688167219,0.31930161791176553
641,36.263,35.98,0.52,0.5023670980777695,0.8197707975962579,0.7457629327759665,0.8147987512430498,0.22513478312414986,0.31922229844020883
642,36.304,36.03,0.4,0.504334466040405,0.8212778340263596,0.7465814411767125,0.8147503161525502,0.22354942148237864,0.31914904499001706
643,36.405,36.09,0.28,0.506318145735481,0.8227642581791831,0.7474065371412512,0.8147032783417928,0.22197812676066817,0.3190814094621356
644,36.426,36.14,0.59,0.5083181447040016,0.8242286706152561,0.7482381822878778,0.8146573232039651,0.2204218132104591,0.31901893852147833
645,36.467,36.2,0.38,0.5103344590766263,0.8256696793362243,0.7490763350497728,0.8146121355466629,0.21888138385014164,0.3189611739986066
646,36.549,36.25,0.09,0.5123670732769814,0.8270859011099333,0.7499209505764289,0.8145673999002404,0.21735772980665477,0.3189076533011683
647,36.591,36.31,0.36,0.5144159597375589,0.8284759628039773,0.7507719806407099,0.8145228008254878,0.21585172967950822,0.31885790983469126
648,36.63,36.36,0.36,0.5164810786285009,0.8298385027255649,0.7516293735516796,0.8144780232204363,0.21436424892784603,0.31881147343226474
649,36.712,36.42,0.2,0.5185623775995525,0.8311721719654248,0.752493074073324,0.8144327526261038,0.21289613928109988,0.31876787079263
650,36.795,36.47,0.18,0.5206597915354503,0.8324756357434654,0.7533630233492585,0.814386675531008,0.21144823817370578,0.31872662592620105
651,36.816,36.53,0.32,0.5227732423249732,0.8337475747539574,0.7542391588334809,0.8143394796743038,0.21002136820432138,0.31868726060850977
652,36.857,36.58,0.2,0.524902638643865,0.8349866865080477,0.7551214142272354,0.8142908543473989,0.20861633661996534,0.31864929484053944
653,36.917,36.64,-0.01,0.5270478757518156,0.8361916866714093,0.7560097194220557,0.8142404906938716,0.20723393482547353,0.3186122473154049
654,36.978,36.69,0.3,0.5292088353036699,0.8373613103948279,0.7569040004490807,0.8141880820074736,0.20587493791863223,0.31857563589085003
655,37.019,36.75,0.09,0.5313853851750113,0.8384943136355049,0.7578041794347439,0.8141333240279642,0.2045401042513113,0.3185389780670334
656,37.08,36.8,-0.24,0.5335773793022611,0.8395894744668,0.7587101745629379,0.8140759152344872,0.20323017501686524,0.31850179146906377
657,37.163,36.86,-0.02,0.5357846575374493,0.8406455943740907,0.7596219000437423,0.8140155571361813,0.20194587386400545,0.3184635943337286
658,37.204,36.91,-0.11,0.5380070455178315,0.8416614995343544,0.7605392660887894,0.813951954559709,0.20068790653725535,0.31842390599983167
659,37.267,36.97,-0.21,0.5402443545505553,0.8426360420770241,0.7614621788933241,0.813884815933368,0.199456960543963,0.31838224740155957
660,37.327,37.02,-0.24,0.5424963815125622,0.8435681013237004,0.7623905406249765,0.8138138535674568,0.1982537048476881,0.31833814156431134
661,37.348,37.08,-0.1,0.544762908765883,0.8444565850043743,0.7633242494192183,0.8137387839305793,0.19707878958765027,0.3182911141024185
662,37.41,37.13,-0.19,0.5470437040884583,0.8453004304478424,0.7642631993814324,0.8136593279215858,0.1959328458238285,0.3182406937181571
663,37.494,37.19,-0.34,0.5493385206206066,0.846098605743978,0.7652072805954966,0.8135752111368453,0.19481648530722173,0.3181864127014377
664,37.514,37.24,0.03,0.5516470968272547,0.8468501108755012,0.7661563791387647,0.8134861641325392,0.19373030027472654,0.3181278074295504
665,37.576,37.3,-0.14,0.5539691564760398,0.8475539788168857,0.7671103771033171,0.8133919226816596,0.19267486326805072,0.3180644188663273
666,37.636,37.35,-0.39,0.5563044086314031,0.8482092765980314,0.768069152623344,0.8132922280253879,0.19165072697606322,0.3179957930600744
667,37.697,37.41,-0.13,0.5586525476647874,0.8488151063303526,0.7690325799085191,0.8131868271185477,0.19065842409997308,0.31792148163959294
668,37.74,37.46,-0.18,0.5610132532810743,0.8493706061929653,0.7700005292832062,0.8130754728688354,0.18969846724072306,0.31784104230758803
669,37.799,37.52,-0.32,0.5633861905613963,0.8498749513767048,0.7709728672313348,0.8129579243695533,0.18877134880793672,0.3177540393307562
670,37.925,37.57,-0.33,0.5657710100224277,0.8503273549838631,0.7719494564467574,0.8128339471256056,0.18787754094968992,0.31766004402586384
671,37.944,37.63,-0.15,0.5681673476922116,0.8507270688817279,0.7729301558888575,0.8127033132725677,0.1870174955023253,0.3175586352411281
672,37.986,37.68,-0.25,0.5705748252025383,0.8510733845081461,0.7739148208431573,0.8125658017886647,0.18619164395947796,0.31744939983219683
673,38.007,37.74,-0.4,0.5729930498978768,0.8513656336273902,0.7749033029866587,0.8124211986995031,0.18540039745942902,0.3173319331320177
674,38.07,37.79,-0.01,0.5754216149608407,0.8516031890346345,0.775895450457647,0.8122692972753704,0.18464414678987082,0.3172058394138716
675,38.133,37.85,-0.16,0.5778600995541748,0.8517854652073575,0.776891107929696,0.8121098982208954,0.18392326240915327,0.3170707323468291
676,38.196,37.9,-0.4,0.5803080689792548,0.851911918901991,0.7778901166896229,0.8119428098568436,0.18323809448308379,0.3169262354428858
677,38.257,37.96,-0.08,0.5827650748510927,0.8519820496941911,0.7788923147191533,0.8117678482938211,0.1825889729363679,0.31677198249503613
678,38.278,38.01,-0.08,0.5852306552898563,0.8519954004611888,0.7798975367800765,0.8115848375976711,0.18197620751780183,0.31660761800554554
679,38.341,38.07,-0.19,0.5877043351289007,0.8519515578048045,0.7809056145027001,0.8113936099463471,0.1814000878783274,0.3164327976036978
680,38.402,38.12,-0.2,0.5901856261392767,0.8518501524139492,0.7819163764774254,0.8111940057780567,0.18086088366106048,0.31624718845232097
681,38.483,38.18,-0.02,0.5926740272706056,0.8516908593657113,0.7829296483492498,0.810985873930498,0.18035884460243123,0.31605046964239725
682,38.504,38.23,-0.13,0.5951690249081834,0.8514733983643185,0.7839452529150087,0.8107690717710283,0.17989420064360745,0.31584233257506733
683,38.566,38.29,-0.25,0.5976700931461365,0.8511975339173333,0.7849630102231607,0.8105434653175987,0.1794671620513905,0.3156224813303574
684,38.628,38.34,0.15,0.6001766940764532,0.8508630754484718,0.7859827376759314,0.8103089293502871,0.17907791954778318,0.31539063302198034
685,38.669,38.4,0.01,0.6026882780937027,0.8504698773464326,0.7870042501336263,0.8100653475132616,0.17872664444745096,0.3151465181375649
686,38.73,38.45,-0.21,0.605204284215251,0.8500178389491804,0.7880273600209319,0.8098126124070025,0.178413488802329,0.3148898808636727
687,38.791,38.51,0.09,0.6077241404167724,0.8495069044632375,0.7890518774350216,0.8095506256706397,0.17813858555268688,0.3146204793949622
688,38.852,38.56,0.07,0.6102472639828574,0.8489370628177004,0.7900776102552944,0.8092792980542851,0.17790204868402804,0.31433808622687315
689,38.894,38.62,-0.02,0.6127730618725206,0.8483083474528542,0.7911043642545873,0.8089985494812558,0.17770397338924468,0.3140424884312507
690,38.977,38.67,-0.05,0.6153009310993881,0.847620836043517,0.7921319432117189,0.8087083091001093,0.17754443623547983,0.3137334879143981
691,38.998,38.73,0.14,0.6178302591263096,0.8468746501575708,0.7931601490252203,0.8084085153264335,0.17742349533519136,0.3134109016570983
692,39.06,38.78,0.03,0.6203604242740985,0.8460699548504307,0.7941887818281297,0.8080991158743431,0.17734119052095818,0.31307456193618566
693,39.121,38.84,-0.17,0.622890796144089,0.8452069581964249,0.7952176401037434,0.8077800677776226,0.1772975435235962,0.31272431652729776
694,39.202,38.89,0.21,0.6254207360541731,0.8442859107582199,0.7962465208022322,0.80745133740045,0.17729255815317269,0.3123600288884827
695,39.224,38.95,0.14,0.6279495974879635,0.8433071049955158,0.7972752194580371,0.8071129004376366,0.1773262204825278,0.3119815783243743
696,39.285,39.0,-0.14,0.6304767265567075,0.8422708746143018,0.7983035303079608,0.8067647419043106,0.1773984990329264,0.31158886013068743
697,39.346,39.06,0.15,0.6330014624735459,0.841177593858049,0.7993312464098585,0.8064068561150122,0.17750934496149554,0.311181785718815
698,39.388,39.11,0.17,0.6355231380397003,0.840027676742277,0.800358159761833,0.8060392466521811,0.17765869225015135,0.31076028272033634
699,39.449,39.17,0.04,0.6380410801421548,0.8388215762340254,0.8013840614218324,0.8056619263240525,0.17784645789575795,0.31032429507128934
700,39.511,39.22,0.01,0.6405546102623704,0.8375597833778968,0.802408741627549,0.8052749171120098,0.178072542101289,0.30987378307611413
701,39.552,39.28,0.18,0.6430630449955222,0.8362428263705317,0.8034319899164949,0.8048782501074844,0.17833682846780619,0.3094087234512032
702,39.614,39.33,0.08,0.6455656965797262,0.8348712695855227,0.8044535952461318,0.8044719654385106,0.17863918418711258,0.3089291093480056
703,39.719,39.39,-0.1,0.648061873434687,0.8334457125508462,0.8054733461139487,0.8040561121860266,0.1789794602349608,0.30843495035566737
704,39.76,39.44,0.27,0.6505508807091582,0.831966788880958,0.806491030677404,0.8036307482899825,0.17935749156470782,0.3079262724832254
705,39.782,39.5,0.08,0.6530320208365403,0.8304351651656989,0.8075064368736677,0.8031959404452889,0.17977309730132432,0.3074031181214052
706,39.823,39.55,-0.17,0.6555045940978727,0.828851539818137,0.808519352539125,0.8027517639876164,0.1802260809356769,0.3068655459840914
707,39.885,39.61,0.1,0.6579678991914024,0.8272166418834568,0.809529565528594,0.802298302769079,0.18071623051901925,0.30631363102955206
708,39.947,39.66,0.1,0.6604212338078717,0.8255312298110158,0.8105368638342102,0.8018356490238622,0.181243318857636,0.30574746436149963
709,40.01,39.72,-0.02,0.662863895210636,0.8237960901917222,0.8115410357039173,0.8013639032239005,0.1818071037075643,0.3051671531100956
710,40.092,39.77,-0.04,0.6652951808196924,0.8220120364630505,0.8125418697594755,0.8008831739247709,0.18240732796929277,0.3045728202930465
711,40.113,39.83,0.17,0.6677143887986454,0.8201799075842479,0.8135391551138654,0.8003935776020359,0.18304371988234563,0.303964604656956
712,40.154,39.88,0.05,0.670120818643624,0.8183005666844702,0.8145326814879482,0.7998952384783352,0.183715993219684,0.30334266049910197
713,40.216,39.94,-0.13,0.6725137717731655,0.8163748996866991,0.815522239326241,0.7993882883415165,0.18442384748187446,0.3027071574698221
714,40.278,39.99,0.25,0.6748925521180836,0.814403813910366,0.816507619911687,0.7988728663540959,0.18516696809099856,0.30205828035569937
715,40.359,40.05,0.07,0.6772564667103663,0.8123882366556958,0.8174886154793067,0.7983491188542974,0.18594502658430245,0.3013962288437312
716,40.398,40.1,-0.21,0.6796048262701391,0.8103291137728961,0.8184650193286215,0.7978171991489461,0.18675768080760438,0.3007212172666548
717,40.46,40.16,0.04,0.6819369457897352,0.8082274082194872,0.8194366259347118,0.7972772672985357,0.18760457510849265,0.3000334743295881
718,40.523,40.21,0.07,0.6842521451139078,0.8060840986092159,0.8204032310577426,0.7967294898948856,0.1884853405293471,0.2993332428181414
719,40.544,40.27,0.0,0.6865497495152443,0.8039001777560321,0.821364631850765,0.7961740398318485,0.18939959500018014,0.29862077928818787
720,40.606,40.32,-0.01,0.6888290902638597,0.8016766512166155,0.8223206269655983,0.795611096069559,0.1903469435312498,0.29789635373754464
721,40.647,40.38,0.13,0.6910895051904574,0.7994145358349088,0.8232710166565828,0.7950408433927286,0.19132697840539467,0.2971602492598534
722,40.708,40.43,0.04,0.6933303392418926,0.7971148582919897,0.824215602882006,0.7944634721635064,0.19233927937007575,0.29641276168097136
723,40.769,40.49,-0.15,0.6955509450284331,0.7947786536643746,0.8251541894030244,0.7938791780694121,0.19338341382914234,0.2956541991782217
724,40.83,40.54,0.27,0.6977506833619809,0.7924069639935747,0.8260865818799263,0.7932881618668381,0.19445893703436093,0.2948848818829336
725,40.892,40.6,0.15,0.6999289237845739,0.7900008368694837,0.8270125879656066,0.7926906291206098,0.1955653922767546,0.29410514146679445
726,40.932,40.65,-0.18,0.7020850450865206,0.7875613240300552,0.8279320173961349,0.7920867899400961,0.19670231107781105,0.2933153207126478
727,40.994,40.71,0.05,0.7042184358135256,0.7850894799797185,0.8288446820783096,0.7914768587123974,0.1978692133806432,0.2925157730704469
728,41.056,40.76,0.08,0.7063284947621847,0.7825863606289516,0.8297503961740975,0.790861053833163,0.1990656077412157,0.2917068621991496
729,41.097,40.82,0.05,0.7084146314632601,0.7800530219572858,0.8306489761818825,0.7902395974355891,0.20029099151973187,0.29088896149544763
730,41.2,40.87,-0.01,0.7104762666521626,0.777490518701861,0.8315402410144713,0.7896127151181314,0.201544851072227,0.29006245361037375
731,41.221,40.93,0.25,0.7125128327260825,0.774899903073513,0.8324240120738031,0.7889806356714479,0.20282666194239563,0.2892277299549378
732,41.262,40.98,0.14,0.7145237741872131,0.7722822235022198,0.8333001133223339,0.7883435908050745,0.20413588905370617,0.2883851901960008
733,41.323,41.04,-0.07,0.7165085480715534,0.7696385234135762,0.8341683713510912,0.7877018148742956,0.20547198690190038,0.28753524174361283
734,41.385,41.09,0.34,0.7184666243627987,0.7669698400378014,0.8350286154444224,0.7870555446076549,0.20683439974802467,0.2866782992310416
735,41.446,41.15,0.18,0.7203974863908834,0.7642772032526141,0.8358806776414801,0.786405018835541,0.2082225618121839,0.28581478398870863
736,41.488,41.2,-0.02,0.7223006312147637,0.7615616344611665,0.8367243927945028,0.7857504782202723,0.20963589746823263,0.28494512351324597
737,41.571,41.26,0.18,0.7241755699890593,0.7588241455061465,0.8375595986239343,0.785092164988143,0.21107382143963968,0.28406975093288095
738,41.591,41.31,0.16,0.7260218283141977,0.7560657376210499,0.8383861357704397,0.7844303226638992,0.21253573899678407,0.2831891044703306
739,41.654,41.37,0.11,0.727838946569754,0.7532874004194151,0.839203847843885,0.7837651958080967,0.21402104615593145,0.28230362690436145
740,41.695,41.42,0.05,0.7296264802307156,0.7504901109225666,0.8400125814693625,0.7830970297577462,0.21552912988011283,0.2814137650311517
741,41.758,41.48,0.31,0.731384000166431,0.7476748326261755,0.8408121863303479,0.7824260703706218,0.21705936828210995,0.2805199691265406
742,41.84,41.53,0.2,0.7331110929220191,0.7448425146057092,0.8416025152090797,0.7817525637735535,0.21861113082975486,0.27962269241017557
743,41.861,41.59,-0.02,0.7348073609820454,0.74199409066063,0.8423834240242559,0.7810767561149824,0.22018377855376026,0.27872239051248515
744,41.943,41.64,0.38,0.7364724230162774,0.7391304784970455,0.8431547718661537,0.7803988933220151,0.22177666425832318,0.2778195209453297
745,42.004,41.7,0.22,0.7381059141073649,0.736252578948424,0.8439164210292762,0.779719220862175,0.22338913273477,0.2769145425771133
746,42.024,41.75,0.02,0.7397074859602962,0.7333612752340272,0.8446682370426375,0.7790379835100384,0.22502052097851974,0.2760079151130964
747,42.087,41.81,0.2,0.7412768070934914,0.7304574322548781,0.845410088697795,0.7783554251189536,0.22667015840964477,0.27510009858160933
748,42.149,41.86,0.16,0.7428135630114135,0.7275418959272801,0.8461418480747404,0.7776717883980576,0.22833736709730834,0.2741915528268039
749,42.191,41.92,0.1,0.7443174563586272,0.7246154925539796,0.8468633905657817,0.7769873146947841,0.23002146198832674,0.27328273700852246
750,42.314,41.97,-0.01,0.7457882070552956,0.7216790282330521,0.8475745948975691,0.7763022437830278,0.23172175114004898,0.27237410910981036
751,42.335,42.03,0.27,0.7472255524141744,0.7187332883045116,0.8482753431514166,0.7756168136570945,0.23343753595769134,0.27146612545254145
752,42.356,42.08,0.15,0.7486292472392413,0.7157790368344851,0.8489655207820858,0.7749312603315208,0.23516811143621807,0.2705592402215563
753,42.417,42.14,-0.05,0.7499990639061695,0.7128170161366402,0.8496450166352004,0.7742458176468145,0.23691276640681683,0.26965390499765424
754,42.478,42.19,0.37,0.7513347924249024,0.7098479463304712,0.850313722963453,0.7735607170811204,0.23867078378799184,0.2687505682997145
755,42.54,42.25,0.23,0.7526362404845984,0.706872524936046,0.8509715354417626,0.7728761875678023,0.24044144084129404,0.267849675136168
756,42.581,42.3,0.04,0.7539032334812256,0.7038914265049088,0.8516183531815236,0.7721924553189197,0.24222400943169936,0.26695166656600106
757,42.665,42.36,0.2,0.7551356145280705,0.7009053022870297,0.8522540787440648,0.7715097436546001,0.24401775629265618,0.26605697926943667
758,42.686,42.41,0.2,0.7563332444494453,0.6979147799338588,0.8528786181534261,0.7708282728383387,0.2458219432958318,0.26516604512837605
759,42.747,42.47,0.14,0.7574960017579109,0.6949204632375925,0.8534918809085528,0.7701482599182393,0.24763582772556994,0.2642792908166342
760,42.81,42.52,0.07,0.7586237826153844,0.6919229319067534,0.8540937799950182,0.7694699185742,0.24945866255802304,0.26339713739996734
761,42.871,42.58,0.37,0.7597165007785266,0.6889227413781681,0.854684231896382,0.7687934589710034,0.2512896967448739,0.26251999994584807
762,42.912,42.63,0.26,0.7607740875288581,0.6859204226653791,0.8552631566052933,0.7681190876172472,0.2531281755015278,0.261648287142896
763,42.975,42.69,0.0,0.7617964915880798,0.6829164822434446,0.855830477634457,0.7674470072300124,0.25497334059963206,0.2607824009298246
764,43.037,42.74,0.52,0.7627836790190846,0.6799114019700087,0.8563861220275633,0.7667774166051465,0.2568244306637789,0.25992273613374306
765,43.098,42.8,0.43,0.7637356331131363,0.6769056390424637,0.8569300203702668,0.766110510493038,0.25868068147225914,0.2590696801176689
766,43.139,42.85,0.29,0.7646523542636621,0.6738996259910316,0.8574621068012763,0.7654464794797713,0.26054132626174337,0.25822361243717784
767,43.18,42.91,0.52,0.7655338598270626,0.670893770707667,0.857982319023582,0.7647855098735997,0.2624055960358026,0.25738490450620033
768,43.242,42.96,0.58,0.7663801839709091,0.6678884565107749,0.8584905983158323,0.7641277835967223,0.2642727198772572,0.2565539192720025
769,43.303,43.02,0.57,0.7671913775099001,0.6648840422457152,0.8589868895438748,0.7634734780823641,0.26614192526442304,0.2557310108994054
770,43.387,43.07,0.51,0.7679675077299415,0.6618808624210178,0.8594711411724881,0.7628227661771514,0.2680124383913945,0.25491652446431234
771,43.407,43.13,0.78,0.7687086582007177,0.6588792273801822,0.8599433052773348,0.7621758160487626,0.2698834844925765,0.2541107956566354
772,43.468,43.18,0.62,0.7694149285771154,0.6558794235088541,0.8604033375571757,0.7615327910988144,0.27175428817176234,0.2533141504927305
773,43.51,43.24,0.33,0.7700864343898736,0.6528817134770435,0.8608511973464035,0.760893849880917,0.2736240737361173,0.25252690503747083
774,43.612,43.29,0.78,0.7707233068258252,0.6498863365158917,0.8612868476279459,0.7602591460238255,0.27549206553547484,0.2517493651361093
775,43.632,43.35,0.66,0.7713256924981012,0.6468935087283301,0.8617102550465896,0.7596288281596087,0.27735748830735657,0.2509818261561063
776,43.673,43.4,0.5,0.7718937532066557,0.643903423432891,0.8621213899227601,0.7590030398567751,0.2792195675280941,0.2502245727391465
777,43.774,43.46,0.68,0.7724276656894412,0.640916251539993,0.8625202262667669,0.7583819195583273,0.2810775297704021,0.2494778785635995
778,43.795,43.51,0.77,0.7729276213645472,0.6379321419601417,0.8629067417935089,0.7577656005247647,0.2829306030677575,0.2487420061176599
779,43.836,43.57,0.58,0.7733938260636245,0.6349512220435312,0.8632809179376354,0.7571542107820606,0.28477801728595636,0.24801720648336947
780,43.898,43.62,0.46,0.7738264997569403,0.6319735980505589,0.8636427398691744,0.7565478730746387,0.2866190045022204,0.2473037191316951
781,43.959,43.68,0.72,0.7742258762704188,0.6289993556527924,0.8639921965096403,0.7559467048233621,0.2884527993922296,0.24660177172882963
782,44.02,43.73,0.58,0.7745922029950443,0.6260285604639207,0.864329280548657,0.7553508180885317,0.2902786396254268,0.24591157995391133
783,44.061,43.79,0.3,0.7749257405890311,0.6230612586001512,0.864653988461138,0.7547603195378632,0.2920957662688744,0.24523334732842844
784,44.143,43.84,0.7,0.775226762673187,0.6200974772694002,0.8649663205250657,0.7541753104194046,0.29390342419986204,0.24456726505764678
785,44.184,43.9,0.59,0.7754955555199246,0.617137225388479,0.8652662808398942,0.7535958865393532,0.29570086252738786,0.24391351188444393
786,44.246,43.95,0.43,0.7757324177363689,0.6141804942273469,0.8655538773455689,0.7530221382447478,0.29748733502255775,0.24327225395597427
787,44.31,44.01,0.62,0.7759376599419993,0.6112272580794824,0.8658291218421175,0.752454150411043,0.2992621005578843,0.24264364470361152
788,44.37,44.06,0.7,0.7761116044412399,0.6082774749574126,0.8660920300097315,0.7518920024346206,0.30102442355543596,0.24202782473659973
789,44.412,44.12,0.69,0.7762545848914298,0.6053310873123591,0.866342621429255,0.7513357682302889,0.3027735744437695,0.2414249217498202
790,44.454,44.17,0.57,0.7763669459666217,0.6023880227768548,0.8665809196029927,0.7507855162338191,0.30450883012356794,0.24083505044606718
791,44.537,44.23,0.83,0.7764490430176786,0.5994481949290946,0.866806951975764,0.7502413094095535,0.3062294744419207,0.2402583124732059
792,44.558,44.28,0.69,0.7765012417291587,0.5965115040776848,0.8670207499561381,0.7497032052631061,0.3079347986752138,0.23969479637654906
793,44.621,44.34,0.41,0.7765239177734943,0.5935778380653486,0.8672223489378046,0.7491712558591476,0.30962410202060947,0.23914457756675941
794,44.663,44.39,0.79,0.7765174564629842,0.5906470730900559,0.8674117883210338,0.7486455078442624,0.3112966920960825,0.23860771830356473
795,44.726,44.45,0.69,0.7764822524001213,0.5877190745419683,0.8675891115341867,0.748126002474847,0.31295188544893265,0.23808426769557753
796,44.789,44.5,0.5,0.7764187091267566,0.5847936978545754,0.8677543660552227,0.74761277565003,0.3145890080726146,0.23757426171653598
797,44.893,44.56,0.69,0.776327238772548,0.5818707893685177,0.8679076034331249,0.747105857949627,0.3162073959316513,0.2370777232383101
798,44.914,44.61,0.84,0.7762082617030692,0.5789501872067422,0.8680488793091353,0.7466052746771804,0.31780639549434814,0.23659466208099178
799,44.956,44.67,0.79,0.7760622061679142,0.5760317221597064,0.8681782534376842,0.7461110459081429,0.31938536427298314,0.23612507508034217
800,45.018,44.72,0.63,0.7758895079491014,0.5731152185793297,0.8682957897068962,0.7456231865432461,0.3209436713711321,0.2356689461728168
801,45.06,44.78,0.89,0.7756906100100709,0.5702004952803734,0.86840155615857,0.7451417063670676,0.32248069803779905,0.23522624649831952
802,45.101,44.83,0.73,0.7754659621455775,0.5672873664478852,0.8684956250075322,0.7446666101117887,0.3239958382280552,0.23479693452075667
803,45.164,44.89,0.43,0.7752160206327967,0.5643756425492745,0.8685780726602957,0.7441978975260937,0.32548849916988437,0.234380956166415
804,45.245,44.94,0.83,0.7749412478839861,0.5614651312495194,0.8686489797329523,0.7437355634491295,0.32695810193688263,0.23397824498015676
805,45.286,45.0,0.69,0.7746421121010597,0.5585556383279411,0.8687084310682461,0.7432795978894285,0.3284040820263719,0.23358872229943048
806,45.327,45.05,0.52,0.7743190869324534,0.5556469685949584,0.8687565157517624,0.7428299861086824,0.32982588994237205,0.23321229744611874
807,45.39,45.11,0.67,0.773972651132635,0.552738926807305,0.868793327127133,0.7423867087103119,0.33122299178276504,0.2328488679362598
808,45.45,45.16,0.75,0.7736032882246086,0.5498313185802745,0.868818962810121,0.7419497417328135,0.33259486982990377,0.23249831970764093
809,45.532,45.22,0.7,0.7732114861657621,0.5469239512955351,0.8688335247014264,0.7415190567478985,0.3339410231438491,0.23216052736519352
810,45.551,45.27,0.62,0.7727977370174145,0.5440166350029889,0.8688371189980487,0.741094620963413,0.33526096815734213,0.2318353544440511
811,45.593,45.33,0.91,0.772362536618412,0.5411091833151338,0.8688298562030473,0.7406763973310234,0.3365542392715767,0.2315226536900674
812,45.674,45.38,0.78,0.771906384263117,0.5382014142923754,0.8688118511335657,0.7402643446586123,0.33782038945181203,0.2312222673575279
813,45.735,45.44,0.51,0.7714297823841286,0.535293151317744,0.8687832229270125,0.73985841772729,0.33905899082184543,0.2309340275237413
814,45.777,45.49,0.93,0.7709332362400623,0.5323842239594604,0.8687440950453182,0.7394585674128765,0.34026963525634873,0.23065775642015698
815,45.819,45.55,0.81,0.7704172536087069,0.5294744688197605,0.8686945952772023,0.7390647408116708,0.3414519349700367,0.2303932667796353
816,45.882,45.6,0.71,0.7698823444858621,0.526563730368409,0.8686348557383953,0.7386768813702914,0.34260552310257675,0.23014036219950348
817,45.985,45.66,0.86,0.7693290207901021,0.5236518617594887,0.8685650128697446,0.7382949290194006,0.343730054298092,0.22989883752003387
818,46.006,45.71,0.96,0.7687577960736675,0.5207387256302223,0.8684852074331062,0.7379188203111637,0.34482520527807936,0.2296684792179252
819,46.046,45.77,0.92,0.7681691852396597,0.5178241948806602,0.8683955845049156,0.7375484885603062,0.3458906754065556,0.22944906581426885
820,46.106,45.82,0.83,0.767563704265704,0.51490815343305,0.8682962934673116,0.7371838639886319,0.3469261872462313,0.22924036829636554
821,46.169,45.88,1.15,0.766941869934221,0.5119904969696785,0.8681874879966733,0.7368248738728453,0.3479314871045207,0.2290421505526294
822,46.232,45.93,1.01,0.7663041995694443,0.5090711336479594,0.8680693260494196,0.7364714426954861,0.34890634556821337,0.22885416981969967
823,46.274,45.99,0.67,0.7656512107813125,0.5061499847915074,0.8679419698449246,0.7361234922987492,0.34985055802564025,0.22867617714079322
824,46.335,46.04,1.1,0.7649834212163712,0.5032269855559401,0.8678055858454079,0.7357809420409359,0.3507639451751691,0.22850791783428742
825,46.396,46.1,1.01,0.764301348315832,0.5003020855681637,0.8676603447326737,0.7354437089552608,0.3516463535188333,0.22834913197152132
826,46.437,46.15,0.87,0.7636055090809254,0.49737524953797785,0.8675064213815824,0.7351117079107391,0.35249765583982834,0.22819955486284818
827,46.478,46.21,1.03,0.762896419845667,0.4944464578410299,0.8673439948301577,0.7347848517749059,0.3533177516625329,0.22805891755101693
828,46.541,46.26,1.12,0.7621745960571287,0.49151570707235204,0.8671732482462431,0.7344630515781453,0.3541065676936729,0.22792694731096028
829,46.601,46.32,1.02,0.7614405520633211,0.4885830105698215,0.8669943688906532,0.7341462166794028,0.35486405824323064,0.22780336815503213
830,46.704,46.37,0.91,0.7606948009087952,0.4856483989069244,0.8668075480767763,0.7338342549330462,0.35559020562368754,0.22768790134270336
831,46.724,46.43,1.22,0.7599378541380567,0.48271192035427923,0.8666129811265856,0.7335270728566137,0.35628502052617883,0.22758026589368147
832,46.765,46.48,1.1,0.7591702216068592,0.47977364130944655,0.8664108673229992,0.7332245757991862,0.3569485423721274,0.2274801791033768
833,46.807,46.54,0.85,0.7583924113014126,0.47683364669461076,0.8662014098585187,0.7329266681100964,0.3575808396388904,0.22738735705961136
834,46.869,46.59,1.32,0.7576049291655164,0.47389204032176163,0.8659848157800686,0.7326332533076745,0.3581820101579299,0.22730151515945707
835,46.929,46.65,1.24,0.7568082789356124,0.47094894522504377,0.865761295929958,0.7323442342477194,0.35875218138399717,0.22722236862510106
836,46.971,46.7,1.13,0.7560029619837253,0.4680045039600231,0.8655310648828828,0.7320595132913824,0.3592915106338017,0.22714963301768593
837,47.074,46.76,1.31,0.7551894771682337,0.4650588788698048,0.8652943408788738,0.7317789924721896,0.3598001852926386,0.22708302474812095
838,47.116,46.81,1.42,0.75436832069238,0.462112252318128,0.8650513457520772,0.731502573661984,0.36027842298749535,0.22702226158387215
839,47.137,46.87,1.38,0.7535399859704252,0.45916482688966465,0.864802304855251,0.7312301587355972,0.36072647172521843,0.22696706315073417
840,47.198,46.92,1.28,0.7527049635013485,0.45621682555779847,0.8645474469798651,0.730961649734069,0.3611446099943698,0.22691715142858884
841,47.261,46.98,1.6,0.7518637407499779,0.45326849182021195,0.8642870042716915,0.7306969490262404,0.3615331468294772,0.22687225124016214
842,47.324,47.03,1.49,0.7510168020354043,0.45032008980264426,0.8640212121417743,0.7304359594685348,0.36189242183644066,0.2268320907317905
843,47.366,47.09,1.25,0.7501646284265105,0.44737190433119584,0.8637503091726709,0.7301785845627348,0.3622228051779155,0.22679640184521827
844,47.468,47.14,1.73,0.7493076976443899,0.4444242409735756,0.8634745370198534,0.7299247286115456,0.3625246975175364,0.22676492077946506
845,47.488,47.2,1.66,0.7484464839713748,0.4414774260497018,0.8631941403081562,0.7296742968717382,0.36279852992188866,0.2267373884418328
846,47.528,47.25,1.52,0.7475814581663315,0.43853180661210284,0.8629093665231462,0.729427195704673,0.36304476371917505,0.22671355088718453
847,47.591,47.31,1.73,0.7467130873858201,0.43558775039667474,0.862620465897278,0.7291833327240418,0.3632638903135827,0.22669315974469734
848,47.651,47.36,1.84,0.7458418351107117,0.43264564574448144,0.8623276912906878,0.72894261694072,0.36345643095445657,0.2266759726313343
849,47.712,47.42,1.8,0.7449681610778698,0.42970590149537274,0.8620312980664938,0.7287049589046333,0.3636229364594832,0.22666175355131868
850,47.814,47.47,1.69,0.7440925212165223,0.4267689468542883,0.8617315439604937,0.7284702708435495,0.36376398689118444,0.2266502732809351
851,47.834,47.53,2.01,0.7432153675889361,0.42383523123122996,0.8614286889451628,0.7282384667987112,0.36388019118613335,0.22664130973801644
852,47.876,47.58,1.97,0.7423371483349983,0.42090522405596026,0.8611229950878841,0.728009462757218,0.36397218673640847,0.2266346483354997
853,47.917,47.64,1.72,0.7414583076202889,0.417979414568511,0.8608147264033531,0.727783176781056,0.36404063892290944,0.22663008231845788
854,47.978,47.69,2.14,0.7405792855872303,0.41505831158658674,0.8605041487001287,0.7275595291326507,0.36408624060024986,0.22662741308402112
855,48.041,47.75,2.06,0.7397005183088818,0.41214244325092997,0.8601915294213192,0.7273384423968006,0.36410971153304766,0.22662645048357688
856,48.081,47.8,1.93,0.738822437744923,0.409232356749722,0.8598771374793983,0.7271198415988437,0.3641117977835299,0.22662701310661215
857,48.184,47.86,2.16,0.7379454716993368,0.406328618023164,0.8595612430851537,0.7269036543189356,0.3640932710504675,0.22662892854553654
858,48.204,47.91,2.28,0.7370700437792876,0.4034318114494244,0.8592441175707566,0.7266898108023515,0.3640549279595757,0.22663203364080098
859,48.265,47.97,2.24,0.7361965733547075,0.4005425395130517,0.8589260332069695,0.7264782440657372,0.36399758930564036,0.22663617470562128
860,48.327,48.02,2.18,0.735325475518144,0.39766142245677677,0.858607263014529,0.7262688899992128,0.36392209924676766,0.22664120772963528
861,48.348,48.08,2.49,0.7344571610444476,0.3947890979174521,0.8582880805697659,0.7260616874642296,0.36382932445131994,0.22664699856085
862,48.428,48.13,2.36,0.7335920363498989,0.39192622054670084,0.857968759804549,0.7258565783870663,0.36372015319827544,0.22665342306525735
863,48.468,48.19,2.03,0.732730503450392,0.3890734616167118,0.857649574800663,0.725653507847841,0.3635954944319184,0.22666036726353936
864,48.549,48.24,2.49,0.7318729599182809,0.3862315086115695,0.8573307995787485,0.7254524241649141,0.363456276771905,0.2266677274443356
865,48.569,48.3,2.34,0.7310197988374563,0.38340106480455344,0.8570127078819495,0.7252532789745635,0.3633034474798665,0.22667541025362015
866,48.63,48.35,2.19,0.7301714087561914,0.38058284882195664,0.8566955729544236,0.7250560273058342,0.36313797138377546,0.2266833327598557
867,48.692,48.41,2.41,0.7293281736372337,0.37777759419411916,0.8563796673148634,0.7248606276505156,0.36296082976136096,0.22669142249471091
868,48.734,48.46,2.51,0.728490472804619,0.3749860488944244,0.8560652625251778,0.7246670420282572,0.3627730191839461,0.22669961746920797
869,48.796,48.52,2.47,0.7276586808867131,0.37220897486690785,0.8557526289544881,0.724475236046847,0.3625755503221844,0.226707866165216
870,48.858,48.57,2.37,0.7268331677550414,0.3694471475429615,0.8554420355386274,0.7242851789576715,0.3623694467152931,0.2267161275022477
871,48.918,48.63,2.64,0.7260142984585315,0.3667013553474762,0.8551337495353596,0.7240968437063511,0.3621557435055342,0.22672437077954266
872,48.959,48.68,2.47,0.7252024331528723,0.36397239919463925,0.8548280362755809,0.7239102069785226,0.3619354861398629,0.2267325755934339
873,49.02,48.74,2.17,0.7243979270247695,0.3612610919734906,0.8545251589108123,0.7237252492407085,0.3617097290408055,0.22674073173002565
874,49.081,48.79,2.6,0.7236011302109517,0.3585682580232586,0.8542253781573297,0.7235419547761971,0.3614795342487481,0.2267488390332581
875,49.142,48.85,2.43,0.722812387711839,0.3558947325984427,0.8539289520373141,0.7233603117158424,0.3612459700378925,0.22675690724851824
876,49.183,48.9,2.22,0.7220320392998222,0.35324136132362877,0.8536361356174309,0.7231803120637069,0.3610101095081751,0.226764955842074
877,49.284,48.96,2.42,0.7212604194221105,0.3506089996381483,0.8533471807452482,0.7230019517174979,0.36077302915548576,0.22677301379672768
878,49.304,49.01,2.42,0.7204978570981119,0.3479985122308173,0.8530623357839165,0.7228252304837975,0.3605358074225793,0.22678111938414974
879,49.364,49.07,2.34,0.719744675811336,0.3454107724650178,0.8527818453455375,0.7226501520881078,0.36029952323312875,0.22678931991438747
880,49.405,49.12,2.29,0.7190011933958383,0.3428466617943506,0.8525059500236732,0.7224767241797182,0.3600652545114194,0.22679767146306343
881,49.446,49.18,2.58,0.7182677219172575,0.3403070691690663,0.8522348861254635,0.7223049583314026,0.35983407669024753,0.22680623857678625
