,Time_Host,Time_Arduino,easingdata,CH1_Oxy,CH1_Deoxy,CH2_Oxy,CH2_Deoxy,CH3_Oxy,CH3_Deoxy
0,0.003,5.27,-2.21,0.04892200420773989,0.7046790789961394,0.7205765878256203,0.8057280676242077,1.0,0.0
1,1.216,0.04,0.0,0.05831299355874716,0.7061079184094257,0.7246710995195715,0.8074013263698385,0.9974851663918699,0.017999622026240576
2,1.237,0.1,0.0,0.06768723515785975,0.7074153655924615,0.7287919587189262,0.8090955819485653,0.9949244404303137,0.0359983596798938
3,1.258,0.15,0.0,0.07703973778034062,0.7085999913573886,0.7329373667480931,0.8108101376110337,0.9923183852178631,0.05398893120219448
4,1.279,0.21,0.0,0.08636551439196279,0.7096604666929409,0.7371055004958903,0.8125442643441225,0.9896676026169962,0.07196405945697396
5,1.3,0.26,0.0,0.09565958802138123,0.7105955647292358,0.7412945142871105,0.8142972007982495,0.9869727332739856,0.08991647873673285
6,1.32,1.05,0.0,0.10491699764195578,0.7114041625858407,0.7455025417830683,0.8160681532660349,0.9842344566039856,0.10783894153679804
7,1.34,1.11,0.0,0.11413280404857366,0.7120852431008752,0.7497276979062343,0.8178562957156015,0.9814534907364919,0.12572422528520907
8,1.402,1.16,0.0,0.12330209571556784,0.7126378964390432,0.7539680807842803,0.8196607698814883,0.9786305924202837,0.14356513901659304
9,1.482,1.22,0.0,0.13241999462236978,0.7130613215766322,0.7582217737090872,0.8214806854158518,0.9757665568869119,0.16135452997889324
10,1.515,1.27,0.0,0.1414816620340683,0.7133548276616577,0.7624868471064774,0.8233151201023244,0.9728622176717926,0.17908529016240252
11,1.552,1.33,-0.01,0.15048230422457023,0.7135178352474669,0.7667613605126515,0.8251631201345905,0.9699184463919143,0.1967503627411238
12,1.614,1.38,0.08,0.1594171781305277,0.7135498773982739,0.7710433645534969,0.8270237004614469,0.9669361524791703,0.21434274841703518
13,1.675,1.44,0.14,0.16828159692454425,0.7134506006653072,0.7753309029230915,0.8288958451998533,0.9639162828683012,0.23185551165838486
14,1.717,1.49,0.09,0.1770709354963339,0.7132197659325595,0.7796220143578088,0.8307785081172683,0.9608598216384654,0.24928178682366953
15,1.839,1.55,0.09,0.1857806358306004,0.7128572491315135,0.7839147346024914,0.8326706131844053,0.957767789607554,0.26661478416345036
16,1.859,1.6,0.25,0.1944062122706668,0.7123630418245394,0.7882070983652583,0.8345710551993414,0.9546412438784836,0.2838477956926286
17,1.9,1.66,0.14,0.20294325665739066,0.7117372516568834,0.7924971412576745,0.8364787004836554,0.9514812773368535,0.30097420092626104
18,1.942,1.71,0.15,0.21138744333349777,0.7109801026773164,0.7967829017171935,0.8383923876509908,0.9482890180994528,0.317987472472459
19,2.003,1.77,0.3,0.21973453400406318,0.710091935527683,0.8010624229089512,0.840310928448152,0.9450656289132361,0.3348811814763672
20,2.064,1.82,0.18,0.2279803824444882,0.7090732075017528,0.805333754604158,0.8422331086685758,0.9418123065045184,0.3516490029096468
21,2.126,1.88,0.18,0.23612093904795964,0.7079244924739124,0.8095949550325012,0.8441576891377123,0.9385302808782663,0.3682847207003009
22,2.209,1.93,0.27,0.244152255205012,0.7066464806983731,0.8138440927061343,0.8460834067695536,0.9352208145674865,0.38478223269807343
23,2.23,1.99,0.27,0.2520704875084367,0.705239978479672,0.8180792482129793,0.8480089756932314,0.9318852018328224,0.4011355554710292
24,2.27,2.04,0.22,0.25987190177737574,0.7037059077153655,0.8222985159772146,0.8499330884482855,0.9285247678125653,0.41733882892928614
25,2.331,2.1,0.21,0.2675528768949631,0.7020453053119422,0.8265000059849326,0.8518544172468961,0.9251408676233912,0.43338632077220574
26,2.391,2.15,0.33,0.2751099084544176,0.7002593224751105,0.8306818454730767,0.8537716153010402,0.9217348854122643,0.4492724307556423
27,2.431,2.21,0.24,0.28253961220909046,0.6983492238756773,0.8348421805799219,0.8556833182121805,0.9183082333600572,0.46499169477612823
28,2.494,2.26,0.22,0.2898387273225658,0.6963163866922955,0.8389791779554994,0.85758814542072,0.914862350637545,0.48053878876914263
29,2.599,2.32,0.38,0.2970041194154952,0.6941622995324201,0.8430910263305067,0.8594847017121079,0.9113987023145335,0.49590853241887317
30,2.62,2.37,0.25,0.30403278340647,0.6918885612328981,0.8471759380423595,0.8613715787761457,0.907918778223014,0.5110958926771263
31,2.66,2.43,0.26,0.31092184614488655,0.689496879541671,0.8512321505171653,0.863247356815699,0.9044240917753599,0.5260959870892736
32,2.722,2.48,0.37,0.3176685688343859,0.6869890696821462,0.855257927706505,0.8651106062006897,0.9009161787387187,0.540904086925345
33,2.785,2.54,0.31,0.3242703492460409,0.6843670528018726,0.8592515614780083,0.866959889162908,0.8973965959668956,0.5555156201145814
34,2.827,2.59,0.27,0.3307247237210066,0.6816328543072646,0.8632113729587848,0.8687937615268565,0.8938669200911525,0.56992617398195
35,2.869,2.65,0.25,0.33702936896284497,0.6787886020862528,0.8671357138308525,0.8706107744715134,0.8903287461714979,0.5841314977852905
36,2.93,2.7,0.35,0.3431821036202706,0.6758365246208529,0.8710229675777742,0.8724094763175598,0.8867836863101841,0.5981275050519105
37,2.991,2.76,0.25,0.34918088966163313,0.6727789489917101,0.8748715506818128,0.8741884143342428,0.8832333682292424,0.6119102757135901
38,3.053,2.81,0.21,0.35502383354297246,0.6696182987767207,0.8786799137709939,0.8759461365596632,0.8796794338139708,0.6254760580390942
39,3.113,2.87,0.36,0.36070918717192696,0.666357091845887,0.8824465427155236,0.8776811936279353,0.8761235376243898,0.638821270363436
40,3.155,2.92,0.23,0.36623534867021273,0.6629979380545781,0.8861699596730772,0.8793921405963175,0.8725673453767913,0.651942502613255
41,3.217,2.98,0.19,0.3716008629378165,0.6595435368373413,0.8898487240825764,0.8810775387651285,0.86901253239762,0.6648365176278414
42,3.319,3.03,0.34,0.37680442202242975,0.6559966747043176,0.8934814336061675,0.8827359574830203,0.8654607820520405,0.6775002522755226
43,3.34,3.09,0.24,0.3818448652980166,0.6523602226421453,0.8970667250192345,0.8843659759300831,0.8619137841496645,0.6899308183653856
44,3.38,3.14,0.12,0.3867211794567671,0.6486371334209756,0.900603275048372,0.8859661848712864,0.8583732333300219,0.7021255033545925
45,3.442,3.2,0.21,0.3914324983190577,0.6448304388089278,0.9040898011573028,0.8875351883729918,0.8548408274304679,0.7140817708518921
46,3.504,3.25,0.2,0.39597810246645665,0.640943246695053,0.9075250622807792,0.8890716054756496,0.8513182658393139,0.7257972609182987
47,3.525,3.31,0.09,0.4003574187031841,0.6369787381217586,0.9109078595065622,0.8905740718162413,0.8478072478370231,0.7372697901663147
48,3.586,3.36,0.02,0.4045700193516331,0.6329401642277621,0.914237036705609,0.8920412411945708,0.8443094709283363,0.7484973516595276
49,3.67,3.42,0.06,0.4086156213876169,0.6288308431029667,0.9175114811106123,0.8934717870780924,0.8408266291682192,0.7594781146148524
50,3.691,3.47,-0.06,0.4124940854210367,0.6246541565570777,0.9207301238430685,0.8948644040405729,0.837360411484527,0.7702104239101428
51,3.752,3.53,-0.18,0.4162054145276661,0.6204135468042414,0.9238919403890823,0.8962178091304945,0.8339125000002198,0.780692799400343
52,3.814,3.58,-0.09,0.41974975293768574,0.6161125130665178,0.9269959510241338,0.897530743165745,0.8304845683578738,0.7909239350457715
53,3.855,3.64,-0.21,0.4231273845865024,0.6117546080995343,0.9300412211870455,0.8988019719517641,0.8270782800491119,0.8009026978565329
54,3.918,3.69,-0.34,0.4263387315332586,0.6073434346442215,0.9330268618034065,0.9000302874209432,0.8236952867514389,0.8106281266574041
55,3.98,3.75,-0.26,0.4293843522522842,0.6028826418090686,0.9359520295587225,0.9012145086916876,0.8203372266748262,0.8200994306778854
56,4.041,3.8,-0.29,0.4322649398026007,0.5983759213878578,0.938815927121569,0.9023534830461679,0.8170057229202514,0.8293159879724029
57,4.103,3.86,-0.39,0.43498131988043004,0.5938270041183389,0.941617803317051,0.9034460868263587,0.813702381852255,0.8382773436759345
58,4.163,3.91,-0.41,0.4375344487594251,0.5892396558878212,0.9443569532508527,0.9044912262485697,0.8104287914874575,0.8469832081005971
59,4.205,3.97,-0.34,0.439925411123105,0.5846176738921726,0.9470327183841585,0.9054878381372398,0.8071865199008913,0.8554334546789527
60,4.247,4.02,-0.44,0.4421554177938322,0.5799648827551316,0.9496444865597486,0.9064348905792953,0.8039771136519317,0.86362811775999
61,4.308,4.08,-0.5,0.4442258033625717,0.575285130615175,0.9521916919796197,0.9073313835008356,0.8008020962315362,0.8715673902639128
62,4.411,4.13,-0.37,0.44613802372353417,0.5705822851874348,0.9546738151345211,0.9081763491683541,0.797662966532436,0.8792516212020055
63,4.432,4.19,-0.49,0.4478936535176651,0.5658602298082909,0.9570903826858514,0.908968852617057,0.7945611973438826,0.886681313067945
64,4.495,4.24,-0.56,0.4494943834888154,0.5611228594702268,0.95944096730043,0.9097079920091091,0.7914982338724981,0.893857119106997
65,4.537,4.3,-0.48,0.4509420177563359,0.5563740768543659,0.9617251874387494,0.9103928989248029,0.7884754922907478,0.9007798404695692
66,4.578,4.35,-0.49,0.452238471007783,0.5516177883678423,0.9639427070974098,0.9110227385897554,0.7854943583145159,0.907450423255611
67,4.64,4.41,-0.58,0.4533857656153526,0.5468579001928775,0.9660932355065224,0.9115967100413027,0.7825561858112174,0.9138699554563371
68,4.703,4.46,-0.6,0.45438602867953387,0.5420983143541868,0.968176526782914,0.9121140462373176,0.7796622954398471,0.9200396637997328
69,4.787,4.52,-0.49,0.455241489003401,0.537342924811081,0.9701923795400079,0.9125740141106965,0.7768139733243369,0.9259609105062309
70,4.808,4.57,-0.59,0.4559544740009891,0.5325956135803372,0.9721406364553267,0.9129759145727298,0.7740124697615848,0.9316351899608818
71,4.85,4.63,-0.65,0.4565274065432776,0.5278602468956072,0.9740211837966365,0.9133190824684968,0.7712589979654811,0.9370641253082662
72,4.913,4.68,-0.53,0.456962801745356,0.5231406714088688,0.9758339509078261,0.9136028864873624,0.7685547328482474,0.9422494649763201
73,4.975,4.74,-0.65,0.45726326369843,0.5184407104391786,0.97757890965567,0.9138267290315866,0.7659008098404035,0.947193079135163
74,5.037,4.79,-0.71,0.45743148215043067,0.5137641602737272,0.9792560738386856,0.9139900460459968,0.7632983237506737,0.9518969560969348
75,5.078,4.85,-0.6,0.45747022913909585,0.5091147865259472,0.9808654985593483,0.9140923068116238,0.7607483276671145,0.9563631986625661
76,5.162,4.9,-0.63,0.45738235558149354,0.504496320555184,0.9824072795609575,0.9141330137061513,0.7582518319007246,0.9605940204213259
77,5.181,4.96,-0.71,0.4571707878240169,0.499912455952203,0.9838815525305025,0.914111701933986,0.7558098029727537,0.964591742008906
78,5.242,5.01,-0.73,0.4568385241568743,0.49536684509463513,0.9852884923688721,0.9140279392287227,0.7534231626469021,0.9683587873297044
79,5.303,5.07,-0.66,0.45638863129711105,0.49086309577626064,0.9866283124297898,0.9138813255307381,0.7510927870076058,0.9718976797488419
80,5.345,5.12,-0.76,0.4558242408442311,0.48640476791381826,0.9879012637288958,0.9136714926425682,0.7488195055855699,0.9752110382593161
81,5.408,5.18,-0.82,0.45514854571251134,0.48199537033479173,0.9891076341244339,0.9133981038646269,0.7466041005316766,0.9783015736295724
82,5.47,5.23,-0.73,0.4543647965440582,0.4776383576494277,0.9902477474710311,0.9130608536137523,0.744447305840331,0.981172084536645
83,5.511,5.29,-0.84,0.45347629810665857,0.4733371272100302,0.9913219627480879,0.9126594670269628,0.7423498066232549,0.9838254536898853
84,5.573,5.34,-0.89,0.4524864056804619,0.46909501616036053,0.992330673164337,0.9121936995527125,0.7403122384346634,0.9862646439501676
85,5.635,5.4,-0.77,0.45139852143746456,0.46491529857776287,0.9932743052401583,0.9116633365318138,0.7383351866486798,0.988492694449328
86,5.676,5.45,-0.83,0.45021609081762226,0.46080118271046744,0.9941533178692356,0.9110681927701015,0.7364191858897583,0.9905127167144716
87,5.737,5.51,-0.9,0.4489425989052087,0.45675580831238044,0.9949682013611095,0.9104081121048405,0.7345647195168237,0.992327890801654
88,5.798,5.56,-0.89,0.4475815668088336,0.45278224407756135,0.9957194764661398,0.9096829669668172,0.7327722191618018,0.9939414614433012
89,5.879,5.62,-0.83,0.4461365480484355,0.44888348517643,0.996407693384376,0.9088926579399765,0.7310420643231993,0.9953567342135861
90,5.9,5.67,-0.91,0.44461112495256566,0.4450624508955302,0.9970334307598601,0.9080371133203441,0.7293745820153607,0.9965770717158252
91,5.961,5.73,-0.97,0.44300890506926927,0.4413219823824559,0.9975972946618971,0.9071162886758499,0.7277700464739774,0.997605889795829
92,6.024,5.78,-0.84,0.44133351759382616,0.4376648404973564,0.9980999175548222,0.906130166408569,0.7262286789183788,0.9984466537849994
93,6.086,5.84,-0.98,0.4395886098165941,0.4340937037722493,0.9985419572577915,0.9050787553207988,0.7247506473711005,0.9991028747768192
94,6.127,5.89,-1.02,0.4377778435941942,0.43061116647917236,0.9989240958961328,0.9039620901862884,0.723336066535179,0.999578105940229
95,6.168,5.95,-0.92,0.43590489184724734,0.42721973680801806,0.9992470388457793,0.9027802313278414,0.721984997729564,0.9998759388732422
96,6.252,6.0,-0.99,0.4339734350877887,0.4239218351547106,0.9995115136722882,0.9015332642024281,0.7206974488829787,1.0
97,6.292,6.06,-1.08,0.4319871579793742,0.42071979252022623,0.9997182690659178,0.9002212989948599,0.719473374586474,0.9999539470143258
98,6.333,6.11,-1.08,0.42994974593274865,0.41761584902080906,0.9998680737741851,0.8988444702210153,0.7183126762048491,0.9997414653726937
99,6.415,6.17,-1.01,0.4278648817398645,0.4146121525095644,0.9999617155333167,0.8974029363414979,0.7172152020470303,0.9993662648393752
100,6.476,6.22,-1.09,0.4257362422489888,0.4117107573094072,1.0,0.8958968793864813,0.7161807475954002,0.9988320760863884
101,6.517,6.28,-1.14,0.42356749508354186,0.40891362305715756,0.9999837496848325,0.8943265045923584,0.7152090557939464,0.9981426473507513
102,6.621,6.33,-1.01,0.4213622954071568,0.4062226136584239,0.9999138028888359,0.8926920400507021,0.7142998173950116,0.9973017411514129
103,6.642,6.39,-1.14,0.4191242827373429,0.40363949635277113,0.9997910126443746,0.8909937363699307,0.7134526713643509,0.9963131310681057
104,6.683,6.44,-1.17,0.41685707781006787,0.40116594088851554,0.9996162456618267,0.8892318663499593,0.7126672053441444,0.995180598584228
105,6.724,6.5,-1.05,0.4145642794975282,0.39880351880633097,0.9993903812833551,0.8874067246699981,0.7119429561735467,0.9939079299957398
106,6.785,6.55,-1.13,0.41224946178134797,0.3965537028307006,0.9991143104451334,0.88551862758957,0.7112794104662963,0.992498913387922
107,6.846,6.61,-1.19,0.40991617078339754,0.394417866368113,0.9987889346493739,0.8835679126627237,0.7106760052448472,0.9909573356817296
108,6.908,6.66,-1.17,0.4075679218563509,0.3923972831108012,0.9984151649474614,0.8815549384653681,0.710132128630428,0.9892869797513357
109,6.989,6.72,-1.11,0.40520819673604414,0.3904931267447261,0.9979939209354687,0.8794800843355939,0.7096471205883751,0.9874916216143332
110,7.01,6.77,-1.2,0.40284044075762987,0.3887064707604048,0.9975261297632771,0.8773437501267926,0.7092202737280164,0.9855750276959385
111,7.071,6.83,-1.26,0.40046806013738323,0.3870382883651311,0.9970127251584595,0.8751463559733357,0.7088508341562801,0.9835409521684173
112,7.112,6.88,-1.14,0.39809441932181566,0.38548945249510097,0.9964546464659985,0.8728883420685613,0.7085380023841316,0.9813931343668336
113,7.173,6.94,-1.26,0.3957228384056069,0.38406073592591666,0.9958528377048406,0.8705701684547658,0.7082809342848554,0.979135296282094
114,7.215,6.99,-1.28,0.3933565906197537,0.3827528114798542,0.9952082466422388,0.8681923148248475,0.7080787421030963,0.9767711401321425
115,7.278,7.05,-1.15,0.3909988998912432,0.3815662523281846,0.9945218238867956,0.8657552803351668,0.7079304955134628,0.9743043460120543
116,7.361,7.1,-1.23,0.3886529384754919,0.3805015323867305,0.993794522001075,0.8632595834291319,0.7078352227273977,0.9717385696236539
117,7.381,7.16,-1.29,0.38632182466273557,0.37955902680273457,0.9930272946346316,0.860705761670941,0.707791911646933,0.9690774400851692
118,7.443,7.21,-1.25,0.3840086205594996,0.37873901253105063,0.9922210956782648,0.858094371588852,0.7077995110638957,0.9663245578213064
119,7.504,7.27,-1.19,0.3817163299462306,0.37804166899762864,0.9913768784402806,0.8554259885272795,0.7078569319030735,0.9634834925340151
120,7.565,7.32,-1.27,0.37944789621208996,0.37746707884825975,0.9904955948455111,0.8527012065069526,0.7079630485077865,0.9605577812541006
121,7.606,7.38,-1.32,0.37720620036773417,0.37701522878060206,0.9895781946577894,0.8499206380923011,0.7081166999662296,0.9575509264737522
122,7.73,7.43,-1.19,0.37499405913670286,0.37668601045757666,0.9886256247264995,0.8470849142652082,0.7083166914768927,0.9544663943599505
123,7.751,7.49,-1.3,0.3728142231259067,0.3764792215002483,0.987638828257773,0.8441946843042223,0.7085617957513045,0.9513076130486207
124,7.772,7.54,-1.32,0.37066937507562986,0.3763945665582944,0.9866187441108514,0.8412506156682826,0.7088507544522726,0.9480779710193045
125,7.833,7.6,-1.19,0.3685621281893742,0.37643165845615245,0.985566306120074,0.8382533938839964,0.7091822796657054,0.944780815550053
126,7.894,7.65,-1.28,0.36649502454377536,0.3765900194129296,0.9844824424428839,0.8352037224354943,0.7095550554040329,0.9414194512521461
127,7.935,7.71,-1.34,0.36447053357872644,0.37686908233414307,0.9833680749341743,0.8321023226559007,0.7099677391391712,0.9379971386841558
128,7.995,7.76,-1.29,0.36249105066773335,0.37726819217336227,0.9822241185472332,0.8289499336194409,0.7104189633629231,0.934517093044778
129,8.097,7.82,-1.21,0.3605588957684354,0.37778660736180314,0.9810514807614781,0.8257473120332144,0.710907337172644,0.9309824829437551
130,8.118,7.87,-1.29,0.35867631215314144,0.3784235013039087,0.9798510610371131,0.8224952321276372,0.7114314478799257,0.9273964292501249
131,8.158,7.93,-1.32,0.35684546521909316,0.37917796393694747,0.978623750296755,0.8191944855445843,0.7119898626399649,0.923762004016961
132,8.22,7.98,-1.18,0.3550684413780329,0.3800490033526796,0.9773704304339688,0.8158458812222751,0.7125811300992425,0.920082229481679
133,8.262,8.04,-1.28,0.3533472470245941,0.38103554747913426,0.976091973848592,0.8124502452759693,0.7132037820591189,0.9163600771409081
134,8.324,8.09,-1.3,0.35168380758301604,0.382136445820521,0.9747892430086745,0.8090084208735354,0.7138563351529051,0.9125984668988609
135,8.407,8.15,-1.15,0.3500799666316508,0.38335047125329447,0.9734630900388216,0.8055212681049668,0.7145372925339384,0.9088002662880854
136,8.448,8.2,-1.24,0.3485374851047145,0.38467632187639833,0.9721143563346758,0.8019896638449507,0.7152451455721524,0.9049682897614247
137,8.489,8.26,-1.29,0.3470580405707132,0.3861126229137182,0.9707438722032438,0.7984145016076357,0.7159783755566125,0.9011052980539611
138,8.55,8.31,-1.23,0.34564322658694885,0.38765792866679916,0.9693524565287213,0.7947966913927925,0.7167354554014624,0.8972139976136578
139,8.59,8.37,-1.18,0.3442945521294974,0.3893107245158972,0.9679409164634546,0.7911371595226242,0.7175148513527152,0.8932970400993604
140,8.673,8.42,-1.25,0.34301344109800913,0.39106942896745855,0.9665100471436439,0.7874368484685137,0.7183150246932657,0.8893570219447847
141,8.713,8.48,-1.27,0.34180123189456324,0.39293239574616207,0.9650606314293662,0.7836967166670544,0.7191344334434469,0.8853964839870928
142,8.816,8.53,-1.13,0.3406591770756711,0.3948979159297157,0.9635934396684537,0.7799177383247626,0.7199715340544086,0.8814179111586208
143,8.837,8.59,-1.22,0.33958844307644304,0.39696422012462096,0.9621092294837496,0.7761009032109206,0.7208247830915726,0.8774237322402862
144,8.877,8.64,-1.22,0.3385901100058823,0.39912948068113663,0.9606087455832496,0.7722472164380534,0.7216926389053852,0.8734163196751707
145,8.938,8.7,-1.07,0.33766517151221215,0.40139181394570933,0.959092719592618,0.7683576982296225,0.7225735632865714,0.8693979894407581
146,8.98,8.75,-1.13,0.336814534717103,0.4037492825491793,0.9575618699095251,0.764433383674621,0.723466023103095,0.8653710009782881
147,9.042,8.81,-1.15,0.3360390202176767,0.40619989772909815,0.956016901579242,0.760475322468855,0.7243684919160529,0.8613375571776773
148,9.083,8.86,-1.06,0.3353393621551986,0.408741621684515,0.9544585061909093,0.7564845786427922,0.725279451571775,0.8572998044164413
149,9.186,8.92,-0.99,0.33471620834943194,0.41137236996158516,0.952887361793905,0.752462230275951,0.7261973937674642,0.8532598326510449
150,9.207,8.97,-1.04,0.3341701204976846,0.4140900138683411,0.9513041328337416,0.7484093691978747,0.7271208215877665,0.8492196755590953
151,9.249,9.03,-1.05,0.33370157443755316,0.41689238291696507,0.94970947010691,0.7443271006758208,0.7280482510097406,0.8451813107307903
152,9.333,9.08,-0.92,0.3333109604723374,0.4197772672918831,0.9481040107340533,0.7402165430893847,0.7289782123737889,0.8411466599080183
153,9.375,9.14,-1.01,0.3329985837581205,0.42274242034192644,0.9464883781508575,0.7360788275923343,0.7299092518182125,0.8371175892695005
154,9.437,9.19,-1.0,0.3327646647515321,0.425785561094683,0.9448631821160455,0.7319150977619954,0.7308399326751197,0.8330959097603732
155,9.5,9.25,-0.85,0.33260933971716855,0.4289043767910344,0.9432290187358534,0.7277265092365862,0.7317688368254777,0.8290833774646259
156,9.542,9.3,-0.9,0.33253266129358233,0.4320965254377295,0.9415864705043547,0.7235142293409785,0.7326945660111625,0.8250816940188309
157,9.625,9.36,-0.92,0.3325345991167039,0.43535963837567054,0.9399361063590007,0.7192794367014155,0.7336157431019381,0.8210925070656172
158,9.646,9.41,-0.82,0.3326150404995379,0.4386913228613895,0.9382784817507599,0.7150233208497535,0.7345310133153965,0.8171174107453573
159,9.708,9.47,-0.74,0.3327737911669956,0.4420891646589803,0.9366141387282835,0.7107470818178285,0.7354390453880125,0.8131579462245537
160,9.77,9.52,-0.79,0.3330105760447368,0.4455507306395346,0.9349436060355527,0.7064519297225591,0.7363385326955906,0.8092156022594386
161,9.81,9.58,-0.79,0.33332504010086467,0.4490735713849418,0.9332673992224952,0.7021390843424371,0.7372281943215181,0.805291815793326
162,9.871,9.63,-0.64,0.3337167492393228,0.45265522379273365,0.93158602076805,0.6978097746861012,0.738106776071413,0.8013879725862757
163,9.933,9.69,-0.73,0.3341851912439335,0.45629321367844844,0.9298999602152123,0.6934652385537146,0.7389730514329342,0.7975054078756327
164,9.995,9.74,-0.72,0.3347297767721129,0.45998505837179626,0.9282096943176175,0.6891067220919096,0.7398258224796844,0.7936454070660417
165,10.015,9.8,-0.59,0.33534984039729626,0.46372826930278094,0.926515687197244,0.6847354793431265,0.7406639207182802,0.7898092064475671
166,10.075,9.85,-0.67,0.33604464169904275,0.46752035457385466,0.924818390512803,0.680352771790273,0.7414862078778057,0.7859979939405906
167,10.137,9.91,-0.75,0.33681336639971216,0.47135882151411956,0.9231182436383953,0.6759598678976951,0.7422915766410034,0.7822129098661823
168,10.198,9.96,-0.69,0.3376551275465559,0.4752411792115345,0.9214156738520025,0.6715580426495057,0.7430789513166663,0.7784550477406751
169,10.299,10.02,-0.62,0.33856896673808057,0.4791649410190245,0.9197110965334164,0.6671485770863154,0.743847288452788,0.7747254550931939
170,10.32,10.07,-0.68,0.33955385539356586,0.4831276270303592,0.9180049153712132,0.6627327578413974,0.744595577390057,0.771025134304949
171,10.36,10.13,-0.68,0.3406086960645838,0.4871267665216981,0.9162975225783898,0.658311876677268,0.7453228407553015,0.767355043469137
172,10.423,10.18,-0.53,0.34173232378733387,0.49115990035478324,0.9145892991162619,0.6538872300236217,0.746028134894557,0.7637160972703073
173,10.462,10.24,-0.63,0.34292350747465544,0.49522458333784014,0.912880614926234,0.6494601185174739,0.7467105502455362,0.7601091678820242
174,10.524,10.29,-0.62,0.3441809513466391,0.4993183865403649,0.9111718291690687,0.645031846546269,0.7473692116494017,0.7565350858816318
175,10.585,10.35,-0.49,0.3455032963987716,0.5034388995581535,0.9094632904712671,0.6406037217946552,0.7480032786018819,0.7529946411809096
176,10.669,10.4,-0.57,0.3468891219065355,0.5075837327251566,0.9077553371781606,0.6361770547955715,0.7486119454439136,0.749488583971378
177,10.689,10.46,-0.59,0.34833694696537604,0.5117505192689714,0.906048297613281,0.6317531584862511,0.7491944414921382,0.7460176256829983
178,10.751,10.51,-0.52,0.3498452320649292,0.515936917407028,0.9043424903435726,0.6273333477696864,0.7497500311097129,0.7425824399549957
179,10.792,10.57,-0.48,0.35141238069642283,0.5201406123807377,0.9026382244499952,0.6229189390820341,0.7502780137180409,0.7391836636175169
180,10.853,10.62,-0.55,0.3530367409921621,0.5243593184250966,0.9009357998030708,0.6185112499663714,0.750777723750127,0.735821897682835
181,10.914,10.68,-0.58,0.35471660739594335,0.5285907806714651,0.8992355073429011,0.6141115986531626,0.7512485305463864,0.7324977083448151
182,11.017,10.73,-0.45,0.3564502223631691,0.5328327769814821,0.8975376293631581,0.6097213036477487,0.7516898381938465,0.7292116279853362
183,11.038,10.79,-0.56,0.3582357780894093,0.5370831197102655,0.8958424397985638,0.6053416833251037,0.7521010853097897,0.7259641561863673
184,11.077,10.84,-0.56,0.36007141826608313,0.5413396573972771,0.8941502045153756,0.600974055532036,0.7524817447709629,0.7227557607463954
185,11.139,10.9,-0.42,0.3619552398617945,0.5456002763834976,0.8924611816043784,0.5966197371969802,0.7528313233895534,0.7195868786999247
186,11.2,10.95,-0.53,0.36388529492771154,0.5498629023538152,0.8907756216758569,0.5922800439475071,0.7531493615372167,0.7164579173387796
187,11.264,11.01,-0.55,0.36585959242532223,0.5541255018037456,0.8890937681560143,0.5879562897356527,0.7534354327185444,0.7133692552339567
188,11.306,11.06,-0.48,0.36787610007489907,0.5583860834297618,0.8874158575842978,0.583649786471135,0.7536891430954578,0.7103212432567886
189,11.408,11.12,-0.44,0.3699327462230664,0.5626426994426594,0.885742119911112,0.5793618436624791,0.7539101309641112,0.707314205598193
190,11.428,11.17,-0.52,0.3720274217279237,0.5668934468035233,0.8840727787954139,0.5750937680660247,0.7540980661859783,0.7043484407848049
191,11.47,11.23,-0.54,0.37415798186019733,0.5711364683820292,0.8824080519016823,0.5708468633427535,0.7542526495748775,0.7014242226907944
192,11.531,11.28,-0.41,0.3763222482189304,0.5753699540369703,0.8807481511957667,0.5666224297228231,0.754373612241805,0.6985418015441791
193,11.574,11.34,-0.54,0.3785180106603285,0.5795921416190132,0.8790932832391625,0.562421763677613,0.7544607148995441,0.6957014049264197
194,11.614,11.39,-0.57,0.3807430292384799,0.5838013178957935,0.877443649481308,0.5582461575989808,0.754513747129093,0.692903238764105
195,11.675,11.45,-0.44,0.3829950361566834,0.5879958193996118,0.8757994465495151,0.5540968994853602,0.7545325266100231,0.690147488311535
196,11.757,11.5,-0.56,0.3852717377280924,0.5921740331981534,0.8741608665361427,0.5499752726342864,0.754516898316934,0.6874343191230301
197,11.778,11.56,-0.59,0.38757081634434865,0.5963343975888122,0.8725280972826192,0.5458825553408925,0.7544667336842243,0.6847638780137979
198,11.84,11.61,-0.51,0.3898899324508604,0.6004754027173221,0.8709013226599138,0.5418200206018912,0.7543819297414325,0.6821362940082158
199,11.922,11.67,-0.49,0.3922267265274138,0.6045955911215041,0.8692807228450573,0.5377889358245099,0.7542624082214433,0.6795516792743987
200,11.943,11.72,-0.57,0.3945788210728423,0.6086935582010247,0.8676664745933291,0.5337905625398146,0.7541081146438846,0.6770101300439506
201,12.006,11.78,-0.61,0.3969438225924672,0.6127679526141995,0.8660587515057074,0.5298261561198485,0.753919017376083,0.674511727515825
202,12.068,11.83,-0.49,0.39931932358703387,0.6168174766029989,0.8644577242911822,0.5258969654980068,0.75369510667402,0.6720565387432194
203,12.128,11.89,-0.61,0.40170290454196544,0.6208408862474983,0.862863561023556,0.5220042328920389,0.7534363937057779,0.6696446175024436
204,12.169,11.94,-0.7,0.4040921359158735,0.6248369916510573,0.8612764273923905,0.5181491935290384,0.7531429095600033,0.6672760051427294
205,12.23,12.0,-0.6,0.4064845801273477,0.6288046570575755,0.8596964869477747,0.514333075371769,0.7528147042419218,0.6649507314159889
206,12.292,12.05,-0.74,0.4088777935391369,0.6327428009021916,0.8581239013386006,0.5105570988456746,0.752451845659432,0.662668815285594
207,12.333,12.11,-0.77,0.41126932843892383,0.6366503957967967,0.8565588305440528,0.5068224765659283,0.7520544186017504,0.660430265713335
208,12.394,12.16,-0.72,0.41365673501595907,0.6405264684517271,0.8550014330980292,0.5031304130638752,0.75162252371297,0.6582350824238248
209,12.497,12.22,-0.72,0.4160375633328384,0.644370099535013,0.8534518663062256,0.499482104512222,0.7511562764628,0.6560832566457103
210,12.518,12.27,-0.8,0.41840936529165945,0.6481804234706168,0.8519102864556248,0.4958787384483354,0.7506558061166374,0.6539747718291337
211,12.559,12.33,-0.84,0.4207696965936529,0.6519566281771879,0.8503768490161006,0.4923214934950298,0.7501212547070598,0.6519096043389186
212,12.621,12.38,-0.72,0.42311611869125365,0.6556979547489685,0.8488517088338285,0.4888115390782563,0.7495527760087864,0.6498877241229755
213,12.68,12.44,-0.85,0.425446200731535,0.6594036970805182,0.8473350203161885,0.48535003514109243,0.7489505345191145,0.6479090953554124
214,12.741,12.49,-0.88,0.42775752148992496,0.6630732014369253,0.8458269376078567,0.4819381318534201,0.748314704445788,0.6459736770538599
215,12.803,12.55,-0.77,0.43004767129309235,0.6667058659711894,0.844327614757776,0.4785769693166751,0.7476454687042029,0.6440814236705402
216,12.864,12.6,-0.89,0.432314253929873,0.6703011401904717,0.8428372058766943,0.4752676772630663,0.7469430179258185,0.6422322856566417
217,12.885,12.66,-0.93,0.43455488854908925,0.6738585243729314,0.841355865284971,0.4720113747486794,0.7462075494795852,0.6404262099996013
218,12.947,12.71,-0.87,0.4367672115430864,0.6773775689369058,0.8398837476503485,0.46880916983989845,0.7454392665081512,0.6386631407329361
219,12.988,12.77,-0.87,0.43894887841578983,0.6808578737642348,0.838421008115406,0.46566215929259985,0.7446383769805408,0.636943019418311
220,13.049,12.82,-0.93,0.44109756563404035,0.6842990874795946,0.8369678024144028,0.462571428223592,0.7438050927629246,0.6352657855995755
221,13.111,12.88,-0.98,0.4432109724608893,0.6877009066877913,0.8355242869792158,0.45953804977380497,0.742939628709027,0.63363137722854
222,13.153,12.93,-0.87,0.44528682276949594,0.6910630751710308,0.8340906190340617,0.45656308476276347,0.7420422017716757,0.6320397310622856
223,13.257,12.99,-0.99,0.44732286683632466,0.6943853830481906,0.8326669566787264,0.4536475813338798,0.7411130301369461,0.6304907830318192
224,13.277,13.04,-1.02,0.44931688311237544,0.697667665898105,0.8312534589600493,0.4507925745901016,0.7401523323822787,0.6289844685819204
225,13.318,13.1,-0.89,0.45126667997115333,0.7009098038488896,0.8298502859314131,0.44799908621947054,0.7391603266598807,0.6275207229820612
226,13.38,13.15,-1.03,0.4531700974320327,0.704111720635343,0.8284575987000038,0.4452681241101662,0.7381372299066491,0.6260994816083075
227,13.462,13.21,-1.05,0.4550250088576444,0.7072733826264611,0.8270755594615911,0.4426006819546312,0.7370832570817877,0.6247206801961431
228,13.504,13.26,-0.98,0.4568293226238789,0.7103947978250904,0.8257043315225921,0.43999773884240034,0.7359986204332232,0.6233842550641872
229,13.605,13.32,-0.99,0.4585809837610867,0.7134760148417301,0.8243440793091786,0.4374602588412821,0.7348835287938551,0.6220901433088124
230,13.624,13.37,-1.05,0.46027797556502625,0.7165171218444761,0.8229949683632054,0.4349891905665842,0.7337381869086057,0.6208382829697285
231,13.644,13.43,-1.08,0.46191832117605097,0.7195182454870969,0.8216571653247589,0.43258546673812315,0.7325627947931617,0.6196286131666369
232,13.706,13.48,-0.98,0.46350008512500923,0.7224795498172063,0.8203308379011662,0.430250003724807,0.7313575471252636,0.6184610742070988
233,13.768,13.54,-1.08,0.46502137484440353,0.7254012351664112,0.8190161548223733,0.42798370107660555,0.7301226326693433,0.6173356076657881
234,13.83,13.59,-1.12,0.46648034214342554,0.7282835370241926,0.8177132857826583,0.4257874410437524,0.7288582337352371,0.616252156435342
235,13.871,13.65,-1.01,0.4678751846455278,0.7311267248971872,0.8164224013686815,0.4236620880830787,0.7275645256716313,0.6152106647490723
236,13.973,13.7,-1.16,0.46920414718723835,0.7339311011554401,0.8151436729738953,0.42160848835145304,0.7262416763948288,0.6142110781758484
237,13.994,13.76,-1.17,0.4704655231769739,0.7366969998671195,0.8138772726993699,0.4196274691863644,0.7248898459533429,0.613253343587512
238,14.035,13.81,-1.1,0.47165765591262243,0.7394247856231172,0.8126233732410963,0.4177198385737619,0.7235091861287275,0.6123374090992291
239,14.098,13.87,-1.1,0.47277893985668173,0.7421148523529074,0.8113821477638484,0.4158863846033222,0.7220998400729459,0.6114632239832349
240,14.159,13.92,-1.14,0.4738278218677331,0.7447676221330152,0.81015376976168,0.4141278749113796,0.7206619419824667,0.6106307385564694
241,14.202,13.98,-1.17,0.47480280238700134,0.7473835439894523,0.8089384129051399,0.4124450561118123,0.7191956168092015,0.6098399040426237
242,14.264,14.03,-1.06,0.47570243657875017,0.7499630926954836,0.8077362508752807,0.4108386532152338,0.7177009800083607,0.6090906724091159
243,14.325,14.09,-1.16,0.47652533542331704,0.752506767566045,0.8065474571845739,0.4093093690368474,0.7161781373232712,0.6083829961795125
244,14.406,14.14,-1.18,0.4772701667616375,0.7550150912500956,0.8053722049848756,0.4078578835933337,0.7146271846071636,0.6077168282219094
245,14.427,14.2,-1.06,0.47793565629012386,0.7574886085221676,0.8042106668626053,0.4064848534891603,0.7130482076818898,0.6070921215138164
246,14.508,14.25,-1.2,0.47852058850480667,0.7599278850743888,0.803063014621337,0.40519091129273604,0.7114412822334997,0.6065088288841067
247,14.529,14.31,-1.21,0.47902380759372465,0.762333506310233,0.8019294190520255,0.4039766649028578,0.7098064737445614,0.6059669027326214
248,14.59,14.36,-1.12,0.47944421827661504,0.7647060761412595,0.8008100496911355,0.40284269690593805,0.708143837463057,0.6054662947280535
249,14.652,14.42,-1.15,0.4797807865910237,0.7670462157880878,0.7997050745669467,0.40178956392453746,0.7064534184076137,0.6050069554847716
250,14.732,14.47,-1.21,0.4800325406239863,0.7693545625868661,0.7986146599343179,0.40081779595777994,0.7047352514087654,0.6045888342192811
251,14.754,14.53,-1.24,0.48019857118842024,0.7716317688025254,0.7975389699981617,0.3999278957142809,0.7029893611858662,0.6042118783870445
252,14.816,14.58,-1.13,0.48027803244336775,0.7738785004501414,0.796478166625885,0.39912033793826107,0.7012157624592399,0.60387603330039
253,14.858,14.64,-1.22,0.48027014245727573,0.7760954361256882,0.7954324090490631,0.39839556872952214,0.6994144600970822,0.6035812417282481
254,14.918,14.69,-1.22,0.4801741837135442,0.7782832658474282,0.794401853554646,0.3977540048579649,0.6975854492965577,0.6033274434784779
255,14.999,14.75,-1.13,0.47998950355759995,0.7804426899091372,0.7933866531660145,0.39719603307334417,0.6957287157984682,0.603114574963577
256,15.063,14.8,-1.26,0.479715514584881,0.7825744177463035,0.7923869573142439,0.3967220094109775,0.6938442361348442,0.6029425687505817
257,15.083,14.86,-1.27,0.4793516949693129,0.7846791668163342,0.7914029114999802,0.3963322584941232,0.6919319779087777,0.6028113530959803
258,15.144,14.91,-1.17,0.47889758873208094,0.7867576614936932,0.7904346569463974,0.39602707283374516,0.6899919001057772,0.6027208514664865
259,15.205,14.97,-1.19,0.4783528059506808,0.7888106319807937,0.7894823302437382,0.3958067121263798,0.6880239534358659,0.6026709820465498
260,15.246,15.02,-1.24,0.4777170229083308,0.7908388132353952,0.7885460629859687,0.395671402550843,0.6860280807055669,0.6026616572335348
261,15.308,15.08,-1.26,0.4769899821838417,0.7928429439152344,0.7876259814000683,0.39562133606456223,0.6840042172188828,0.6026927831215202
262,15.37,15.13,-1.16,0.4761714926820622,0.7948237653405881,0.7867222059684805,0.39565666970036123,0.6819522912063696,0.6027642589746887
263,15.431,15.19,-1.26,0.4752614296050895,0.7967820204753895,0.7858348510452821,0.3957775248645376,0.6798722242813849,0.6028759766912735
264,15.493,15.24,-1.28,0.47425973436447827,0.7987184529274474,0.7849640244666442,0.39598398663709006,0.6777639319225519,0.6030278202590535
265,15.535,15.3,-1.15,0.4731664144346752,0.8006338059682837,0.7841098271561573,0.3962761030749937,0.6756273239814302,0.6032196652034054
266,15.575,15.35,-1.29,0.47198154314790663,0.8025288215730768,0.7832723527255944,0.39665388451947764,0.67346230521436,0.6034513780289411
267,15.636,15.41,-1.28,0.4707052594307696,0.8044042394811827,0.7824516870716847,0.3971173029083143,0.6712687758374002,0.6037228156557847
268,15.698,15.46,-1.19,0.46933776748278155,0.8062607962776902,0.7816479079694729,0.3976662910941878,0.6690466321032549,0.604033824851565
269,15.761,15.52,-1.22,0.46787933639715856,0.8080992244964648,0.7808610846628381,0.39830074217026495,0.6667957668990547,0.6043842416602349
270,15.823,15.57,-1.26,0.4663302997240992,0.8099202517451335,0.7800912774527464,0.3990205088041534,0.6645160703638265,0.60477389082886
271,15.864,15.63,-1.28,0.46469105497685426,0.8117245998524877,0.7793385372838038,0.39982540258148735,0.6622074305244846,0.6052025852335448
272,15.904,15.68,-1.17,0.46296206308093857,0.8135129840387716,0.7786029053296989,0.4007151933604253,0.6598697339491815,0.6056701253056598
273,15.966,15.74,-1.27,0.4611438477669888,0.8152861121092685,0.7778844125781825,0.4016896086383452,0.657502866416861,0.6061762984595482
274,16.027,15.79,-1.31,0.45923699490791087,0.8170446836715329,0.7771830794162764,0.4027483329320159,0.6551067136018304,0.6067208785228897
275,16.069,15.85,-1.19,0.4572421518010562,0.8187893893765851,0.776498915216453,0.4038910071725367,0.6526811617721605,0.6073036251709172
276,16.17,15.9,-1.32,0.4551600263962998,0.8205209101843497,0.7758319179245753,0.4051172281163453,0.6502260985007161,0.6079242833656745
277,16.191,15.96,-1.33,0.45299138647102555,0.8222399166535848,0.7751820736504302,0.40642654777361364,0.6477414133875955,0.608582582801509
278,16.232,16.01,-1.24,0.45073705875309944,0.8239470682565392,0.774549356261707,0.4078184728553808,0.6452269987927229,0.6092782373579833
279,16.295,16.07,-1.28,0.4483979279929306,0.8256430127185995,0.7739337269822739,0.4092924642408132,0.6426827505772874,0.6100109445613929
280,16.356,16.12,-1.32,0.4459749359857015,0.8273283853832275,0.7733351339955891,0.4108479364660328,0.6401085688526763,0.6107803850560679
281,16.398,16.18,-1.34,0.4434690805448296,0.8290038086025326,0.7727535120540493,0.4124842572360065,0.6375043587355309,0.6115862220866248
282,16.46,16.23,-1.24,0.44088141442776047,0.8306698911538175,0.7721887820950833,0.41420074696102,0.6348700311075434,0.6124281009923109
283,16.544,16.29,-1.33,0.43821304421532037,0.8323272276823857,0.7716408508648035,0.41599667831925863,0.6322055033786066,0.6133056487145645
284,16.564,16.34,-1.36,0.43546512914594687,0.8339763981708395,0.7711096105500408,0.4178712758470096,0.6295107002519055,0.6142184733189139
285,16.645,16.4,-1.24,0.4326388799061939,0.835617967435072,0.7705949384195803,0.4198237155580192,0.6267855544895233,0.61516616353233
286,16.686,16.45,-1.37,0.42973555737900626,0.8372524846471205,0.770096696475399,0.4218531245935546,0.6240300076771415,0.6161482882971345
287,16.748,16.51,-1.38,0.4267564713513809,0.8388804828850067,0.7696147311147198,0.4239585809047352,0.6212440109863983,0.6171643963425613
288,16.789,16.56,-1.29,0.42370297918310373,0.8405024787096584,0.7691488728036848,0.42613911296870693,0.6184275259334585,0.6182140157750632
289,16.851,16.62,-1.32,0.4205764844382846,0.8421189717689863,0.7686989357634432,0.4283936995402482,0.6155805251323191,0.619296653688457
290,16.912,16.67,-1.38,0.41737843548138776,0.8437304444291872,0.7682647176694205,0.43072126944040473,0.6127029930413536,0.6204117957949992
291,16.953,16.73,-1.4,0.414110324039388,0.8453373614333768,0.7678459993644992,0.4331207013837699,0.6097949267015949,0.6215589060784724
292,17.016,16.78,-1.29,0.41077368373166107,0.8469401695876414,0.7674425445868123,0.43559082384602044,0.6068563364652566,0.6227374264703434
293,17.077,16.84,-1.38,0.40737008856925694,0.8485392974745557,0.7670540997128406,0.438130414973289,0.6038872467129883,0.6239467765500276
294,17.119,16.89,-1.4,0.4039011514252267,0.8501351551941425,0.7666803935164865,0.44073820253492124,0.6008876965583347,0.625186353270298
295,17.18,16.95,-1.28,0.40036852247765026,0.8517281341322271,0.7663211369447503,0.44341286392116,0.5978577405378659,0.6264555307088656
296,17.303,17.0,-1.4,0.3967738876270265,0.8533186067561017,0.7659760229106197,0.4461530261872949,0.5947974492854684,0.6277536598471466
297,17.325,17.06,-1.39,0.393118966889709,0.8549069264373903,0.7656447261037647,0.44895726614580295,0.5917069101893115,0.6290800683772224
298,17.364,17.11,-1.3,0.3894055127690714,0.8564934273019789,0.7653269028196232,0.45182411050798715,0.5885862280300366,0.630434060537985
299,17.406,17.17,-1.32,0.3856353086060812,0.8580784241068715,0.7650221908074504,0.4547520360766081,0.5854355255987481,0.6318149169814488
300,17.447,17.22,-1.36,0.3818101669109503,0.8596622121438329,0.7647302091378667,0.4577394699909743,0.5822549442934233,0.6332218946702007
301,17.509,17.28,-1.39,0.37793192767750394,0.8612450671697105,0.7644505580904322,0.46078479002592976,0.5790446446924187,0.634654226806936
302,17.55,17.33,-1.29,0.37400245668193155,0.8628272453633269,0.7641828190617656,0.4638863249461001,0.5758048071038341,0.6361111227969855
303,17.651,17.39,-1.35,0.37002364376767316,0.8644089833087752,0.7639265544947859,0.467042354916618,0.5725356320895437,0.6375917682447081
304,17.672,17.44,-1.38,0.36599740111824597,0.865990498004859,0.7636813078296933,0.47025111197140934,0.5692373409627473,0.6390953249845901
305,17.714,17.5,-1.25,0.361925661519815,0.8675719869003482,0.7634466034773196,0.4735107805400138,0.5659101762579295,0.6406209311478471
306,17.776,17.55,-1.39,0.3578103766153195,0.8691536279546551,0.7632219468154852,0.47681949803384044,0.5625544021721951,0.6421677012652679
307,17.859,17.61,-1.38,0.35365351515199384,0.8707355797234437,0.7630068242090141,0.4801753554926877,0.559170304977021,0.6437347264069441
308,17.88,17.66,-1.29,0.34945706122412323,0.8723179814686037,0.7628007030540733,0.48357639829228727,0.5557581933995486,0.6453210743594716
309,17.942,17.72,-1.32,0.34522301251286874,0.8739009532919537,0.7626030318474878,0.4870206269135728,0.552318398972594,0.6469257898411414
310,18.003,17.77,-1.36,0.340953378524945,0.8754845962919896,0.7624132402816696,0.49050599777432236,0.5488512763526111,0.6485478947556064
311,18.067,17.83,-1.39,0.33665017883184734,0.8770689927430062,0.7622307393657363,0.4940304241237906,0.5453572036049021,0.6501863884844638
312,18.108,17.88,-1.29,0.33231544131126783,0.8786542062959287,0.7620549215733717,0.49759177700090035,0.5418365824554743,0.6518402482191293
313,18.171,17.94,-1.39,0.32795120039238124,0.8802402822001425,0.7618851610179641,0.5011878862564682,0.5382898385090105,0.6535084293323298
314,18.233,17.99,-1.42,0.32355949530672035,0.8818272475455564,0.7617208136555674,0.5048165416398321,0.5347174214324866,0.6551898657894908
315,18.273,18.05,-1.3,0.31914236834638116,0.8834151115240872,0.7615612175162206,0.5084754939501273,0.5311198051040168,0.6568834706002559
316,18.376,18.1,-1.43,0.3147018631313473,0.8850038657097022,0.7614056929641766,0.5121624562523374,0.5274974877265759,0.6585881363103245
317,18.417,18.16,-1.44,0.31024002288779917,0.8865934843560879,0.7612535429876,0.5158751051581318,0.5238509919062937,0.6603027355337395
318,18.438,18.21,-1.37,0.3057588887393365,0.8881839247109423,0.7611040535182824,0.5196110821714013,0.5201808646950692,0.6620261215256987
319,18.5,18.27,-1.4,0.30126049801308435,0.8897751273458138,0.7609564937818976,0.5233679950983243,0.5164876775972899,0.663757128795908
320,18.581,18.32,-1.46,0.29674688256264364,0.8913670165003722,0.7608101166792747,0.5271434195217218,0.512772026540483,0.6654945737624253
321,18.602,18.38,-1.49,0.29222006710977405,0.8929595004399812,0.7606641591990985,0.5309349003393941,0.5090345318097783,0.6672372554458768
322,18.664,18.43,-1.38,0.2876820676066504,0.8945524718254285,0.7605178428624,0.5347399533660465,0.5052758379461211,0.6689839562038356
323,18.745,18.49,-1.47,0.28313488962056443,0.8961458080936128,0.7603703741991662,0.5385560669982915,0.5014966136082321,0.6707334425050737
324,18.766,18.54,-1.51,0.27858052674297623,0.8977393718479112,0.760220945257375,0.5423807039420848,0.4976975513983387,0.6724844657433349
325,18.85,18.6,-1.39,0.2740209590248364,0.8993330112569207,0.760068734144715,0.546211303001844,0.4938793676517589,0.6742357630902142
326,18.89,18.65,-1.51,0.2694581514401441,0.9009265604602247,0.7599129056032081,0.5500452809303978,0.4900428021904973,0.6759860583866636
327,18.953,18.71,-1.53,0.2648940523797589,0.902519839979801,0.7597526116169273,0.5538800343388082,0.48618861804109065,0.6777340630725851
328,19.016,18.76,-1.46,0.2603305921775042,0.9041126571356553,0.7595869920529481,0.5577129416649925,0.4823176011170177,0.6794784771539113
329,19.118,18.82,-1.47,0.2557696816705989,0.9057048064642482,0.7594151753356406,0.5615413651999742,0.47843055986605143,0.68121799020652
330,19.139,18.87,-1.54,0.25121321079639963,0.907296070138295,0.7592362791543533,0.5653626531704687,0.4745283248829958,0.6829512824162798
331,19.16,18.93,-1.58,0.2466630472273142,0.9088862183865595,0.7590494112044895,0.5691741418764139,0.4706117484883187,0.6846770256544479
332,19.221,18.98,-1.48,0.2421210350456318,0.9104750099123401,0.7588536699619461,0.572973157881935,0.466681704273287,0.6863938845875666
333,19.261,19.04,-1.6,0.23758899345999174,0.9120621923093399,0.7586481454908718,0.5767570202580834,0.46273908661227886,0.6881005178209133
334,19.323,19.09,-1.64,0.23306871556519956,0.9136475024736236,0.7584319202846795,0.5805230428755309,0.4587848101429939,0.689795579074494
335,19.384,19.15,-1.54,0.22856196714706006,0.9152306670103835,0.7582040701402059,0.5842685367452717,0.4548198092153085,0.691477718390498
336,19.486,19.2,-1.66,0.22407048553386097,0.9168114026342741,0.7579636650648318,0.5879908124052622,0.4508450373095635,0.6931455833710677
337,19.507,19.26,-1.69,0.21959597849611043,0.9183894165620998,0.7577097702163116,0.5916871823508034,0.4468614664250913,0.6947978204451558
338,19.548,19.31,-1.65,0.21514012319609305,0.9199644068966842,0.7574414468749607,0.5953549635063418,0.4428700864398185,0.6964330761631713
339,19.59,19.37,-1.64,0.21070456518879782,0.921536063000777,0.757157753447779,0.5989914797362251,0.43887190444179514,0.6980499985180312
340,19.651,19.42,-1.72,0.20629091747574266,0.9231040658599147,0.7568577465039857,0.6025940643918042,0.43486794403353146,0.6996472382911596
341,19.733,19.48,-1.76,0.20190075961313345,0.9246680884332624,0.7565404818413536,0.6061600628921313,0.4308592446100539,0.7012234504218907
342,19.754,19.53,-1.66,0.19753563687571568,0.9262277959915901,0.7562050155826239,0.6096868353353707,0.42684686061165283,0.702777295398628
343,19.874,19.59,-1.79,0.19319705947768046,0.9277828464416201,0.7558504053012159,0.6131717591378575,0.42283186075234364,0.7043074406700169
344,19.895,19.64,-1.83,0.18888650185197983,0.9293328906360483,0.7554757111753593,0.6166122316975806,0.41881532722509246,0.7058125620742994
345,19.937,19.7,-1.74,0.18460540198932535,0.9308775726686395,0.7550799971696547,0.6200056730787149,0.414798354884876,0.7072913452849321
346,19.98,19.75,-1.87,0.18035516083801148,0.9324165301539129,0.7546623322429413,0.6233495287137042,0.41078205041066795,0.7087424872704732
347,20.042,19.81,-1.91,0.17613714176554113,0.9339493944910534,0.754221791581202,0.6266412721192572,0.40676753144745326,0.7101646977666353
348,20.104,19.86,-1.88,0.17195267008284196,0.9354757911117992,0.7537574578541028,0.6298784076224826,0.402755925729367,0.7115567007583219
349,20.206,19.92,-1.86,0.16780303263168553,0.936995339712175,0.7532684224936181,0.6330584730932344,0.39874837018503795,0.7129172359693533
350,20.227,19.97,-1.96,0.16368947743572357,0.9385076544680617,0.7527537869930488,0.6361790426785984,0.394746010026184,0.7142450603574958
351,20.269,20.03,-2.0,0.15961321341528906,0.9400123442347935,0.7522126642245549,0.6392377295353181,0.390749997820493,0.7155389496123076
352,20.331,20.08,-1.9,0.1555754101658476,0.9415090127311773,0.7516441797731441,0.642232188555833,0.3867614925498287,0.7167976996531882
353,20.372,20.14,-2.04,0.1515771977998214,0.9429972587085097,0.7510474732848949,0.6451601190834506,0.38278165865481667,0.7180201281249047
354,20.433,20.19,-2.05,0.14761966685137076,0.9444766761053189,0.7504216998270424,0.6480192676120052,0.3788116650668664,0.7192050758877491
355,20.515,20.25,-1.97,0.14370386824353099,0.9459468541887504,0.7497660312573898,0.6508074304652073,0.374852684228678,0.7203514084993781
356,20.535,20.3,-2.08,0.13983081331689662,0.9474073776837034,0.7490796576003301,0.6535224564507376,0.3709058911042862,0.7214580176852642
357,20.576,20.36,-2.13,0.13600147391885883,0.9488578268910028,0.7483617884266043,0.656162249483981,0.36697246217969026,0.7225238227945681
358,20.637,20.41,-2.12,0.13221678255222583,0.9502977777960441,0.7476116542337554,0.6587247711761044,0.36305357445512043,0.7235477722381073
359,20.699,20.47,-2.07,0.1284776325819082,0.9517268021694901,0.7468285078240996,0.6612080433809824,0.3591504044299803,0.7245288449049724
360,20.74,20.52,-2.16,0.12478487849816466,0.9531444676617277,0.7460116256768695,0.6636101506952582,0.3552641270814814,0.7254660515542053
361,20.801,20.58,-2.2,0.12113933623460577,0.9545503378929828,0.7451603093110117,0.6659292429056208,0.3513959148379631,0.7263584361778331
362,20.863,20.63,-2.09,0.11754178353882223,0.9559439725411738,0.7442738866349274,0.6681635373771676,0.34754693654790564,0.7272050773314093
363,20.947,20.69,-2.19,0.11399296039326112,0.9573249274297095,0.7433517132793098,0.6703113213764877,0.34371835644567283,0.7280050894280811
364,20.968,20.74,-2.24,0.11049356948377671,0.9586927546174766,0.7423931739091336,0.6723709543228589,0.33991133311504534,0.7287576239921251
365,21.03,20.8,-2.11,0.10704427671308599,0.9600470024932144,0.7413976835107671,0.6743408699607552,0.3361270184516321,0.7294618708678422
366,21.091,20.85,-2.19,0.10364571175618559,0.9613872158762888,0.7403646886501101,0.6762195784467671,0.33236655662528924,0.7301170593797209
367,21.132,20.91,-2.28,0.10029846865467194,0.9627129361255131,0.7392936686975881,0.6780056683440351,0.3286310830437196,0.7307224594398337
368,21.193,20.96,-2.21,0.09700310644684754,0.9640237012571912,0.7381841370157668,0.6796978085174031,0.3249217233184821,0.7312773825985269
369,21.254,21.02,-2.18,0.09376014983050691,0.9653190460730524,0.7370356421053325,0.6812947499226722,0.3212395922346865,0.7317811830346149
370,21.316,21.07,-2.27,0.09057008985529619,0.9665985022983161,0.7358477687051899,0.682795327283561,0.3175857927256883,0.7322332584814675
371,21.378,21.13,-2.31,0.08743338464144546,0.967861598729877,0.7346201388424612,0.6841984606502928,0.3139614148541277,0.7326330510856219
372,21.42,21.18,-2.21,0.08435046012155203,0.9691078613944895,0.7333524128282289,0.6855031568341375,0.31036753480071044,0.7329800481948009
373,21.482,21.24,-2.3,0.0813217108020515,0.9703368137167719,0.7320442901949862,0.6867085107126619,0.30680521386218285,0.7332737830724848
374,21.524,21.29,-2.39,0.07834750054102216,0.9715479766968091,0.7306955105719458,0.6878137064009018,0.30327549745998555,0.7335138355364905
375,21.584,21.35,-2.25,0.07542816333897065,0.9727408690971256,0.7293058544945643,0.6888180182841491,0.2997794141611026,0.7336998325193049
376,21.687,21.4,-2.32,0.07256400413927407,0.9739150076388141,0.7278751441448973,0.6897208119085438,0.29631797471265187,0.7338314485482482
377,21.708,21.46,-2.43,0.06975529963501931,0.9750699072066353,0.7264032440196891,0.6905215447261767,0.29289217109179017,0.7339084061438588
378,21.79,21.51,-2.39,0.06700229907907555,0.9762050810629604,0.7248900615233893,0.6912197666919708,0.2895029755725383,0.7339304761352285
379,21.811,21.57,-2.37,0.0643052250944051,0.9773200410704694,0.7233355474836117,0.6918151207101781,0.2861513398111707,0.733897477891341
380,21.873,21.62,-2.45,0.061664274481825675,0.9784142979235482,0.721739696586903,0.6923073429288515,0.28283819395181836,0.7338092794678037
381,21.913,21.68,-2.5,0.059079619022579286,0.9794873613883772,0.7201025477330394,0.6926962628811821,0.2795644457539174,0.7336657976687158
382,21.974,21.73,-2.4,0.0565514062731206,0.9805387405518344,0.7184241843064153,0.6929818034731211,0.27633097974312737,0.7334669980237606
383,22.057,21.79,-2.5,0.054079760349617464,0.9815679440794606,0.7167047343634527,0.6931639808172467,0.2731386563873469,0.7332128946809445
384,22.079,21.84,-2.59,0.05166478269976963,0.9825744804828553,0.7149443707353472,0.6932429039133773,0.26998831129945766,0.7329035502157373
385,22.119,21.9,-2.45,0.04930655285967691,0.9835578583969706,0.7131433110458428,0.6932187741770103,0.2668807544684279,0.7325390753576969
386,22.18,21.95,-2.51,0.04700512919362876,0.984517586867849,0.7113018176441169,0.6930918848172649,0.2638167695204048,0.7321196286360016
387,22.241,22.01,-2.6,0.04476054961480832,0.985453175651447,0.7094201974532428,0.6928626200666302,0.26079711301142144,0.7316454159456551
388,22.303,22.06,-2.57,0.042572832285000736,0.9863641355243158,0.7074988017350762,0.6925314542654945,0.25782251375335025,0.7311166900364908
389,22.345,22.12,-2.56,0.04044197629156959,0.9872499786070252,0.7055380257728227,0.6920989508050835,0.2548936721747688,0.7305337499274385
390,22.446,22.17,-2.68,0.038367962300248394,0.9881102187012726,0.7035383084730045,0.6915657609330443,0.25201125971841976,0.7298969402488642
391,22.466,22.23,-2.78,0.036350753182599595,0.9889443716416486,0.7015001318889849,0.6909326224264705,0.24917591827693408,0.7292066505161245
392,22.507,22.28,-2.71,0.03439029461727141,0.9897519556630545,0.6994240206685735,0.6902003581377296,0.2463882596684422,0.7284633143377476
393,22.568,22.34,-2.87,0.03248651566447987,0.990532491784727,0.697310541428545,0.68936987441894,0.243648865153605,0.7276674085618717
394,22.63,22.39,-2.94,0.03063932931342994,0.9912855042116698,0.6951603020591337,0.6884421594313179,0.2409582849954515,0.7268194523647081
395,22.671,22.45,-2.89,0.028848633002618647,0.9920105207540316,0.6929739509617096,0.6874182813458793,0.2383170380632228,0.7259200062848801
396,22.732,22.5,-2.93,0.0271143091131491,0.9927070732646025,0.6907521762229212,0.6862993864421255,0.2357256114812326,0.7249696712075234
397,22.792,22.56,-3.02,0.025436225435305587,0.9933746980942066,0.6884957047286316,0.6850866971113957,0.23318446032354642,0.723969087302029
398,22.853,22.61,-3.08,0.023814235608700687,0.9940129365644337,0.6862053012209864,0.6837815097715537,0.2306940073551122,0.7229189329172699
399,22.914,22.67,-3.0,0.02224817953638843,0.9946213354568357,0.683881767301968,0.6823851926995999,0.22825464281982666,0.7218199234380683
400,22.975,22.72,-3.11,0.020737883773490933,0.9951994475174303,0.6815259403868308,0.6808991837886514,0.2258667242758718,0.720672810106552
401,23.058,22.78,-3.15,0.019283161891018703,0.9957468319751132,0.6791386926108293,0.6793249882355716,0.22353057647848987,0.7194783788119504
402,23.079,22.83,-3.06,0.017883814815643845,0.9962630550724366,0.6767209296926415,0.677664176165372,0.22124649131021537,0.7182374488522545
403,23.162,22.89,-3.17,0.01653963114629426,0.9967476906071125,0.674273589757867,0.6759183801983591,0.21901472775845088,0.7169508716710449
404,23.182,22.94,-3.21,0.01525038744858162,0.997200320482529,0.6717976421259614,0.6740892929658262,0.2168355119401655,0.7156195295726551
405,23.224,23.0,-3.16,0.014015848528228524,0.997620535265525,0.6692940860639425,0.6721786645799139,0.21470903717338835,0.7142443344186981
406,23.285,23.05,-3.14,0.0128357676847993,0.9980079347496529,0.6667639495101689,0.6701883000630882,0.2126354640950686,0.7128262263088568
407,23.347,23.11,-3.23,0.011709886947119979,0.9983621285221889,0.6642082877714416,0.6681200567425126,0.21061492082477065,0.7113661722487108
408,23.389,23.16,-3.26,0.01063793729174892,0.9986827365332321,0.6616281821965954,0.6659758416144518,0.20864750317357975,0.7098651648072489
409,23.451,23.22,-3.17,0.009619638845826154,0.9989693896653632,0.6590247388296637,0.6637576086836942,0.20673327489753093,0.7083242207665763
410,23.513,23.27,-3.3,0.008654701075670202,0.9992217303023865,0.6563990870456277,0.6614673562828298,0.20487226799480396,0.7067443797661905
411,23.575,23.33,-3.33,0.0077428229625159835,0.9994394128957438,0.6537523781716789,0.6591071243760486,0.20306448304583877,0.7051267029440913
412,23.637,23.38,-3.24,0.006883693166732786,0.9996221045272702,0.6510857840968223,0.6566789918519942,0.2013098895954162,0.7034722715768816
413,23.679,23.44,-3.32,0.006076990181748824,0.9997694854670699,0.6484004958725146,0.6541850738100948,0.1996084265756465,0.7017821857209211
414,23.719,23.49,-3.36,0.005322382478788446,0.9998812497253808,0.6456977223069134,0.6516275188446691,0.19796000276867914,0.7000575628565026
415,23.781,23.55,-3.33,0.004619528643390838,0.9999571055973905,0.6429786885551843,0.6490085063309806,0.1963644973078482,0.6982995365369196
416,23.822,23.6,-3.27,0.003968077504556271,0.999996776200046,0.6402446347082059,0.6463302437172807,0.19482176021586858,0.6965092550441919
417,23.883,23.66,-3.35,0.003367668257202986,1.0,0.6374968143818918,0.6435949638267285,0.19333161297861082,0.6946878800531298
418,23.943,23.71,-3.39,0.0028179305783700166,0.999966531331984,0.6347364933092177,0.6408049221729619,0.19189384915289945,0.6928365853053294
419,23.986,23.77,-3.27,0.0023184847373455744,0.9998961409070747,0.6319649479369004,0.637962394292963,0.19050823500673517,0.6909565552946143
420,24.048,23.82,-3.38,0.0018689416997626964,0.9997886163104348,0.6291834640285596,0.6350696731007383,0.1891745101903028,0.6890489839653459
421,24.13,23.88,-3.38,0.0014689032256393517,0.9996437624881881,0.6263933352761032,0.6321290662651824,0.18789238843607298,0.6871150734249591
422,24.172,23.93,-3.28,0.0011179619612897795,0.9994614022231694,0.6235958619209697,0.6291428936153715,0.18666155828625164,0.6851560326720189
423,24.253,23.99,-3.35,0.000815701524997562,0.9992413765993543,0.6207923493867648,0.6261134845764125,0.18548168384578614,0.6831730763410182
424,24.274,24.04,-3.39,0.0005616965863242243,0.9989835454548293,0.6179841069247395,0.6230431756388457,0.184352405559099,0.6811674234650902
425,24.336,24.1,-3.38,0.00035551293891948333,0.9986877878231927,0.6151724462734932,0.6199343078644428,0.18327334100869122,0.679140296257724
426,24.398,24.15,-3.32,0.0001967075667435098,0.9983540023633001,0.6123586803342417,0.6167892244310669,0.18224408573372933,0.6770929189145222
427,24.459,24.21,-3.38,8.482870365936454e-05,0.9979821077772406,0.6095441218629489,0.6136102682190734,0.18126421406667093,0.6750265164359683
428,24.521,24.26,-3.41,1.941588630191192e-05,0.9975720432164665,0.6067300821805468,0.6103997794415869,0.1803332799859136,0.672942313472128
429,24.562,24.32,-3.28,0.0,0.9971237686760593,0.6039178699023507,0.6071600933208706,0.17945081798239962,0.6708415331901374
430,24.623,24.37,-3.38,2.61033174453101e-05,0.9966372653771601,0.6011087896876905,0.6038935378128917,0.17861634393808049,0.668725396165268
431,24.686,24.43,-3.37,9.72395297734349e-05,0.9961125361375901,0.5983041410107013,0.6006024313820361,0.177829356014124,0.6665951192962891
432,24.727,24.48,-3.27,0.00021291376974351428,0.9955496057306521,0.5955052169531593,0.597289080827787,0.1770893355467393,0.6644519147457926
433,24.788,24.54,-3.3,0.0003726226267730483,0.9949485212320548,0.592713303020195,0.5939557791650275,0.17639574794849766,0.6622969889060859
434,24.849,24.59,-3.34,0.0005758541536715789,0.9943093523548302,0.5899296759796482,0.5906048035594985,0.1757480436130367,0.6601315413912097
435,24.891,24.65,-3.33,0.0008220878649970053,0.9936321917720848,0.5871556027257805,0.5872384133198202,0.17514565882106425,0.6579567640555817
436,24.93,24.7,-3.22,0.0011107947270913511,0.9929171554273718,0.5843923391679992,0.5838588479473582,0.17458801664561518,0.6557738400397055
437,25.012,24.76,-3.3,0.001441437140029808,0.9921643828323911,0.5816411291452295,0.5804683252450668,0.17407452785454505,0.6535839428433294
438,25.032,24.81,-3.32,0.0018134689118466192,0.9913740373516634,0.5789032033665259,0.5770690394863035,0.17360459180825452,0.6513882354264005
439,25.093,24.87,-3.19,0.00222633522547249,0.990546306473798,0.5761797783784627,0.5736631596444951,0.1731775973506753,0.6491878693381096
440,25.154,24.92,-3.31,0.0026794725989107695,0.9896814020689432,0.5734720555597999,0.5702528276844189,0.17279292369159438,0.6469839838742739
441,25.215,24.98,-3.3,0.003172308839290664,0.9887795606319792,0.570781220143901,0.5668401569157504,0.1724499412784257,0.6447777052632507
442,25.256,25.03,-3.19,0.0037042629915052627,0.987841043510983,0.5681084402693469,0.563427230409416,0.17214801265556381,0.6425701458805392
443,25.361,25.09,-3.18,0.004274745282181991,0.9868661371204654,0.5654548660591607,0.5600160994771837,0.1718864933094695,0.6403624034921772
444,25.382,25.14,-3.22,0.004883157059739777,0.9858551531388794,0.5628216287290201,0.5566087822148286,0.17166473249766454,0.638155560527014
445,25.423,25.2,-3.21,0.0055288907312620265,0.9848084286898966,0.5602098397247761,0.5532072621091282,0.17148207405987,0.6359506833778851
446,25.486,25.25,-3.08,0.006211329696949414,0.9837263265069448,0.5576205898895673,0.5498134867088388,0.17133785720962663,0.6337488217316667
447,25.528,25.31,-3.15,0.006929848283042553,0.9826092350804242,0.5550549486607981,0.5464293663596915,0.17123141730483915,0.6315510079281356
448,25.612,25.36,-3.16,0.007683811674229457,0.9814575687869334,0.552513963297243,0.5430567730033234,0.17116208659578067,0.6293582563475248
449,25.653,25.42,-3.02,0.008472575846658512,0.9802717679997689,0.5499986581365114,0.5396975390399722,0.1711291949492059,0.6271715628266445
450,25.716,25.47,-3.11,0.009295487502793444,0.9790522991799118,0.5475100338830927,0.5363534562546692,0.17113207054734747,0.6249919041033934
451,25.799,25.53,-3.12,0.010151884009464816,0.977799654946654,0.5450490669272005,0.5330262748065846,0.17117004056069163,0.6228202372894662
452,25.819,25.58,-3.05,0.011041093340550276,0.9765143541269838,0.5426167086946242,0.5297177022810774,0.17124243179354265,0.6206574993710261
453,25.861,25.64,-3.02,0.011962434025768059,0.9751969417828086,0.5402138850277872,0.5264294028039295,0.1713485713014866,0.6185046067370921
454,25.922,25.69,-3.08,0.012915215107066558,0.9738479892150904,0.5378414955981837,0.5231629962171637,0.171487786979945,0.6163624547353717
455,25.984,25.75,-3.08,0.013898736104024905,0.9724680939439947,0.5355004133503176,0.519920057315796,0.17165940812309635,0.6142319172552474
456,26.045,25.8,-2.94,0.01491228698963088,0.9710578796641862,0.5331914839772248,0.5167021151448138,0.17186276595254202,0.6121138463375867
457,26.086,25.86,-3.02,0.01595514817784848,0.9696179961743759,0.5309155254276485,0.5135106523555878,0.17209719411519675,0.6100090718110013
458,26.147,25.91,-3.01,0.017026590524430847,0.9681491192801973,0.528673327444927,0.5103471046208394,0.17236202914998683,0.6079184009541657
459,26.21,25.97,-2.89,0.01812587534241083,0.9666519506694885,0.5264656511376269,0.5072128601072262,0.17265661092306414,0.605842618183773
460,26.25,26.02,-2.97,0.019252254433642327,0.9651272177591181,0.5242932285819127,0.5041092590045823,0.17298028303138765,0.603782484767695
461,26.312,26.08,-2.99,0.02040497013767768,0.963575673512534,0.5221567624556148,0.5010375931108219,0.1733323931746722,0.6017387385628841
462,26.373,26.13,-2.94,0.02158325539916496,0.9619980962272875,0.5200569257039208,0.49799910547148546,0.17371229349584047,0.5997120937775496
463,26.455,26.19,-2.88,0.022786333854859064,0.9603952892918433,0.5179943612366003,0.4949949900728793,0.1741193408902468,0.5977032407571261
464,26.476,26.24,-2.95,0.02401341994121731,0.9587680809110533,0.5159696816566427,0.49202639158772377,0.17455289728403886,0.595712845793558
465,26.537,26.3,-3.01,0.02526371902332715,0.9571173237997992,0.5139834690201442,0.4890944051722183,0.17501232988212656,0.5937415509574329
466,26.577,26.35,-2.89,0.02653642754567859,0.9554438948444333,0.5120362746272231,0.48620007631343104,0.17549701138634055,0.5917899739524859
467,26.638,26.41,-3.0,0.027830733205142205,0.9537486947317313,0.5101286188437162,0.4833444007259062,0.17600632018445525,0.5898587079919961
468,26.7,26.46,-2.99,0.029145815146394017,0.9520326475451221,0.5082609909533783,0.4805283242963658,0.17653964051080803,0.5879483216966008
469,26.743,26.52,-2.89,0.03048084417985037,0.9502967003280537,0.506433849040262,0.4777527430753906,0.17709636257927325,0.5860593590130794
470,26.825,26.57,-2.97,0.03183498302197592,0.9485418226144676,0.5046476199009118,0.47501850331498086,0.177675882689394,0.5841923391536723
471,26.845,26.63,-3.0,0.03320738655766058,0.9467690059264627,0.5029026989859694,0.47232640155091765,0.17827760330653475,0.5823477565555243
472,26.907,26.68,-2.99,0.03459720212423673,0.9449792632393144,0.5011994503707649,0.46967718472884945,0.17890093311699068,0.5805260808598499
473,26.968,26.74,-2.91,0.036003569816653015,0.9431736284140755,0.49953820675445976,0.467071550373032,0.17954528705906997,0.5787277569104329
474,27.028,26.79,-3.0,0.03742562281329168,0.9413531555980507,0.49791926948730647,0.4645101467966348,0.18021008633121072,0.5769532047710932
475,27.09,26.85,-3.05,0.038862487721805374,0.9395189185935227,0.4963429086255592,0.4619935733525413,0.18089475837822858,0.5752028197617692
476,27.131,26.9,-2.94,0.04031328494421721,0.937672010195256,0.4948093630135392,0.45952238072359597,0.18159873685683903,0.5734769725128723
477,27.193,26.96,-3.06,0.041777129060473615,0.935813541497393,0.4933188403923354,0.4570970712512678,0.18232146158163975,0.571776009037572
478,27.253,27.01,-3.06,0.043253129229631745,0.9339446411704221,0.4918715175346191,0.45471809930170193,0.18306237845275591,0.570100250821688
479,27.315,27.07,-2.99,0.04474038960785195,0.9320664547089605,0.4904675404050371,0.4523858716681338,0.18382093936634655,0.5684499949308846
480,27.356,27.12,-3.05,0.046238009782354074,0.9301801436511278,0.4891070243456325,0.4501007480086502,0.18459660210916976,0.5668255141348821
481,27.418,27.18,-3.1,0.04774508522047428,0.9282868847703372,0.4877900542857171,0.4478630413182873,0.1853888302384055,0.56522705704842
482,27.5,27.23,-3.11,0.04926070773291951,0.926387869240372,0.4865166849756023,0.44567301843447094,0.1861970929479355,0.5636548482887045
483,27.581,27.29,-3.02,0.050783965950314,0.9244843017746518,0.48528694124358307,0.443530900574794,0.187020864922289,0.5621090886490866
484,27.602,27.34,-3.1,0.05231394581217216,0.9225773997405952,0.48410081827557533,0.4414368639061114,0.1878596261794485,0.5605899552887221
485,27.644,27.4,-3.13,0.05384973106743705,0.9206683922500025,0.4829582819167952,0.4393910401439218,0.1887128619036874,0.5590976019379937
486,27.685,27.45,-3.0,0.05539040378570116,0.9187585192264227,0.4818592689948448,0.43739351718101743,0.18958006226961113,0.5576321591194864
487,27.748,27.51,-3.12,0.05693504487825074,0.9168490304505034,0.48080368766356013,0.43544433974439994,0.19046072225859978,0.5561937343843186
488,27.809,27.56,-3.13,0.058482734628125366,0.9149411845843385,0.4797914177669678,0.4335435100794705,0.1913543414688779,0.5547824125636329
489,27.851,27.62,-3.06,0.060032553228412146,0.9130362481758534,0.47882231122268326,0.4316909886605254,0.19226042392045875,0.5533982560350474
490,27.933,27.67,-3.09,0.06158358132800671,0.9111354946442887,0.47789619242405446,0.4298866949266201,0.1931784778562312,0.55204130500388
491,27.953,27.73,-3.15,0.06313490058408373,0.9092402032478852,0.4770128586603344,0.4281305080418999,0.1941080155404546,0.5507115777989537
492,28.014,27.78,-3.18,0.06468559422051481,0.9073516580349309,0.47617208055414734,0.42642226767952557,0.19504855305592408,0.549409071182803
493,28.076,27.84,-3.08,0.06623474759153988,0.9054711467793775,0.4753736025155289,0.4247617748283377,0.19599961010105796,0.5481337606760848
494,28.158,27.89,-3.17,0.06778144875013503,0.903599959902221,0.4746171432118641,0.42314879262137306,0.19696070978812882,0.5468856008959923
495,28.179,27.95,-3.19,0.06932478902062218,0.9017393893798274,0.4739023960530939,0.4215830471853268,0.1979313784438113,0.5456645259084756
496,28.22,28.0,-3.08,0.07086386357514464,0.89989072764039,0.4732290296915877,0.42006422851005853,0.1989111454131834,0.5444704495940742
497,28.303,28.06,-3.19,0.07239777201374893,0.8980552664497093,0.4725966885361116,0.41859199133725766,0.19989954286830924,0.5433032660271646
498,28.365,28.11,-3.21,0.07392561894795632,0.8962342957874893,0.47200499327936024,0.417165956067404,0.20089610562252452,0.5421628498684246
499,28.406,28.17,-3.14,0.07544651458781165,0.8944291027153563,0.47145354143855067,0.4157857096841784,0.20190037095153104,0.5410490567703157
500,28.468,28.22,-3.14,0.07695957533247477,0.892640970237849,0.47094190790861057,0.41445080669550394,0.20291187842238925,0.5399617237953852
501,28.509,28.28,-3.19,0.0784639243644334,0.890871176157676,0.4704696455275188,0.4131607700904109,0.2039301697314675,0.5389006698471994
502,28.571,28.33,-3.22,0.07995869224736844,0.8891209919266394,0.47003628565336475,0.4119150923109515,0.2049547885523811,0.5378656961137076
503,28.676,28.39,-3.12,0.08144301752767893,0.8873916814936847,0.46964133875271263,0.41071323623839956,0.20598528039495548,0.5368565865228138
504,28.696,28.44,-3.22,0.08291604733973566,0.8856845001515269,0.4692842949998987,0.4095546361929529,0.2070211924762399,0.5358731082098976
505,28.738,28.5,-3.23,0.08437693801499707,0.8840006933832544,0.46896462488693696,0.4084386989461244,0.20806207360456433,0.5349150119970063
506,28.799,28.55,-3.13,0.08582485569513074,0.8823414957102569,0.46868177984373705,0.4073648047449969,0.2091074740775995,0.5339820328834044
507,28.84,28.61,-3.23,0.08725897694929628,0.8807081295427609,0.4684351928683635,0.4063323083475084,0.21015694559534923,0.5330738905471547
508,28.88,28.66,-3.24,0.08867848939575869,0.879101804034149,0.4682242791670859,0.40534054006793463,0.21121004118897027,0.5321902898573625
509,28.942,28.72,-3.19,0.09008259232800829,0.8775237139401454,0.4680484368039827,0.40438880683173456,0.2122663151662858,0.5313309213967002
510,29.026,28.77,-3.15,0.0914704973455759,0.8759750384838382,0.46790704735987326,0.40347639323892215,0.21332532307482535,0.5304954619938029
511,29.046,28.83,-3.22,0.09284142898970354,0.8744569402274481,0.46779947660035825,0.40260256263513516,0.21438662168318007,0.5296835752651166
512,29.109,28.88,-3.24,0.09419462538393364,0.8729705639517524,0.46772507515273626,0.4017665581895835,0.21544976898143284,0.5288949121657669
513,29.171,28.94,-3.13,0.09552933887958313,0.8715170355440938,0.46768317919155894,0.4009676039790834,0.21651432420142003,0.5281291115489855
514,29.213,28.99,-3.25,0.09684483670605086,0.8700974608958802,0.46767311113260235,0.40020490607737297,0.2175798478575771,0.5273858007336013
515,29.274,29.05,-3.26,0.09814040162592509,0.8687129248104531,0.46769418033504845,0.39947765364889853,0.21864590180908441,0.5266645960790852
516,29.336,29.1,-3.18,0.09941533259485064,0.8673644899221817,0.46774568381165443,0.3987850200462692,0.21971204934398886,0.525965103567619
517,29.418,29.16,-3.27,0.10066894542611536,0.8660531956276468,0.4678269069466629,0.3981261639106143,0.22077785528592725,0.5252869193926474
518,29.46,29.21,-3.3,0.10190057345992098,0.8647800570297579,0.46793712422117295,0.39750023027410464,0.22184288612400677,0.5246296305533534
519,29.501,29.27,-3.28,0.1031095682373001,0.8635460638956463,0.46807559994567466,0.396906351663926,0.2229067101663294,0.5239928154544888
520,29.563,29.32,-3.22,0.10429530017860904,0.8623521796291638,0.46824158899943324,0.39634364920700593,0.22396889771756293,0.5233760445109774
521,29.625,29.38,-3.3,0.10545715926642674,0.861199340258819,0.4684343375763995,0.3958112337347899,0.22502902128086416,0.5227788807567051
522,29.666,29.43,-3.35,0.10659455573246228,0.860088453442039,0.4686530839372942,0.395308206887379,0.2260866557843655,0.5222008804569166
523,29.768,29.49,-3.23,0.10770692074782075,0.8590203974867117,0.46889705916747826,0.3948336622163552,0.22714137883236227,0.5216415937236225
524,29.789,29.54,-3.36,0.10879370711579305,0.8579960203910284,0.46916548794020696,0.3943866862856239,0.22819277098126975,0.5211005651334147
525,29.83,29.6,-3.36,0.10985438996618206,0.8570161389026768,0.4694575892848547,0.39396635976960803,0.2292404160403223,0.520577334347087
526,29.892,29.65,-3.27,0.11088846745000691,0.8560815375985178,0.4697725773596676,0.3935717585481549,0.23028390139688348,0.5200714367304646
527,29.934,29.71,-3.35,0.11189546143327452,0.8551929679859158,0.4701096622285648,0.39320195479755926,0.23132281836613014,0.5195824039758512
528,29.997,29.76,-3.4,0.1128749181883783,0.8543511476269247,0.47046805064147035,0.39285601807714565,0.23235676256476304,0.5191097647235061
529,30.059,29.82,-3.4,0.11382640908156175,0.8535567592865281,0.47084694681762523,0.39253301641089045,0.2333853343083016,0.5186530451825615
530,30.141,29.87,-3.32,0.11474953125480132,0.8528104501061233,0.4712455532313059,0.3922320173635784,0.23440813903141502,0.5182117697507841
531,30.161,29.93,-3.4,0.11564390830039367,0.852112830803395,0.4716630713993584,0.39195208911099627,0.23542478773061198,0.5177854616325922
532,30.202,29.98,-3.43,0.11650919092641432,0.8514644748996965,0.47209870266991105,0.39169230150368767,0.23643489742847193,0.51737364345475
533,30.263,30.04,-3.31,0.11734505761109827,0.8508659179760445,0.4725516490115732,0.39145172712383386,0.23743809165848778,0.5169758378791679
534,30.326,30.09,-3.42,0.11815121524415448,0.8503176569587853,0.47302111380239414,0.39122944233484985,0.23843400096949782,0.5165915682122354
535,30.387,30.15,-3.41,0.11892739975305368,0.8498201494359154,0.4735063026178487,0.39102452832327855,0.23942226344858722,0.5162203590101213
536,30.427,30.2,-3.32,0.11967337671237886,0.8493738130049603,0.4740064240171262,0.39083607213254173,0.24040252526124825,0.515861736679482
537,30.509,30.26,-3.36,0.120388941934392,0.8489790246532127,0.47452069032700706,0.39066316768808085,0.24137444120749585,0.5155152300730286
538,30.551,30.31,-3.4,0.12107392203902707,0.8486361201710534,0.4750483184226143,0.39050491681339594,0.24233767529255693,0.5151803710794104
539,30.633,30.37,-3.41,0.1217281750015652,0.8483453935989884,0.4755885305043168,0.39036043023648415,0.24329190131067646,0.5148566952068702
540,30.654,30.42,-3.32,0.12235159067637562,0.848107096708924,0.4761405548700682,0.3902288285861568,0.2442368034405144,0.5145437421601275
541,30.737,30.48,-3.39,0.12294409129530405,0.8479214385200226,0.4767036266824877,0.3901092433776606,0.2451720768505189,0.514241056409948
542,30.757,30.53,-3.43,0.12350563193943359,0.8477885848493303,0.4772769887300104,0.39000081798697966,0.24609742831255302,0.513948187754871
543,30.817,30.59,-3.26,0.12403620098299838,0.847708657897276,0.4778598921814278,0.38990270861316806,0.24701257682195538,0.5136646918745817
544,30.879,30.64,-3.37,0.12453582050826932,0.8476817358680977,0.4784515973331498,0.38981408522804734,0.2479172542221353,0.5133901308744204
545,30.921,30.7,-3.35,0.12500454669027522,0.8477078526252281,0.4790513743485261,0.38973413251258604,0.2488112058317322,0.5131240738205416
546,30.982,30.75,-3.26,0.12544247015026158,0.8477869973816491,0.4796585039885768,0.3896620507792693,0.24969419107231977,0.5128660972652522
547,31.045,30.81,-3.24,0.12584971627683816,0.8479191144251945,0.4802722783334735,0.3895970568797653,0.2505659840946164,0.5126157857620726
548,31.106,30.86,-3.28,0.12622644551379333,0.848104102878747,0.4808920014941077,0.38953838509720057,0.2514263744011444,0.5123727323700713
549,31.168,30.92,-3.3,0.1265728536135511,0.8483418164952696,0.4815169903130542,0.3894852880223774,0.25227516746329065,0.5121365391470122
550,31.229,30.97,-3.16,0.12688917185529083,0.8486320634875848,0.48214657505423425,0.38943703741326896,0.25311218533073004,0.5119068176308335
551,31.249,31.03,-3.25,0.12717566722689091,0.8489746063927376,0.4827801000806033,0.3893929250371054,0.25393726723117616,0.51168318930897
552,31.31,31.08,-3.23,0.1274326425700028,0.8493691619706767,0.4834169245192038,0.38935226349432944,0.25475027015840246,0.5114652860750232
553,31.392,31.14,-3.1,0.12766043668768068,0.8498154011369227,0.4840564229129277,0.3893143870236897,0.25555106944646994,0.5112527506723022
554,31.433,31.19,-3.17,0.1278594244141306,0.8503129489288062,0.4846979858583358,0.38927865228772673,0.256339559328103,0.5110452371237545
555,31.494,31.25,-3.16,0.1280300166462754,0.8508613845047867,0.48534102062889317,0.3892444391378929,0.2571156534751763,0.510842411147808
556,31.536,31.3,-3.08,0.12817266033692934,0.851460241176297,0.48598495178299034,0.3892111513585222,0.2578792855193102,0.5106439505596528
557,31.597,31.36,-3.02,0.1282878384494739,0.8521090064715039,0.4866292217561269,0.3891782173888584,0.25863040955061223,0.5104495456574965
558,31.659,31.41,-3.06,0.12837606987398892,0.8528071222303475,0.4872732914366317,0.3891450910223426,0.25936900059264784,0.5102588995933435
559,31.719,31.47,-3.06,0.12843790930478471,0.8535539847302566,0.48791664072427,0.38911125208238523,0.2600950550517842,0.5100717287278624
560,31.76,31.52,-2.92,0.12847394707926976,0.8543489448419905,0.48855876907106993,0.3890762070738687,0.260808591139141,0.5098877629689097
561,31.821,31.58,-3.01,0.12848480897814263,0.8551913082150855,0.4891991960037069,0.38903948980962827,0.2615096492634704,0.5097067460932775
562,31.883,31.63,-2.99,0.12847115598693784,0.8560803354923908,0.48983746162679215,0.3890006620111573,0.2621982923933531,0.5095284360512531
563,32.024,31.69,-2.87,0.12843368401892205,0.8570152425532356,0.4904731271064007,0.3889593138828028,0.2628746063871726,0.5093526052535989
564,32.044,31.74,-2.95,0.12837312359925973,0.8579952007848279,0.49110577513315024,0.3889150646587639,0.2635387002894015,0.5091790408405843
565,32.064,31.8,-2.96,0.12829023951026794,0.8590193373815518,0.49173501036412104,0.3888675631222442,0.2641907065918069,0.5090075449327165
566,32.085,31.85,-2.92,0.12818583039744139,0.8600867356718987,0.4923604598428929,0.3888164880961548,0.26483078145824496,0.5088379348628487
567,32.146,31.91,-2.84,0.1280607283358009,0.8611964354728424,0.49298177339697385,0.3887615489048034,0.26545910491176544,0.5086700433893623
568,32.187,31.96,-2.89,0.12791579835597244,0.8623474334715285,0.4935986240118956,0.3887024858060319,0.266075880982777,0.5085037188901662
569,32.248,32.02,-2.92,0.12775193792922335,0.8635386836342577,0.4942107081812288,0.3886390703933216,0.26668133781706127,0.508338825537294
570,32.351,32.07,-2.77,0.12757007641054674,0.8647690976428415,0.4948177462317538,0.38857110596744077,0.2672757277424875,0.5081752434519163
571,32.372,32.13,-2.88,0.1273711744388658,0.8660375453584819,0.49541948262302776,0.3884984278772578,0.2678593272933581,0.508012868839603
572,32.433,32.18,-2.86,0.12715622329346013,0.8673428553133613,0.4960156862206232,0.3884209038293659,0.2684324371913763,0.50785161410572
573,32.475,32.24,-2.75,0.12692624420572557,0.868683815230183,0.49660615054233315,0.3883384341662058,0.2689953822822865,0.5076914079508825
574,32.538,32.29,-2.8,0.12668228762538705,0.8700591725699431,0.4971906939766718,0.3882509521124054,0.26954851142729697,0.5075321954464357
575,32.599,32.35,-2.83,0.12642543244030519,0.8714676351082434,0.4977691599730304,0.38815842398908185,0.2700921973484616,0.5073739380899686
576,32.722,32.4,-2.81,0.12615678514905743,0.8729078715404646,0.49834141720288866,0.3880608493958655,0.2706268364272688,0.5072166138409001
577,32.743,32.46,-2.7,0.1258774789855738,0.8743785121160851,0.4989073596915405,0.3879582613603985,0.27115284845576665,0.5070602171361841
578,32.763,32.51,-2.77,0.1255886729952342,0.8758781493023552,0.4994669069198472,0.38785072645503726,0.2716706763396018,0.506904758886213
579,32.803,32.57,-2.77,0.1252915510619134,0.8774053384774587,0.5000200038955703,0.38773834488047776,0.2721807857524006,0.5067502664510175
580,32.865,32.62,-2.62,0.12498732088551455,0.8789585986532179,0.500566621193856,0.38762125051603363,0.2726836647409998,0.5065967835968878
581,32.907,32.68,-2.73,0.12467721290965328,0.8805364132273154,0.5011067549664844,0.38749961093630014,0.2731798232811345,0.506444370433549
582,32.969,32.73,-2.7,0.12436247919933033,0.8821372307649001,0.5016404269195631,0.3873736273939304,0.27366979278330567,0.5062931033320459
583,33.051,32.79,-2.6,0.12404439226859797,0.8837594658093657,0.5021676842594028,0.38724353476824597,0.27415412554866886,0.506143074823503
584,33.073,32.84,-2.61,0.12372424385838394,0.8854014997220333,0.5026885996063788,0.3871096014794181,0.2746333941749017,0.5059943934789423
585,33.133,32.9,-2.64,0.12340334366476036,0.8870616815504471,0.5032032708766219,0.3869721293679841,0.2751081909121273,0.5058471837703581
586,33.194,32.95,-2.65,0.12308301801803964,0.8887383289249876,0.5037118211314254,0.38683145353950893,0.275579126969092,0.5057015859132512
587,33.277,33.01,-2.51,0.12276460851325091,0.8904297289834915,0.5042143983943106,0.38668794217422664,0.27604683176993317,0.5055577556908246
588,33.298,33.06,-2.58,0.1224494705927926,0.8921341393234854,0.5047111754357744,0.38654199630149666,0.2765119521619878,0.505415864260045
589,33.359,33.12,-2.59,0.12213897208227883,0.8938497889815767,0.5052023495258078,0.3863940495389224,0.27697515157519526,0.5052760979397861
590,33.442,33.17,-2.45,0.12183449168078792,0.8955748794394749,0.5056881421543188,0.3862445677960211,0.27743710913377473,0.5051386579812742
591,33.463,33.23,-2.55,0.12153741740695323,0.8973075856560387,0.506168798719665,0.3860940489423773,0.27789851872100946,0.5050037603210592
592,33.505,33.28,-2.54,0.12124914500261032,0.8990460571246438,0.5066445881856018,0.3859430224402355,0.2783600879981164,0.5048716353167291
593,33.567,33.34,-2.45,0.12097107629596797,0.9007884189550656,0.5071158027070758,0.38579204894149305,0.27882253737832535,0.504742527465596
594,33.629,33.39,-2.43,0.1207046175265374,0.9025327729789906,0.5075827572254094,0.3856417198490618,0.2792865989574243,0.5046166951065917
595,33.692,33.45,-2.48,0.1204511776342878,0.9042771988781929,0.508045789033508,0.38549265684257905,0.2797530154021606,0.504494410105637
596,33.753,33.5,-2.49,0.1202121665156753,0.9060197553343873,0.5085052573117946,0.38534551136847445,0.2802225387980283,0.5043759575247662
597,33.815,33.56,-2.36,0.11998899324937995,0.907758481199751,0.5089615426356334,0.3852009640944287,0.2806959294581339,0.5042616352752949
598,33.836,33.61,-2.44,0.11978306429482746,0.909491396687058,0.5094150464550931,0.385059724328266,0.28117395469497897,0.5041517537553278
599,33.897,33.67,-2.44,0.11959578166677688,0.911216504578313,0.5098661905479595,0.3849225294013443,0.28165738755712727,0.5040466354719226
600,33.958,33.72,-2.34,0.11942854108938555,0.9129317914507633,0.5103154164469315,0.3847901440165786,0.28214700553286376,0.5039466146482404
601,34.019,33.78,-2.43,0.11928273013324842,0.9146352289191575,0.5107631848419274,0.38466335956134434,0.28264358922309785,0.5038520368160259
602,34.06,33.83,-2.45,0.11915972633894137,0.9163247748931139,0.5112099749584024,0.38454299338562875,0.2831479209859002,0.5037632583937525
603,34.122,33.89,-2.41,0.11906089533057589,0.9179983748484876,0.5116562839125602,0.38442988804590095,0.283660783555188,0.5036806462507843
604,34.182,33.94,-2.35,0.1189875889228202,0.9196539631116528,0.5121026260443243,0.3843249105152483,0.2841829586361705,0.5036045772579129
605,34.243,34.0,-2.43,0.11894114322474969,0.9212894641556966,0.5125495322289347,0.3842289513603828,0.28471522548024464,0.5035354378246508
606,34.285,34.05,-2.47,0.11892287674372161,0.922902793907624,0.5129975491680191,0.38414292388618904,0.28525835944211564,0.5034736234236951
607,34.346,34.11,-2.35,0.11893408849231281,0.9244918610658198,0.5134472386609739,0.38406776324855296,0.28581313052202534,0.5034195381029717
608,34.407,34.16,-2.49,0.11897605610130417,0.9260545684270751,0.5138991768575132,0.38400442553624786,0.286380301896072,0.5033735939856903
609,34.468,34.22,-2.49,0.119050033941663,0.9275888142225599,0.5143539534922701,0.3839538868226901,0.28696062843767145,0.5033362107588564
610,34.591,34.27,-2.41,0.11915725125840297,0.9290924934621967,0.5148121711023403,0.3839171421884341,0.28755485523325197,0.5033078151507236
611,34.612,34.33,-2.51,0.1192989103191226,0.9305634992869809,0.5152744442286644,0.38389520471534716,0.28816371609531605,0.5032888403976988
612,34.633,34.38,-2.56,0.11947618457994712,0.9319997243288408,0.5157413986021454,0.3838891044534659,0.28878793207601516,0.5032797257012424
613,34.675,34.44,-2.57,0.11969021687153227,0.9333990620776731,0.5162136703154091,0.38389988736158687,0.2894282099844131,0.5032809156753209
614,34.736,34.49,-2.5,0.11994211760776971,0.9347594082551889,0.5166919049811468,0.3839286142226688,0.2900852409106089,0.5032928597849892
615,34.797,34.55,-2.6,0.12023296301980393,0.9360786621952079,0.5171767568780059,0.3839763595351366,0.2907596987598638,0.5033160117766966
616,34.839,34.6,-2.64,0.1205637934178479,0.9373547282300845,0.5176688880849919,0.384044210381214,0.2914522387998265,0.5033508291009423
617,34.92,34.66,-2.53,0.12093561148310722,0.9385855170830377,0.5181689676053196,0.38413326527347974,0.29216349622392884,0.5033977723279278
618,34.941,34.71,-2.67,0.12134938059202313,0.9397689472662161,0.5186776704806387,0.3842446329809015,0.2928940847340073,0.5034573045568689
619,35.002,34.77,-2.67,0.1218060231750314,0.9409029464843235,0.519195676896571,0.384379431335636,0.29364459514517793,0.5035298908196622
620,35.064,34.82,-2.6,0.12230641911205944,0.9419854530435924,0.5197236712805238,0.38453878602189967,0.29441559401595885,0.5036159974796298
621,35.105,34.88,-2.65,0.12285140416703431,0.9430144172658356,0.5202623413927735,0.38472382934822785,0.29520762230660347,0.5037160916260948
622,35.167,34.93,-2.71,0.12344176846370329,0.9439878029072362,0.5208123774118418,0.3849356990044522,0.2960211940685798,0.5038306404655596
623,35.288,34.99,-2.75,0.12407825500507344,0.9449035885815122,0.5213744710152095,0.38517553680474786,0.2968567951681077,0.5039601107102669
624,35.309,35.04,-2.68,0.12476155823882477,0.9457597691870203,0.5219493144564553,0.3854444874180932,0.29771488204664814,0.5041049679649143
625,35.33,35.1,-2.78,0.12549232267115676,0.946554357337255,0.5225375996399674,0.3857436970874549,0.2985958805211771,0.5042656761122949
626,35.37,35.15,-2.82,0.12627114153158386,0.9472853847940945,0.5231400171944056,0.38607431233898043,0.29950018462698547,0.5044426966986424
627,35.431,35.21,-2.71,0.12709855549118595,0.9479509039030555,0.5237572555461151,0.38643747868247724,0.3004281555056504,0.5046364883194706
628,35.493,35.26,-2.83,0.12797505143683463,0.9485489890297639,0.5243899999936984,0.3868343393044627,0.3013801203407407,0.5048475060066885
629,35.554,35.32,-2.86,0.1289010613039463,0.9490777379967612,0.5250389317849882,0.38726603375506785,0.3023563713437381,0.5050762006177693
630,35.658,35.37,-2.79,0.1298769609703229,0.9495352735197119,0.5257047271976824,0.3877336966300779,0.30335716479258285,0.5053230182277413
631,35.678,35.43,-2.8,0.13090306921365397,0.9499197446420173,0.5263880566249344,0.38823845624939834,0.30438272012516765,0.5055883995247669
632,35.72,35.48,-2.87,0.13197964673524512,0.9502293281667883,0.5270895836672027,0.3887814333332462,0.30543321909002585,0.5058727792100652
633,35.761,35.54,-2.91,0.1331068952524827,0.9504622300850999,0.5278099642316605,0.38936373967739174,0.3065088049563897,0.50617658540293
634,35.842,35.59,-2.82,0.13428495666251047,0.9506166869994315,0.5285498456404604,0.38998647682879806,0.30760958178573905,0.5065002390515536
635,35.925,35.65,-2.94,0.1355139122796329,0.9506909675411092,0.5293098657491673,0.39065073476299683,0.30873561376689485,0.5068441533503455
636,35.945,35.7,-2.97,0.13679378214898708,0.9506833737804842,0.5300906520766855,0.3913575905645284,0.3098869246166035,0.5072087331644121
637,36.006,35.76,-2.88,0.13812452443896572,0.9505922426285257,0.5308928209479956,0.3921081071117856,0.3110634970474417,0.5075943744618624
638,36.047,35.81,-2.99,0.1395060349147673,0.9504159472284716,0.5317169766509925,0.39290333176762116,0.31226527230475054,0.5080014637545894
639,36.088,35.87,-3.03,0.1409381464953015,0.9501528983361432,0.5325637106086952,0.3937442950771036,0.31349214977417506,0.5084303775481742
640,36.15,35.92,-3.0,0.1424206288954895,0.94980154568752,0.5334336005680768,0.3946320094738208,0.3147439866612426,0.5088814818015471
641,36.21,35.98,-2.95,0.1439531883558152,0.9493603793521357,0.5343272098067456,0.39556746799614334,0.31602059774427754,0.5093551313970385
642,36.291,36.03,-3.05,0.14553546746077115,0.9488279310708763,0.5352450863586875,0.3965516430148643,0.31732175520179423,0.5098516696214548
643,36.311,36.09,-3.1,0.14716704504753866,0.9482027755768089,0.5361877622602222,0.3975854849736587,0.3186471885153596,0.5103714276588264
644,36.393,36.14,-3.0,0.14884743620591678,0.9474835318977755,0.5371557528172753,0.3986699211438372,0.31999658444880336,0.5109147240954565
645,36.455,36.2,-3.14,0.15057609237026723,0.9466688646395398,0.5381495558950289,0.39980585439487587,0.3213695871045168,0.5114818644378918
646,36.516,36.25,-3.16,0.1523524015040202,0.9457574852483221,0.5391696512309843,0.40099416198220844,0.32276579805741845,0.5120731406444278
647,36.537,36.31,-3.08,0.15417568837703496,0.9447481532516162,0.5402164997724234,0.402235694353789,0.3241847765669754,0.512688830670765
648,36.598,36.36,-3.16,0.15604521493585866,0.9436396774762407,0.5412905430391859,0.4035312739769689,0.32562603986747635,0.5133291980304322
649,36.64,36.42,-3.21,0.15796018076667975,0.94243091724262,0.5423922025126168,0.4048816941872636,0.32708906353655287,0.5139944913705858
650,36.743,36.47,-3.22,0.15991972365052634,0.9411207835343178,0.5435218790514678,0.40628771806061165,0.3285732819417585,0.5146849440637818
651,36.764,36.53,-3.14,0.16192292021005,0.9397082401418665,0.5446799523354939,0.4077500773107344,0.33007808876482536,0.5154007738163019
652,36.805,36.58,-3.23,0.1639687866470566,0.9381923047799159,0.5458667803374406,0.40926947121317847,0.33160283760301335,0.5161421822936079
653,36.868,36.64,-3.26,0.16605627956972263,0.9365720501767413,0.5470826988240777,0.4108465655576059,0.333146842646754,0.5169093547635029
654,36.93,36.69,-3.14,0.16818429690820466,0.9348466051351633,0.5483280208868717,0.41248199162988686,0.3347093794326079,0.5177024597575667
655,36.972,36.75,-3.26,0.1703516789171943,0.9330151555639274,0.5496030365028591,0.4141763452255208,0.3362896856703887,0.5185216487514269
656,37.033,36.8,-3.26,0.17255720926386786,0.9310769454785403,0.5509080121262505,0.41593018569588003,0.3378869621431395,0.5193670558644055
657,37.156,36.86,-3.17,0.1747996161995789,0.9290312779705021,0.5522431903112748,0.41774403502872587,0.33950037367848995,0.5202387975790776
658,37.177,36.91,-3.2,0.17707757381355288,0.9268775161438212,0.5536087893667343,0.4196183769644159,0.34112905018976186,0.5211369724812588
659,37.219,36.97,-3.24,0.1793897033667336,0.9246150840176306,0.555005003042697,0.421553656149185,0.34277208778503493,0.522061661020916
660,37.26,37.02,-3.24,0.18173457470379056,0.9222434673937152,0.5564320002496999,0.4235502773268617,0.3444285499422395,0.5230129252944732
661,37.301,37.08,-3.13,0.18411070774120508,0.9197622146877136,0.5578899248107932,0.42560860457033656,0.34609746874822084,0.5239908088489306
662,37.363,37.13,-3.2,0.18651657402933983,0.9171709377226802,0.5593788952467285,0.4277289605540326,0.3477778461995797,0.5249953365081773
663,37.424,37.19,-3.21,0.18895059838636857,0.9144693124836083,0.5608990045945628,0.4299116258685636,0.34946865556295126,0.5260265142218418
664,37.485,37.24,-3.08,0.1914111606018872,0.9116570798314616,0.5624503202599009,0.43215683837872265,0.3511688427922696,0.5270843289369931
665,37.547,37.3,-3.17,0.19389659720799718,0.9087340461752195,0.5640328839029579,0.43446479262590476,0.35287732800046656,0.5281687484929631
666,37.608,37.35,-3.17,0.19640520331565445,0.9057000841003927,0.5656467113585961,0.4368356392760281,0.35459300698296725,0.5292797215395287
667,37.629,37.41,-3.08,0.19893523451408446,0.9025551329524424,0.5672917925904515,0.4392694846139819,0.35631475279026237,0.5304171774786532
668,37.69,37.46,-3.06,0.2014849088310847,0.8992991993734996,0.5689680916792237,0.441766390085598,0.35804141734675154,0.5315810264299633
669,37.792,37.52,-3.1,0.20405240875201497,0.8959323577907825,0.5706755468451421,0.44432637188810165,0.35977183311296174,0.5327711592201095
670,37.853,37.57,-3.12,0.2066358832951742,0.8924547508551456,0.5724140705045531,0.44694940060997385,0.36150481478816443,0.5339874473961282
671,37.873,37.63,-2.99,0.20923345014117398,0.8888665898282329,0.5741835493605102,0.44963540092109694,0.36323916105036186,0.5352297432628702
672,37.915,37.68,-3.08,0.21184319781390926,0.8851681549167,0.5759838445272117,0.4523842513139763,0.36497365633055207,0.5364978799445068
673,37.977,37.74,-3.05,0.21446318791070565,0.8813597955519336,0.5778147916880807,0.4551957838967334,0.36670707261809354,0.5377916714700839
674,38.018,37.79,-2.92,0.21709145737911834,0.8774419306136981,0.5796762012872027,0.4580697842384982,0.3684381712939129,0.5391109128830506
675,38.079,37.85,-2.99,0.2197260208377198,0.8734150485961635,0.5815678587537485,0.46100599126777214,0.3701657049882338,0.5404553803746504
676,38.141,37.9,-2.98,0.22236487293806512,0.8692797077147815,0.5834895247589245,0.46400409722426744,0.3718884194594546,0.5418248314410129
677,38.222,37.96,-2.92,0.22500599076487254,0.8650365359525156,0.5854409355049278,0.4670637476646528,0.3736050554907736,0.5432190050637362
678,38.243,38.01,-2.83,0.22764733627133982,0.860686231043948,0.5874218030453303,0.4701845415225444,0.37531435080113984,0.5446376219137026
679,38.305,38.07,-2.88,0.2302868587463804,0.8562295603958323,0.589431815636259,0.47336603122297793,0.37701504196708224,0.5460803845778299
680,38.345,38.12,-2.9,0.23292249731035594,0.8516673609427586,0.5914706381176634,0.4766077228515163,0.378705866351953,0.5475469778084245
681,38.407,38.18,-2.73,0.23555218343567796,0.8470005389367126,0.5935379123238745,0.4799090763780717,0.38038556403914014,0.5490370687947383
682,38.468,38.23,-2.83,0.23817384348854717,0.842230069669395,0.5956332575226052,0.48326950593542933,0.38205287976582475,0.550550307456286
683,38.529,38.29,-2.8,0.24078540128803397,0.8373569971262483,0.5977562708814974,0.4866883801523707,0.3837065648538672,0.5520863267574329
684,38.591,38.34,-2.68,0.2433847806786058,0.8323824335712565,0.5999065279612765,0.4901650225412217,0.385345379134413,0.5536447430427457
685,38.631,38.4,-2.72,0.24596990811210137,0.8273075590617319,0.6020835832345309,0.49369871193960024,0.38696809286282297,0.5552251563925812
686,38.714,38.45,-2.72,0.24853871523506532,0.8221336208924624,0.6042869706291049,0.49728868300609314,0.38857348862055324,0.5568271509983711
687,38.733,38.51,-2.67,0.25108914147729944,0.8168619329687612,0.6065162040950718,0.5009341267695472,0.3901603632006384,0.558450295557054
688,38.795,38.56,-2.56,0.2536191366374927,0.8114938751081043,0.6087707781942441,0.5046341912316082,0.39172752947347356,0.5600941436840862
689,38.836,38.62,-2.62,0.2561266634618343,0.8060308922701879,0.6110501687111832,0.5083879820220715,0.393273818229624,0.561758234344456
690,38.961,38.67,-2.61,0.2586097002114848,0.8004744937153937,0.6133538332846408,0.5121945631065555,0.39479807999643,0.5634420923011363
691,38.982,38.73,-2.46,0.2610662432147239,0.7948262520918603,0.6156812120583268,0.516052957545984,0.39629918682524373,0.5651452285803895
692,39.024,38.78,-2.55,0.26349430939961477,0.7890878024515232,0.6180317283498717,0.5199621483073044,0.39777603404621303,0.5668671409533418
693,39.086,38.84,-2.53,0.26589193880310796,0.7832608411956268,0.6204047893368551,0.5239210791247996,0.3992275419876033,0.5686073144332324
694,39.128,38.89,-2.41,0.26825719705260453,0.777347124950328,0.622799786758764,0.5279286554112665,0.4006526576567086,0.5703652217877437
695,39.188,38.95,-2.42,0.2705881778160938,0.7713484693731311,0.6252160976337368,0.5319837452182477,0.40205035637947956,0.5721403240658189
696,39.229,39.0,-2.44,0.272883005217049,0.7652667478910219,0.6276530849889297,0.5360851802444306,0.4034196433960461,0.573932071138359
697,39.333,39.06,-2.42,0.27513983621029287,0.7591038903713311,0.6301100986033128,0.5402317568912512,0.4047595554093956,0.5757399022521736
698,39.354,39.11,-2.29,0.2773568629151295,0.7528618817264926,0.6325864757616945,0.5444222373646419,0.40606916208455474,0.5775632465965189
699,39.396,39.17,-2.35,0.2795323149022007,0.7465427604539547,0.6350815420187851,0.5486553508217299,0.40734756749570483,0.5794015238815179
700,39.454,39.22,-2.32,0.28166446143067075,0.7401486171125917,0.6375946119721216,0.5529297945611479,0.40859391151874475,0.5812541449277326
701,39.516,39.28,-2.17,0.28375161363246465,0.7336815927370945,0.6401249900426671,0.5572442352555004,0.4098073711669082,0.5831205122661254
702,39.558,39.33,-2.25,0.28579212664046544,0.7271438771919557,0.6426719712619005,0.561597310224407,0.41098716186718043,0.5850000207476027
703,39.619,39.39,-2.23,0.28778440165779834,0.7205377074668031,0.6452348420642241,0.5659876287464242,0.412132538675396,0.5868920581613015
704,39.722,39.44,-2.13,0.28972688796555807,0.713865365914987,0.647812881083517,0.5704137734080288,0.4132427974280529,0.5887960058607248
705,39.742,39.5,-2.1,0.2916180848665588,0.7071291784374797,0.6504053599526519,0.574874301487732,0.414317275829029,0.5907112393968001
706,39.782,39.55,-2.14,0.29345654356287215,0.7003315126143268,0.6530115441047765,0.579367746373276,0.41535535446952565,0.5926371291568876
707,39.843,39.61,-2.13,0.2952408689650198,0.6934747757861055,0.6556306935751116,0.5838926190097605,0.41635645777970504,0.5945730410087238
708,39.904,39.66,-1.99,0.2969697214307897,0.6865614130880765,0.6582620638019995,0.5884474093764172,0.4173200549106486,0.5965183369482225
709,39.966,39.72,-2.05,0.29864181843180454,0.6795939054398914,0.6609049064259132,0.5930305879895866,0.4182456605454106,0.5984723757499918
710,40.048,39.77,-2.02,0.300255936146126,0.6725747674938908,0.6635584700851365,0.5976406074292813,0.41913283563807135,0.6004345136193717
711,40.068,39.83,-1.87,0.30181091097528767,0.6655065455452407,0.6662220012067795,0.6022759038865511,0.41998118807984786,0.6024041048447458
712,40.109,39.88,-1.92,0.30330564098426377,0.6583918154073609,0.6688947447917651,0.6069348987287148,0.42079037329150476,0.6043805024488145
713,40.169,39.94,-1.91,0.3047390872630083,0.6512331802563126,0.6715759451923891,0.6116160000793306,0.4215600947415146,0.6063630588374594
714,40.252,39.99,-1.81,0.3061102752083524,0.6440332684479962,0.6742648468810534,0.6163176044095994,0.4222901043896403,0.6083511264447615
715,40.272,40.05,-1.76,0.3074182957252508,0.6367947313121851,0.6769606952088031,0.621038098137708,0.4229802030558523,0.61034405837268
716,40.333,40.1,-1.83,0.3086623063466049,0.6295202409275714,0.6796627371523727,0.6257758592325084,0.42363024071471617,0.6123412090238747
717,40.435,40.16,-1.85,0.3098415322710695,0.6222124878821675,0.6823702220485381,0.6305292588179001,0.4242401167156138,0.614341934726153
718,40.456,40.21,-1.75,0.31095526731842643,0.6148741790235203,0.6850824023146824,0.6352966627743518,0.42480977992938423,0.6163455943470478
719,40.496,40.27,-1.86,0.31200287480231587,0.6075080352031962,0.6877985341546164,0.640076433334076,0.4253392288221547,0.6183515498970744
720,40.556,40.32,-1.89,0.31298378832028345,0.6001167890199195,0.690517878248807,0.6448669306664843,0.42582851145725276,0.6203591671202959
721,40.616,40.38,-1.78,0.3138975124611432,0.5927031825656565,0.6932397004282298,0.649666514450696,0.426277725426174,0.6223678160709141
722,40.678,40.43,-1.86,0.31474362342958445,0.5852699651788716,0.6959632723310887,0.6544735454320542,0.4266870177096437,0.6243768716746874
723,40.718,40.49,-1.91,0.31552176958782674,0.5778198912091186,0.6986878720416411,0.6592863869598011,0.4270565844698585,0.6263857142740545
724,40.799,40.54,-1.85,0.31623167191401125,0.5703557177970434,0.7014127847103719,0.6641034065032839,0.42738667077504494,0.6283937301559266
725,40.819,40.6,-1.81,0.3168731243769762,0.5628802026737524,0.7041373031547582,0.668922977144256,0.4276775702575355,0.6304003120611709
726,40.881,40.65,-1.88,0.31744599422707365,0.5553961019833151,0.7068607284398949,0.6737434790430222,0.42792962470660584,0.6324048596749091
727,40.943,40.71,-1.93,0.3179502222026634,0.5479061681319929,0.7095823704382748,0.6785633008763383,0.42814322359737395,0.6344067800968264
728,40.983,40.76,-1.83,0.3183858226519151,0.5404131476676024,0.7123015483680184,0.6833808412451522,0.4283188035571365,0.6364054882907766
729,41.044,40.82,-1.94,0.3187528835696178,0.532919779192214,0.7150175913089077,0.6881945100504109,0.4284568477705823,0.6384004075130374
730,41.105,40.87,-1.97,0.3190515665488002,0.5254287913111462,0.7177298386956259,0.6930027298352759,0.4285578853253631,0.640390969718662
731,41.167,40.93,-1.92,0.3192821066470606,0.5179429006210128,0.7204376407876736,0.6978039370922087,0.42862249049951934,0.6423766159454624
732,41.208,40.98,-1.96,0.31944481216759923,0.5104648097393514,0.7231403591154923,0.7025965835334963,0.42865128199226604,0.6443567966752501
733,41.269,41.04,-2.02,0.3195400643550637,0.5029972053781284,0.7258373669024006,0.7073791373238767,0.42864492209963484,0.6463309721720403
734,41.33,41.09,-1.99,0.3195683170064211,0.49554275646315726,0.7285280494620033,0.71215008427401,0.42860411583645147,0.6482986127970072
735,41.393,41.15,-1.94,0.31953009599717164,0.48810411230122447,0.7312118045708018,0.7169079289936232,0.4285296100061126,0.6502591993000622
736,41.434,41.2,-2.01,0.31942599872329164,0.4806839007964806,0.7338880428157737,0.7216511960032339,0.4284221922196152,0.652212223087995
737,41.558,41.26,-2.04,0.31925669345931773,0.47328472671747,0.7365561879167256,0.7263784308034691,0.428282689865286,0.6541571864692103
738,41.578,41.31,-1.96,0.31902291863300686,0.4659091700160105,0.7392156770232485,0.7310882009011118,0.4281119690306913,0.6560936028751488
739,41.618,41.37,-2.06,0.3187254820170947,0.45855978419896604,0.7418659609861475,0.7357790967911177,0.42791093337823805,0.6580209970585544
740,41.661,41.42,-2.1,0.31836525983878294,0.4512390947537816,0.7445065046032698,0.74044973289395,0.42768052297599307,0.6599389052688054
741,41.701,41.48,-1.99,0.3179431958076401,0.4439495976285099,0.7471367868396763,0.7450987484477122,0.4274217130852445,0.6618468754046117
742,41.764,41.53,-2.03,0.3174603000625726,0.43669375776696184,0.7497563010220852,0.7497248083547208,0.4271355129063108,0.6637444671444408
743,41.826,41.59,-2.08,0.3169176480384338,0.42947400769954686,0.7523645550074839,0.7543266039823406,0.4268229642840849,0.6656312520551096
744,41.911,41.64,-2.06,0.31631637925276773,0.422292746190297,0.7549610713257804,0.7589028539180717,0.42648514037480767,0.6675068136790281
745,41.93,41.7,-1.98,0.31565769601324956,0.4151523369404356,0.7575453872963971,0.7634523046789821,0.4261231442756069,0.6693707476005988
746,41.972,41.75,-2.04,0.31494286204657446,0.4080551073486425,0.7601170551188007,0.7679737313756243,0.4257381076183684,0.6712226614922971
747,42.032,41.81,-2.07,0.31417320104974206,0.40100334732795523,0.7626756419370492,0.7724659383306018,0.4253311891295483,0.6730621751409763
748,42.094,41.86,-1.94,0.31335009516486195,0.3939993081790651,0.7652207298785164,0.7769277596519988,0.42490357315758714,0.6748889204549636
749,42.155,41.92,-2.03,0.3124749833788231,0.38704520151959587,0.7677519160670392,0.781358059761931,0.4244564681696663,0.6767025414525311
750,42.195,41.97,-2.09,0.3115493598494268,0.38014319826878334,0.7702688126108325,0.7857557338805214,0.4239911052196232,0.678502694232356
751,42.298,42.03,-1.97,0.31057477215982904,0.373295427686819,0.7727710465656317,0.7901197084656305,0.4235087363889033,0.6802890469266127
752,42.318,42.08,-1.98,0.3095528195033704,0.36650397646797933,0.7752582598736256,0.7944489416087087,0.4230106332024896,0.6820612796373768
753,42.359,42.14,-2.05,0.3084851508010557,0.35977088788654077,0.7777301092788566,0.7987424233871844,0.4224980850217787,0.683819084357062
754,42.42,42.19,-2.06,0.307373462754084,0.3530981609943934,0.780186266219832,0.8029991761738551,0.42197239741642306,0.6855621648736357
755,42.482,42.25,-1.98,0.3062194978339937,0.34648774986916897,0.7826264167001592,0.8072182549038158,0.42143489051721506,0.6872902366613632
756,42.525,42.3,-2.06,0.30502504221321497,0.3399415629115601,0.7850502611381103,0.811398747299464,0.4208868973521447,0.6890030267578189
757,42.648,42.36,-2.1,0.30379192363901786,0.3334614621903764,0.7874575141961001,0.8155397740541266,0.4203297621677772,0.6907002736279142
758,42.668,42.41,-1.97,0.3025220092539679,0.327049262833801,0.7898479045911048,0.8196404889748821,0.41976483873811954,0.6923817270156941
759,42.71,42.47,-2.06,0.301217203366098,0.32070673246525455,0.7922211748870779,0.8237000790852145,0.4191934886631647,0.6940471477846608
760,42.75,42.52,-2.12,0.2998794451720937,0.3144355906822359,0.7945770812704279,0.8277177646881975,0.4186170796593278,0.6956963077473874
761,42.812,42.58,-2.04,0.2985107064368667,0.3082375085764677,0.7969153933096291,0.8316927993909788,0.4180369838440121,0.6973289894851915
762,42.895,42.63,-2.03,0.29711298913297884,0.30211410829363966,0.7992358937000443,0.8356244700913882,0.4174545760165685,0.6989449861586392
763,42.915,42.69,-2.1,0.2956883230434451,0.29606696263102217,0.8015383779950391,0.8395120969275397,0.41687123193792713,0.7005441013096617
764,43.017,42.74,-2.12,0.29423876333144233,0.2900975946712403,0.8038226543244343,0.8433550331913786,0.4162883266111914,0.7021261486560681
765,43.038,42.8,-2.0,0.2927663880804532,0.28420747745052555,0.8060885431013233,0.8471526652071796,0.41570723256552167,0.703690951879221
766,43.079,42.85,-2.11,0.29127329580844896,0.2783980336597484,0.8083358767182758,0.8509044121760374,0.41512931814566445,0.7052383444056137
767,43.141,42.91,-2.15,0.28976160295976255,0.27267063537652286,0.8105644992339535,0.854609725987408,0.4145559458094975,0.7067681691830754
768,43.202,42.96,-2.04,0.2882334413782587,0.26702660382671267,0.8127742660511291,0.8582680909988003,0.41398847043597936,0.7082802784523019
769,43.244,43.02,-2.12,0.28669095576530523,0.26146720917375194,0.814965043587058,0.8618790237847785,0.4134282376459131,0.709774533514395
770,43.305,43.07,-2.19,0.28513630112593713,0.2559936703342783,0.8171367089371011,0.8654420728564854,0.4128765821379439,0.7112508044950658
771,43.368,43.13,-2.15,0.2835716402065131,0.250607154818663,0.8192891495324441,0.8689568183529593,0.41233482604220345,0.7127089701061415
772,43.428,43.18,-2.12,0.28199914092711303,0.24530877859508743,0.8214222627927336,0.8724228717055428,0.4118042772940056,0.7141489174049925
773,43.49,43.24,-2.21,0.28042097381185765,0.24009960597588523,0.8235359557744021,0.8758398752767077,0.411286228029964,0.7155705415524882
774,43.532,43.29,-2.26,0.2788393094201611,0.23498064952498393,0.8256301448154162,0.8792075019746408,0.4107819530088608,0.7169737455700845
775,43.594,43.35,-2.18,0.27725631578173693,0.2299528699854087,0.8277047551771131,0.8825254548449681,0.4102927080595611,0.7183584400966311
776,43.634,43.4,-2.29,0.2756741558380703,0.2250171762259191,0.8297597206837679,0.8857934666410098,0.4098197285582288,0.7197245431454729
777,43.759,43.46,-2.35,0.2740949848930155,0.2201744252059334,0.8317949833605083,0.8890112993739638,0.409364227937021,0.7210719798624141
778,43.799,43.51,-2.25,0.27252094807511623,0.21542542195800632,0.8338104930701565,0.8921787438444289,0.40892739622634316,0.7224006822851164
779,43.82,43.57,-2.33,0.2709541778141844,0.21077091958724997,0.8358062071495318,0.8952956191566985,0.4085103986326447,0.7237105891045016
780,43.841,43.62,-2.4,0.26939679133461225,0.20621161928721374,0.8377820900456932,0.8983617722172761,0.4081143741536221,0.7250016454287258
781,43.902,43.68,-2.37,0.2678508881678365,0.2017481703718747,0.839738112952549,0.9013770772190633,0.40774043423259776,0.7262738025502813
782,43.964,43.73,-2.33,0.26631854768636687,0.1973811703234986,0.8416742534482243,0.9043414351126746,0.4073896614537505,0.7275270177167611
783,44.026,43.79,-2.4,0.2648018266618087,0.19311116485622656,0.8435904951335554,0.9072547730662684,0.407063108279772,0.7287612539058175
784,44.107,43.84,-2.43,0.2633027568492826,0.18893864799536886,0.8454868272720628,0.910117043915247,0.40676179583342464,0.7299764796048319
785,44.128,43.9,-2.32,0.26182334260062323,0.1848640621725397,0.8473632444317206,0.9129282256031229,0.4064867127244103,0.7311726685958028
786,44.188,43.95,-2.42,0.26036555850880305,0.18088779833690594,0.8492197461288499,0.9156883206147908,0.40623881392291655,0.7323497997459266
787,44.251,44.01,-2.48,0.25893134708615584,0.17701019608293364,0.851056336474488,0.9183973554033624,0.40601901968115645,0.7335078568043318
788,44.293,44.06,-2.38,0.25752261647909014,0.17323154379514055,0.8528730238236092,0.9210553798116395,0.4058282145041709,0.7346468282054074
789,44.353,44.12,-2.46,0.25614123822206114,0.16955207881047138,0.8546698204275841,0.9236624664892473,0.40566724617110117,0.7357667068791451
790,44.415,44.17,-2.54,0.25478904503359145,0.1659719875990094,0.8564467420902627,0.9262187103063853,0.40553692480805986,0.7368674900688967
791,44.477,44.23,-2.54,0.25346782865707507,0.16249140596382125,0.858203807828047,0.9287242277651541,0.40543802201362766,0.7379491791569198
792,44.518,44.28,-2.49,0.25217933774903045,0.15911041926078268,0.8599410395342997,0.9311791564093821,0.4053712700378902,0.739011779498048
793,44.56,44.34,-2.55,0.25092527581739027,0.15582906263924368,0.8616584616484387,0.933583654233852,0.405337361015776,0.7400553002617976
794,44.621,44.39,-2.61,0.24970729921230064,0.15264732130440056,0.8633561008300155,0.9359378990938056,0.4053369462552995,0.7410797542831911
795,44.682,44.45,-2.49,0.24852701517180234,0.14956513080226289,0.8650339856380397,0.9382420881156035,0.4053706355811726,0.7420851579225451
796,44.723,44.5,-2.59,0.24738597992475472,0.14658237732809865,0.8666921462157741,0.9404964371093982,0.4054389967341405,0.7430715309344219
797,44.869,44.56,-2.64,0.2462856968534158,0.14369889805921365,0.8683306139812491,0.9427011799846124,0.40554255482629087,0.744038896345895
798,44.891,44.61,-2.52,0.24522761471813304,0.1409144815128961,0.8699494213237773,0.9448565681689416,0.4056817918524828,0.7449872803442428
799,44.911,44.67,-2.56,0.24421312594662284,0.13822886793033232,0.8715486013067858,0.9469628700315322,0.4058571462579442,0.7459167121741435
800,44.953,44.72,-2.62,0.24324356499031724,0.135641749687275,0.8731281873773095,0.9490203703109295,0.4060690125619842,0.7468272240444228
801,45.016,44.78,-2.6,0.24232020675023616,0.13315277173222423,0.87468821308249,0.9510293695483796,0.40631774103768853,0.7477188510443663
802,45.076,44.83,-2.54,0.24144426507486205,0.13076153205281024,0.8762287117934372,0.9529901835270626,0.4066036374474071,0.7485916310695728
803,45.138,44.89,-2.6,0.24061689133252578,0.12846758217095242,0.8777497164368403,0.9549031427177718,0.40692696283377194,0.7494456047572777
804,45.199,44.94,-2.63,0.23983917306076885,0.12627042766724497,0.8792512592347355,0.9567685917315284,0.40728793336590385,0.7502808154310417
805,45.22,45.0,-2.53,0.23911213269502335,0.12416952873493914,0.8807333714528308,0.9585868887795804,0.4076867202403873,0.7510973090546664
806,45.282,45.05,-2.6,0.23843672637884758,0.12216430076380808,0.8821960831577897,0.9603584051412314,0.4081234496365314,0.7518951341951596
807,45.344,45.11,-2.65,0.237813842857874,0.12025411495410174,0.8836394229838751,0.9620835246399128,0.40859820272536007,0.7526743419945541
808,45.384,45.16,-2.52,0.23724430245954092,0.11843829896071234,0.8850634179093714,0.9637626431278886,0.40911101573170094,0.7534349861503561
809,45.486,45.22,-2.54,0.23672885616058817,0.11671613756758545,0.8864680930431917,0.9653961679799697,0.40966188004866744,0.7541771229043971
810,45.507,45.27,-2.59,0.2362681847441665,0.11508687339233332,0.8878534714220856,0.9669845175965718,0.41025074240375903,0.7549008110398521
811,45.608,45.33,-2.58,0.23586289804824181,0.11354970762094058,0.8892195738188428,0.9685281209164588,0.4108775050757634,0.7556061118861834
812,45.628,45.38,-2.5,0.23551353430684394,0.11210380077236683,0.8905664185618843,0.9700274169394959,0.4115420261616311,0.7562930893317433
813,45.668,45.44,-2.56,0.235220559585653,0.11074827349270913,0.8918940213666608,0.971482854259667,0.41224411989246945,0.7569618098437544
814,45.73,45.49,-2.6,0.2349843673133557,0.10948220737844236,0.8932023951792933,0.9728948906085587,0.41298355699775124,0.7576123424953782
815,45.791,45.55,-2.47,0.2348052779100911,0.10830464582814062,0.8944915500328915,0.974263992409442,0.4137600651167938,0.7582447589995867
816,45.832,45.6,-2.54,0.23468353851417997,0.1072145949219791,0.8957614929169709,0.9755906343420399,0.41457332925651885,0.758859133749538
817,45.935,45.66,-2.58,0.2346193228082042,0.10621102432821042,0.8970122276603772,0.9768752989180138,0.415422992294458,0.7594555438651621
818,45.956,45.71,-2.46,0.2346127309453599,0.10529286823570118,0.8982437548281214,0.978118476067137,0.4163086555259272,0.7600340692456491
819,45.998,45.77,-2.45,0.23466378957686845,0.10445902631150468,0.8994560716325114,0.9793206627340834,0.417229879254258,0.7605947926275309
820,46.079,45.82,-2.51,0.23477245198106583,0.10370836468234532,0.9006491718589497,0.9804823624856991,0.4181861834229472,0.7611377996480345
821,46.099,45.88,-2.5,0.23493859829459607,0.10303971693882025,0.9018230458067231,0.9816040851285973,0.4191770482885783,0.7616631789133735
822,46.16,45.93,-2.4,0.23516203584597845,0.10245188516104764,0.9029776802450796,0.9826863463368954,0.4202019151333803,0.7621710220716107
823,46.222,45.99,-2.46,0.23544249959173527,0.10194364096437313,0.9041130583848631,0.9837296672898601,0.42126018701629925,0.762661423889696
824,46.304,46.04,-2.49,0.23577965265517006,0.10151372656362265,0.9052291598659733,0.9847345743191784,0.4223512295614481,0.7631344823342673
825,46.324,46.1,-2.36,0.2361730869677156,0.10116085585431812,0.9063259607608749,0.9857015985655369,0.423474371782786,0.7635902986557795
826,46.385,46.15,-2.41,0.23662232401255723,0.10088371550922265,0.9074034335943417,0.9866312756441676,0.42462890694387756,0.7640289774755114
827,46.426,46.21,-2.45,0.237126815670011,0.10068096608854486,0.9084615473795831,0.9875241453189799,0.42581409345157784,0.7644506268749572
828,46.489,46.26,-2.35,0.23768594516391245,0.10055124316209184,0.909500267670865,0.9883807511848711,0.42702915578249123,0.7648553584870849
829,46.549,46.32,-2.31,0.2382990281080757,0.10049315844160661,0.9105195566327078,0.9892016403577681,0.4282732854410745,0.765243287588893
830,46.611,46.37,-2.37,0.23896531365168347,0.10050530092149132,0.9115193731257201,0.9899873631719195,0.4295456419482639,0.765614533194667
831,46.673,46.43,-2.37,0.23968398572222901,0.10058623802611971,0.9124996728090785,0.9907384728839408,0.43084535385953465,0.7659692181493041
832,46.734,46.48,-2.26,0.2404541643644318,0.10073451676195276,0.9134604082596239,0.991455525383104,0.4321715198113445,0.7663074692210562
833,46.797,46.54,-2.34,0.24127490717343075,0.10094866487264262,0.9144015291075394,0.9921390789073277,0.43352320959495494,0.766629417193017
834,46.818,46.59,-2.37,0.2421452108204579,0.10122719199529188,0.9153229821885659,0.9927896937642849,0.4348994652566392,0.7669351969526893
835,46.879,46.65,-2.25,0.24306401266901023,0.10156859081608482,0.9162247117126778,0.9934079320570562,0.436299302223295,0.7672249475789724
836,46.94,46.7,-2.33,0.24403019247931337,0.10197133822361666,0.9171066594490803,0.9939943574137786,0.4377217104524814,0.7674988124259241
837,47.043,46.76,-2.4,0.24504257419864903,0.10243389645837103,0.9179687649273256,0.9945495347207742,0.43916565560588994,0.7677569392026545
838,47.065,46.81,-2.31,0.24609992783494183,0.1029547142569037,0.9188109656542895,0.995074029858686,0.4406300802452409,0.7679994800487223
839,47.107,46.87,-2.27,0.2472009714108646,0.10353222798936751,0.9196331973466864,0.9955684094411923,0.4421139050495604,0.7682265916044163
840,47.148,46.92,-2.33,0.24834437299556295,0.1041648627890694,0.9204353941787646,0.9960332405559145,0.4436160300527297,0.7684384350753346
841,47.211,46.98,-2.39,0.2495287528108694,0.1048510336728344,0.9212174890447403,0.9964690905071873,0.44513533590014726,0.7686351762907055
842,47.273,47.03,-2.27,0.2507526854086493,0.10558914665104432,0.9219794138354552,0.9968765265604312,0.446670685123317,0.7688169857549209
843,47.335,47.09,-2.35,0.2520147019157675,0.10637759982628428,0.9227210997286943,0.9972561156879138,0.4482209234311529,0.768984038691773
844,47.417,47.14,-2.37,0.2533132923430461,0.10721478447958936,0.923442477492548,0.9976084243157329,0.4497848810167374,0.7691365150809427
845,47.437,47.2,-2.23,0.2546469079544323,0.10809908614338273,0.9241434778011465,0.9979340180719337,0.4513613738782109,0.7692745996863303
846,47.479,47.25,-2.31,0.25601396369243384,0.10902888566031059,0.9248240315620313,0.9982334615357503,0.4529492051524194,0.7693984820758727
847,47.54,47.31,-2.37,0.2574128406557461,0.11000256022729045,0.9254840702543706,0.9985073179880426,0.4545471664599209,0.7695083566325268
848,47.602,47.36,-2.32,0.2588418886248781,0.11101848442418888,0.9261235262771982,0.9987561491630514,0.4561540392599374,0.7696044225561233
849,47.644,47.42,-2.27,0.26029942863152095,0.11207503122661924,0.926742333306853,0.9989805150016143,0.4577685962138185,0.7696868838558175
850,47.706,47.47,-2.32,0.26178375556731126,0.11317057300240724,0.9273404266628275,0.9991809734059968,0.4593896025555356,0.7697559493329039
851,47.787,47.53,-2.34,0.2632931408274735,0.11430348249136105,0.9279177436812116,0.9993580799965076,0.46101581746765474,0.7698118325537898
852,47.806,47.58,-2.21,0.2648258349846258,0.11547213376809404,0.9284742240948654,0.999512387870124,0.46264599546119684,0.7698547518129606
853,47.867,47.64,-2.28,0.2663800704879265,0.11667490318772963,0.9290098104194164,0.9996444473613889,0.4642788877577706,0.7698849300857882
854,47.908,47.69,-2.3,0.26795406438270225,0.11791017031438512,0.9295244483441455,0.9997548058058785,0.4659132436723501,0.7699025949710739
855,47.969,47.75,-2.15,0.2695460210456778,0.11917631883241148,0.9300180871267945,0.9998440073065786,0.46754781199506684,0.7699079786232603
856,48.031,47.8,-2.2,0.27115413493092577,0.1204717374404494,0.9304906799913185,0.9999125925035608,0.4691813423704009,0.7699013176742873
857,48.154,47.86,-2.26,0.2727765933216535,0.12179482072845006,0.930942184527603,0.99996109834737,0.4708125866721783,0.7698828531451173
858,48.175,47.91,-2.21,0.2744115790829449,0.12314397003788369,0.9313725630921633,0.9999900578765812,0.47244030037281204,0.7698528303469898
859,48.196,47.97,-2.15,0.2760572734106191,0.12451759430541584,0.9317817832088559,1.0,0.4740632439052558,0.7698114987725094
860,48.258,48.02,-2.22,0.2777118585714156,0.1259141108903568,0.932169817968623,0.9999914492840226,0.4756801840161369,0.7697591119767051
861,48.3,48.08,-2.23,0.27937352062970383,0.12733194638623335,0.932536646427266,0.9999649257457063,0.4772898951085098,0.7696959274482551
862,48.362,48.13,-2.1,0.28104045215586787,0.12876953741689362,0.9328822540001965,0.9999209446521632,0.47889116057265274,0.769622206471101
863,48.423,48.19,-2.17,0.28271085491152526,0.13022533141758794,0.9332066328531016,0.9998600163268924,0.48048277410332235,0.7695382139766999
864,48.504,48.24,-2.19,0.2843829425067913,0.13169778740146842,0.9335097822874711,0.9997826459636416,0.482063541001867,0.7694442183871857
865,48.524,48.3,-2.04,0.2860549430248661,0.1331853767119481,0.9337917091199462,0.9996893334483277,0.4836322794616068,0.76934049144974
866,48.586,48.35,-2.08,0.28772510160930437,0.13468658376135872,0.93405242805446,0.9995805731895011,0.4851878218349099,0.7692273080624865
867,48.647,48.41,-2.13,0.28939168300941587,0.13619990675635546,0.9342919620461576,0.9994568539577962,0.48672901588042816,0.7691049460922461
868,48.709,48.46,-2.08,0.2910529740793575,0.13772385841052517,0.9345103426560981,0.9993186587347711,0.48825472598900926,0.768973686184504
869,48.75,48.52,-2.01,0.29270728622667896,0.13925696664461293,0.9347076103957682,0.99916646457152,0.4897638343868582,0.7688338115659374
870,48.813,48.57,-2.06,0.29435295780634796,0.14079777527469292,0.934883815060496,0.9990007424573625,0.4912552423145597,0.7686856078398709
871,48.874,48.63,-2.09,0.2959883564564725,0.1423448446885346,0.9350390160509047,0.9988219571988411,0.49272787118059047,0.7685293627750361
872,48.915,48.68,-1.96,0.29761188137205963,0.1438967525103906,0.9351732826815793,0.9986305673092069,0.4941806636879692,0.7683653660880346
873,48.978,48.74,-2.04,0.29922196551328467,0.14545209425440975,0.9352866944761682,0.9984270249084981,0.4956125849327305,0.7681939092198958
874,49.04,48.79,-2.07,0.3008170777448992,0.1470094839668423,0.9353793414481765,0.9982117756342763,0.49702262347292303,0.7680152851071305
