,Time_Host,Time_Arduino,easingdata,CH1_Oxy,CH1_Deoxy,CH2_Oxy,CH2_Deoxy,CH3_Oxy,CH3_Deoxy
0,1.213,0.04,0.0,0.019129216540379346,0.12458591082649197,0.06941123266458106,0.03264592985703979,0.0,0.3322359161281531
1,1.233,0.1,0.0,0.019985903477899938,0.12329410328722497,0.06846884015729855,0.03249532472856906,0.0030389538405383577,0.325955978229364
2,1.253,0.15,0.0,0.020823998995947952,0.12200206397027948,0.06752187457871223,0.032339383100702966,0.006041624715608529,0.3196981419483419
3,1.273,0.21,0.0,0.021643052702541035,0.12071018366774633,0.06657066056260581,0.03217811074173351,0.009006734606483099,0.31346458017762613
4,1.294,0.26,0.0,0.022442629135119116,0.11941885155934746,0.06561552575809441,0.03201151741561539,0.011933038043414718,0.3072574393432042
5,1.315,0.32,0.0,0.023222308204801565,0.11812845496185376,0.06465680056687416,0.03183961690461306,0.014819323270141913,0.301078837714375
6,1.335,1.06,0.0,0.023981685622209786,0.11683937908378661,0.06369481787972786,0.031662427026784054,0.01766441336202082,0.2949308637659671
7,1.355,1.11,0.0,0.024720373304513918,0.11555200678539782,0.06272991281276392,0.03147996964823103,0.0204671672968325,0.28881557459423507
8,1.375,1.17,0.0,0.025437999763404707,0.11426671834390348,0.0617624224438663,0.031292270690068395,0.023226480977432726,0.2827349943876091
9,1.457,1.22,0.0,0.026134210473733224,0.11298389122392974,0.06079268554983522,0.031099360130063335,0.025941288205526495,0.27669111295332804
10,1.497,1.28,-0.18,0.026808668222601577,0.11170389985311228,0.059821042344701016,0.03090127199892429,0.02861056160595976,0.2706858843008507
11,1.559,1.33,-0.05,0.027461053438723865,0.11042711540278137,0.05884783421969483,0.030698044371224156,0.03123331350102091,0.2647212252828213
12,1.6,1.39,0.05,0.028091064501901943,0.10915390557366818,0.05787340348535033,0.030489719350960433,0.033808596734320746,0.2587990142942829
13,1.662,1.44,-0.24,0.0286984180324713,0.1078846343865939,0.056898093116177224,0.03027634305177833,0.036335505443876155,0.2529210900307817
14,1.722,1.5,-0.19,0.029282849160578613,0.1066196619781439,0.055922246498288704,0.030057965571917318,0.03881317578408388,0.24708925030596698
15,1.825,1.55,-0.0,0.029844111775168325,0.10535934440136502,0.05494620718030668,0.029834640963977792,0.0412407865963422,0.24130525092922295
16,1.847,1.61,-0.21,0.030381978752579742,0.10410403343155013,0.0539703186278301,0.02960642719962996,0.04361756002813337,0.23557080464379446
17,1.886,1.66,-0.32,0.030896242164674806,0.10285407637720007,0.052994923981720135,0.0293733861294025,0.04594276210041629,0.22988758012578567
18,1.948,1.72,-0.12,0.031386713466424916,0.10160981589627598,0.05202036582041825,0.029135583437698818,0.04821570322321963,0.22425720104429708
19,2.009,1.77,-0.11,0.031853223662889014,0.10037158981786068,0.05104698592648052,0.028893088593189543,0.050435738659367214,0.21868124518282514
20,2.05,1.83,-0.33,0.032295623455515725,0.09913973096933423,0.050075125057486986,0.028645974794721047,0.05260226893629637,0.2131612436219131
21,2.114,1.88,-0.18,0.0327137833677061,0.0979145670091404,0.04910512272145881,0.028394318912871832,0.0547147402059658,0.2076986799829196
22,2.196,1.94,-0.01,0.03310759384959747,0.09669642026517618,0.04813731695689279,0.02813820142728543,0.056772644552909056,0.20229498973265983
23,2.217,1.99,-0.27,0.033476965362074,0.09548560757878431,0.047172044117507236,0.027877706359909757,0.05877552025055459,0.19695155954859164
24,2.26,2.05,-0.28,0.0338218284400609,0.09428244015429896,0.04620963866177035,0.027612921204283998,0.06072295196599973,0.1916697267441671
25,2.322,2.1,-0.06,0.03414213373521034,0.09308722341409072,0.045250432947250084,0.027343936851034627,0.06261457091350361,0.18645077875392052
26,2.384,2.16,-0.18,0.03443785203813566,0.09190025685907023,0.04429475702980324,0.02707084750975754,0.06445005495703325,0.18129595267780665
27,2.425,2.21,-0.35,0.03470897428038938,0.09072183393462845,0.043342938467618206,0.026793750627467285,0.06622912866224112,0.17620643488424872
28,2.486,2.27,-0.19,0.03495551151640495,0.08955224190201179,0.04239530213013431,0.02651274680379038,0.06795156329829277,0.17118336067127818
29,2.568,2.32,-0.12,0.035177494885637005,0.08839176171513304,0.04145217001187985,0.026227939703069962,0.0696171767900048,0.16622781398504982
30,2.589,2.38,-0.43,0.03537497555513959,0.0872406679028098,0.04051386105128476,0.025939435963538,0.07122583362077907,0.1613408271949334
31,2.651,2.43,-0.32,0.035548024642813696,0.086099228456419,0.03958069095451196,0.02564734510371063,0.07277744468683353,0.15652338092432966
32,2.714,2.49,-0.13,0.035696733121545976,0.08496770472296648,0.03865297202431944,0.025351779426172456,0.07427196710324432,0.15177640393632277
33,2.776,2.54,-0.3,0.035821211704452925,0.08384635130358115,0.03773101299393326,0.02505285391892576,0.07570940396231793,0.14710077307325742
34,2.816,2.6,-0.31,0.03592159071143925,0.08273541595745965,0.03681511886588085,0.024750686154488458,0.07708980404481122,0.14249731324930826
35,2.878,2.65,-0.06,0.03599801991727761,0.08163513951130054,0.03590559075570426,0.024445396186930302,0.07841326148454551,0.13796679749505178
36,2.939,2.71,-0.11,0.03605066838142548,0.08054575577426759,0.03500272574045729,0.024137106447033384,0.07967991538701912,0.13350994705295138
37,2.98,2.76,-0.3,0.03607972425980913,0.07946749145851006,0.0341068167118894,0.023825941635750306,0.0808899494026939,0.12912743152255987
38,3.063,2.82,-0.14,0.03608539459882292,0.07840056610524414,0.03321815223422391,0.02351202861611867,0.08204359125571548,0.12481986905414431
39,3.104,2.87,-0.01,0.03606790511182133,0.07734519201636296,0.03233701640645163,0.02319549630377756,0.08314111222891599,0.12058782658935902
40,3.165,2.93,-0.3,0.03602749993841524,0.07630157419150332,0.031463688729078745,0.022876475556222253,0.08418282660601124,0.11643182014756723
41,3.206,2.98,-0.27,0.035964441386914334,0.0752699102704772,0.0305984439752719,0.022555099060937348,0.08516909107194695,0.11235231515643292
42,3.309,3.04,-0.09,0.03587900966028514,0.07425039048097713,0.029741552066331986,0.022231501222563732,0.0861003040723889,0.10834972682543621
43,3.329,3.09,-0.28,0.03577150256601917,0.07324319759147666,0.028893277951417405,0.021905818049269478,0.08697690513337265,0.10442442056099503
44,3.371,3.15,-0.39,0.03564223521031553,0.07224850686927037,0.02805388149142348,0.02157818703850463,0.08779937414212317,0.10057671242190189
45,3.412,3.2,-0.2,0.03549153967697291,0.07126648604362686,0.027223617346899907,0.021248747062327086,0.08856823059004407,0.09680686961377966
46,3.473,3.26,-0.14,0.03531976469136791,0.07029729527404183,0.026402734869867994,0.020917638252483817,0.08928403277886708,0.09311511102122029
47,3.535,3.31,-0.35,0.035127275269877814,0.06934108712357097,0.02559147799939122,0.020585001885417904,0.08994737699093683,0.08950160777622508
48,3.597,3.37,-0.18,0.03491445235509514,0.06839800653719762,0.024790085160748227,0.02025098026735732,0.09055889662460684,0.08596648386152839
49,3.66,3.42,0.02,0.0346816924371903,0.06746819082515507,0.02399878916806776,0.01991571661962511,0.09111926129575898,0.08250981674735351
50,3.699,3.48,-0.21,0.03442940716180675,0.06655176965108466,0.02321781713032052,0.019579354964287553,0.09162917590651416,0.07913163806014008
51,3.761,3.53,-0.23,0.03415802292490391,0.06564886502490004,0.02244739036060563,0.019242040010234426,0.09208937968226984,0.07583193428179441
52,3.822,3.59,0.02,0.033867980454994,0.06475959130024234,0.021687724288701055,0.018903917039774495,0.09250064517828624,0.07261064747801964
53,3.882,3.64,-0.11,0.033559734383252514,0.06388405517642992,0.02093902837687361,0.018565131795822108,0.09286377725712389,0.06946767605427495
54,3.924,3.7,-0.27,0.03323375280201275,0.063022355704818,0.020201506038970026,0.018225830369741045,0.09317961203828541,0.06640287553790782
55,3.965,3.75,-0.13,0.03289051681217939,0.06217458429948473,0.01947535456282892,0.017886159089899746,0.09344901582145503,0.0634160593849879
56,4.028,3.81,-0.06,0.03253052006011186,0.06134082475215071,0.018760765036069414,0.017546264410980134,0.0936728839847619,0.06050699981035184
57,4.088,3.86,-0.34,0.032154268264531743,0.060521153251224154,0.018057922275319698,0.01720629280407404,0.0938521398595045,0.05767542863937942
58,4.15,3.92,-0.27,0.031762278733995834,0.05971563840486742,0.017367004758936298,0.016866390647605912,0.09398773358276674,0.05492103818007494
59,4.192,3.97,-0.08,0.031355079875458804,0.05892434126799448,0.01668818456323629,0.016526704119137817,0.09408064092935339,0.052243482114089274
60,4.254,4.03,-0.28,0.03093321069443428,0.058147315373125785,0.016021627302238304,0.016187379088130092,0.09413186212445922,0.04964237640537911
61,4.335,4.08,-0.31,0.030497220287250538,0.05738460676504132,0.015367492070884368,0.015848561009745556,0.09414242063846685,0.04711730022524792
62,4.397,4.14,-0.07,0.030047667325888355,0.0566362540391834,0.014725931391692577,0.015510394819794236,0.09411336196526762,0.044667796892518846
63,4.417,4.19,-0.11,0.029585119535888552,0.05590228838375993,0.01409709116478696,0.015173024830912112,0.09404575238551921,0.042293374827551994
64,4.478,4.25,-0.29,0.029110153167821423,0.05518273362548988,0.013481110621264787,0.014836594630050555,0.0939406777162804,0.03999350851877183
65,4.539,4.3,-0.16,0.028623352462821994,0.05447760627891682,0.012878122279882399,0.01450124697733444,0.09379924204850545,0.03776763950032686
66,4.579,4.36,-0.01,0.028125309112720053,0.053786915599192756,0.012288251907067298,0.014167123706330463,0.09362256647393696,0.03561517733947838
67,4.62,4.41,-0.31,0.027616621715324485,0.05311066363821421,0.011711618480295491,0.01383436562575626,0.09341178780297799,0.033535500632335326
68,4.683,4.47,-0.29,0.02709789522544432,0.05244884530399997,0.011148334154891984,0.013503112422661919,0.09316805727515076,0.031527958006617715
69,4.764,4.52,-0.12,0.026569740402243466,0.05180144842323361,0.010598504234318117,0.013173502567128029,0.09289253926377473,0.029591869130201245
70,4.785,4.58,-0.31,0.02603277325353502,0.05116845380694007,0.010062227144015518,0.012845673218536406,0.09258640997650096,0.027726525724262645
71,4.846,4.63,-0.44,0.02548761447761709,0.050549835319314895,0.00953959440887856,0.01251976013347718,0.09225085615331569,0.02593119257990695
72,4.908,4.69,-0.27,0.024934888903233473,0.04994555994976684,0.009030690634419266,0.012195897575360142,0.09188707376359222,0.02420510857719384
73,4.99,4.74,-0.21,0.024375224928217108,0.04935558788825041,0.008535593491682515,0.011874218225793761,0.0914962667037368,0.022547487705485834
74,5.011,4.8,-0.46,0.023809253957343287,0.0487798726039546,0.008054373705969127,0.01155485309778397,0.09107964549693155,0.02095752008404651
75,5.073,4.85,-0.35,0.023237609839889328,0.0482183609273928,0.007587095049415346,0.011237931450797453,0.0906384259964457,0.019434372981825453
76,5.133,4.91,-0.16,0.022660928307381804,0.047670993135908904,0.007133814337464203,0.010923580707735681,0.09017382809398267,0.01797719183537569
77,5.196,4.96,-0.39,0.022079846412016418,0.047137703042585,0.006694581429253545,0.010611926373871847,0.08968707443453415,0.016585101263878972
78,5.258,5.02,-0.41,0.021495001966249164,0.04661841808852582,0.006269439231931542,0.010303091957814932,0.08917938913921436,0.015257206080309829
79,5.279,5.07,-0.19,0.020907032984077277,0.04611305943850217,0.00585842370889466,0.009997198894580022,0.0886519965375653,0.0139925922978199
80,5.342,5.13,-0.31,0.020316577124556152,0.04562154207994037,0.00546156389194624,0.009694366470848587,0.08810611991084277,0.01279032813046001
81,5.404,5.18,-0.54,0.019724271138127795,0.04514377492523345,0.0050788818973939,0.009394711752492709,0.08754298024780072,0.011649464987387566
82,5.487,5.24,-0.41,0.019130750316360568,0.04467966091732689,0.004710392946125982,0.009098349514421974,0.08696379501449636,0.01056903845972484
83,5.507,5.29,-0.33,0.01853664794571563,0.04422909713850072,0.004356105387728108,0.008805392172794692,0.0863697769396324,0.009548069299247458
84,5.57,5.35,-0.61,0.017942594765956416,0.04379197492224547,0.004016020728715338,0.008515949719621304,0.08576213281691301,0.00858556438812906
85,5.632,5.4,-0.56,0.017349218433800783,0.04336817996813057,0.0036901336649486755,0.008230129659787144,0.08514206232582466,0.007680517699051494
86,5.694,5.46,-0.39,0.016757142992393424,0.042957592459583194,0.0033784321182795613,0.007948036950535564,0.08451075687219611,0.006831911245071363
87,5.756,5.51,-0.61,0.016166988347155836,0.04256008718452094,0.0030808972774415675,0.007669773943467973,0.08386939844983585,0.006038716018703583
88,5.777,5.57,-0.67,0.015579369748550764,0.042175533658805255,0.002797503643186185,0.007395440329129085,0.08321915852448601,0.005299892919737662
89,5.879,5.62,-0.46,0.014994897282278088,0.04180379625249806,0.0025282190776414037,0.007125133084251545,0.08256119694128382,0.004614393671322307
90,5.899,5.68,-0.52,0.01441417536740467,0.041444734318898994,0.0022730048578689785,0.006858946421728148,0.08189666085688509,0.003981161723840026
91,5.941,5.73,-0.72,0.013837802262920163,0.041098202326320894,0.002031815733606263,0.0065969717433633284,0.0812266836973668,0.003399133146071822
92,6.003,5.79,-0.59,0.013266369583204006,0.04076404999253313,0.001804599989189518,0.006339297595438703,0.08055238414299863,0.002867237503134793
93,6.064,5.84,-0.48,0.01270046182289372,0.04044212242176695,0.0015912995096712427,0.006086009627112773,0.07987486514095858,0.0023843987206735324
94,6.125,5.9,-0.77,0.012140655891654953,0.04013226024414475,0.001391849851165427,0.005837190551663507,0.07919521294704135,0.001949535934825573
95,6.166,5.95,-0.75,0.0115875206593588,0.03983429975738715,0.0012061803154633944,0.00559292011058218,0.07851449619737123,0.00156156432755698
96,6.268,6.01,-0.57,0.01104161651216783,0.03954807307066996,0.0010342140289562043,0.005353275040537036,0.07783376501109539,0.0012193959470425601
97,6.289,6.06,-0.77,0.010503494920017058,0.039273408250537135,0.0008758680258919219,0.005118329043235069,0.07715405012498439,0.0009219405128324778
98,6.329,6.12,-0.88,0.009973698015938604,0.03901012946882142,0.0007310533359850452,0.004888152758213869,0.07647636206079798,0.0006681062056043786
99,6.393,6.17,-0.71,0.009452758187619053,0.038758057152573085,0.0005996750763772338,0.0046628137385960125,0.07580169032620612,0.00045680044132700726
100,6.453,6.23,-0.68,0.008941197681513535,0.03851700813602636,0.00048163254793511667,0.00444237642982919,0.07513100264999267,0.00028693062964966104
101,6.494,6.28,-0.94,0.008439528219776919,0.038286795814637495,0.0003768193358641411,0.004226902151419143,0.07446524425219922,0.0001574049163124963
102,6.598,6.34,-0.89,0.007948250630219075,0.038067230301213346,0.0002851234146033918,0.00401644908165095,0.0738053371498053,6.713290935002812e-05
103,6.618,6.39,-0.71,0.007467854489458868,0.03785811858411182,0.00020642725694682302,0.0038110722452929613,0.07315217949849535,1.5026388843678313e-05
104,6.66,6.45,-0.95,0.006998817779443845,0.037659264687440956,0.00014060794731920393,0.0036108235042818385,0.07250664497100641,0.0
105,6.723,6.5,-0.99,0.006541606557505168,0.03747046983313782,8.75372991139254e-05,0.003415751551397811,0.07186958217247667,2.097192939802059e-05
106,6.785,6.56,-0.78,0.006096674640123854,0.03729153260478462,4.7081975975244326e-05,0.003225901906952309,0.07124181409314953,7.686456431411956e-05
107,6.826,6.61,-0.91,0.005664463300593265,0.03712224911300564,1.9103616897444918e-05,0.003041316918513701,0.07062413759872915,0.0001666051350721179
108,6.909,6.67,-1.06,0.005245400980771723,0.036962413162271494,3.4589650189115135e-06,0.002862035763685375,0.07001732295862234,0.0002891263403860801
109,6.97,6.72,-0.94,0.004839903017123322,0.03681181641891261,0.0,0.002688094455930946,0.06942211341224425,0.0004433669556620938
110,6.99,6.78,-0.84,0.004448371381243236,0.036670248580111704,8.574073888163172e-06,0.0025195258534188004,0.06883922477351373,0.0006282724242140471
111,7.071,6.83,-1.12,0.0040711944350466855,0.036537497543620796,2.9024050386469257e-05,0.002356359670838587,0.06826934507359955,0.0008427954313571961
112,7.092,6.89,-1.05,0.00370874670076561,0.03641334957795052,6.118844743577059e-05,0.002198622494136866,0.06771313424191062,0.0010858964613729804
113,7.153,6.94,-0.89,0.0033613886458546053,0.036297589492803095,0.00010490158299895723,0.0020463377981276977,0.06717122382526836,0.0013565443373659517
114,7.215,7.0,-1.09,0.0030294664828686988,0.03619000080954852,0.0001599937239109943,0.0018995259669459565,0.06664421674513843,0.0016537167440556625
115,7.278,7.05,-1.16,0.0027133119843357183,0.036090365931573096,0.00022629123763035592,0.0017582043173218734,0.06613268709272609,0.0019764007335653644
116,7.339,7.11,-0.94,0.0024132423126058114,0.035998466314355985,0.0003036167466972239,0.0016223871246620015,0.0656371799616715,0.0023235932142599337
117,7.402,7.16,-0.97,0.0021295598646229397,0.03591408263514208,0.0003917892856859248,0.001492085651915801,0.06515821131801997,0.0026943014226466955
118,7.443,7.22,-1.16,0.001862552131529914,0.03583699496207497,0.000490624460437543,0.0013673081811879562,0.06469626790708025,0.003087543378308485
119,7.505,7.27,-1.02,0.0016124915729975684,0.0357669829226295,0.0005999346093612968,0.0012480600480352729,0.06425180719673912,0.0035023483217987176
120,7.546,7.33,-0.88,0.00137963550616973,0.035703825871139794,0.0007195289666028713,0.0011343436783687144,0.06382525735677559,0.003937757135402447
121,7.608,7.38,-1.16,0.0011642260091318528,0.035647303055174065,0.0008492138268947758,0.0010261586278675638,0.06341701727368788,0.0043928227466825415
122,7.65,7.44,-1.14,0.0009664898388248447,0.03559719378049149,0.0009887927119105796,0.0009235016238115745,0.0630274566005098,0.004866610514783608
123,7.712,7.49,-0.94,0.000786638363331839,0.035553277574333915,0.00113806653794037,0.0008263666092466086,0.06265691584106127,0.005358198599521214
124,7.754,7.55,-1.13,0.0006248675084654875,0.0355153343468418,0.0012968337847005062,0.0007347447894088308,0.06230570646803313,0.00586667831333253
125,7.817,7.6,-1.23,0.0004813577185690704,0.035483144550430626,0.0014648906650850928,0.0006486246803384426,0.06197411107424104,0.006391154456209829
126,7.878,7.66,-1.05,0.0003562739314152968,0.035456489337011676,0.001642031295652141,0.0005679921596161797,0.061662383556314655,0.006930745633756786
127,7.939,7.71,-1.01,0.0002497655670500047,0.03543515071297067,0.0018280478676272458,0.0004928305191495072,0.06137074933002524,0.0074845845584922775
128,8.002,7.77,-1.24,0.00016196653038640668,0.035418911691826316,0.0020227308182043597,0.0004231205199208841,0.06109940557638646,0.008051818334502
129,8.084,7.82,-1.11,9.299522731255571e-05,0.035407556444487356,0.002225869001913498,0.0003588404485994329,0.06084852151760431,0.008631608725512763
130,8.106,7.88,-0.91,4.295459404423843e-05,0.035400870447011616,0.0024372498618120664,0.0002999661759134938,0.06061823872191657,0.009223132406438656
131,8.145,7.93,-1.13,1.193213944113913e-05,0.03539864062575184,0.002656659600250705,0.00024647121668096804,0.060408671436330226,0.00982558119844506
132,8.207,7.99,-1.14,0.0,0.035400655499769666,0.002883883348959001,0.00019832679139847662,0.0602199069462363,0.010438162287598082
133,8.248,8.04,-0.89,7.215007244374172e-06,0.03540670532041042,0.0031187053381918064,0.0001555018892978015,0.060052005960873935,0.011060098427180812
134,8.31,8.1,-1.01,3.3618767247746993e-05,0.0354165822079398,0.00336090906468829,0.00011796333277764186,0.05990500302361464,0.011690628123759792
135,8.392,8.15,-1.15,7.923775204702618e-05,0.03543008028514227,0.0036102774582218193,8.567584310705365e-05,0.059778906946027194,0.012329005807088539
136,8.453,8.21,-0.98,0.00014408340271660695,0.035446995807774904,0.0038665930465470724,5.860210728051973e-05,0.05967370126467482,0.012974501983932742
137,8.475,8.26,-0.87,0.0002281522438772173,0.03546712729176036,0.00412963811858029,3.67028458872679e-05,0.059589344719591764,0.013626403375896195
138,8.536,8.32,-1.13,0.0003314260094058866,0.03549027563699814,0.004399194885677397,1.9936881842868354e-05,0.05952577175336655,0.014284013041352574
139,8.597,8.37,-1.03,0.00045387177909287475,0.03551624424768919,0.004675045640885982,8.261209830706061e-06,0.0594828930297381,0.01494665048164699
140,8.639,8.43,-0.84,0.0005954421259714206,0.03554483914909656,0.004956972916043932,1.6310663142924154e-06,0.05946059597060173,0.01561365173179229
141,8.699,8.48,-1.03,0.0007560752740340272,0.03557586910069069,0.005244759636589028,0.0,0.05945874531031119,0.0162843694359382
142,8.761,8.54,-1.07,0.0009356952660388487,0.03560914570565085,0.005538189273927574,3.3199426482719906e-06,0.05947718366614162,0.016958172907928858
143,8.842,8.59,-0.83,0.0011342121410962604,0.035644483516714114,0.005837045995191117,1.1541280146720665e-05,0.059515732123765965,0.01763444817725968
144,8.863,8.65,-0.88,0.0013515221217133536,0.03568170013836968,0.00614111481020789,2.461292376040091e-05,0.05957419083659253,0.018312598020705693
145,8.925,8.7,-1.05,0.001587507809964226,0.03572061632538654,0.006450181715531474,4.248238146314931e-05,0.05965233963780139,0.018992041979848866
146,8.965,8.76,-0.88,0.0018420383924547088,0.03576105607763516,0.0067640338353861604,6.509582924030075e-05,0.05974993866391932,0.019672216364697688
147,9.027,8.81,-0.71,0.0021149698537683134,0.03580284673112203,0.007082459559406937,9.239818224374466e-05,0.059866728988787817,0.020352574243578232
148,9.09,8.87,-0.97,0.00240614519810592,0.03584581904511879,0.007405248677071454,0.00012433316567644608,0.06000243326678803,0.021032585419507966
149,9.213,8.92,-0.88,0.0027153946788497836,0.03588980728526387,0.007732192508729497,0.00016084338529241988,0.06015675638419789,0.021711736393333705
150,9.234,8.98,-0.66,0.0030425360357920674,0.03593464930254342,0.0080630840331339,0.0002018703974169273,0.0603293861175864,0.022389530313979195
151,9.275,9.03,-0.85,0.003387374739775309,0.035980186608102954,0.0083977180113814,0.00024735477840730045,0.06051999379818121,0.023065486916197243
152,9.315,9.09,-0.91,0.0037497042444913707,0.036026264443892536,0.008735891107179084,0.0002972361934834422,0.060728234981165516,0.023739142446254018
153,9.378,9.14,-0.7,0.0041293062451726965,0.036072731849198854,0.00907740200335386,0.000351453464860469,0.06095375011888234,0.024410049575974497
154,9.46,9.2,-0.66,0.00452595094389177,0.03611944172315077,0.009422051514525338,0.00040994463911250866,0.06119616523694504,0.02507777730554809
155,9.481,9.25,-0.87,0.004939397321159613,0.03616625088329874,0.009769642695870433,0.0004726470536871145,0.06145509261225958,0.025741910855457618
156,9.543,9.31,-0.73,0.005369393413487662,0.03621302012036375,0.01011998094791011,0.0005394974024826606,0.061730131451979246,0.02640205154785712
157,9.606,9.36,-0.54,0.005815676596561638,0.03625961424922855,0.010472874117252817,0.0006104318003986713,0.062020868572448117,0.02705781667768195
158,9.668,9.42,-0.76,0.006277973873673217,0.0363059021562106,0.010828132593241516,0.0006853858467682066,0.062326879077225616,0.027708839373759026
159,9.69,9.47,-0.74,0.006756002169058923,0.036351756842642434,0.011185569400460667,0.0007642946875866451,0.06264772703331341,0.028354768450202822
160,9.749,9.53,-0.48,0.007249468625806888,0.03639705546479053,0.011545000287063133,0.0008470930764628425,0.06298296614474808,0.028995268248402168
161,9.811,9.58,-0.6,0.0077580709080158385,0.03644167937015338,0.011906243808889482,0.0009337154342258111,0.06333214042276848,0.02963001846991395
162,9.913,9.64,-0.71,0.008281497506918954,0.036485514130184096,0.012269121409371978,0.001024095907118771,0.0636947848518057,0.030258714000584056
163,9.933,9.69,-0.53,0.008819428050707718,0.03652844956948205,0.012633457495233529,0.001118168423507386,0.06407042605059036,0.03088106472619754
164,9.975,9.75,-0.44,0.009371533617805848,0.03657037979148659,0.012999079508011565,0.001215866749020771,0.06445858292772627,0.03149679533992512
165,10.037,9.8,-0.72,0.009937477053347393,0.0366112032006899,0.013365817991455248,0.0013171245400362699,0.0648587673311195,0.0321056451418178
166,10.098,9.86,-0.62,0.01051691328860844,0.0366508225213793,0.013733506654844591,0.0014218753954243304,0.06527048469068665,0.03270736783060847
167,10.12,9.91,-0.46,0.01110948966313991,0.03668914481292331,0.014101982432266897,0.0015300529064884276,0.06569323465380383,0.03330173128809554
168,10.181,9.97,-0.66,0.011714846249352808,0.036726081481622486,0.014471085537872824,0.00164159070505649,0.06612651171297683,0.03388851735641228
169,10.285,10.02,-0.69,0.012332616179309691,0.03676154828915863,0.014840659517119987,0.001756422509699029,0.06656980582520777,0.03446752160852114
170,10.306,10.08,-0.45,0.012962425973471593,0.03679546535769035,0.015210551293996037,0.001874482170063588,0.0670226030225319,0.035038553112281434
171,10.347,10.13,-0.5,0.013603895871142933,0.036827757171644465,0.015580611214207474,0.0019957037093177583,0.0674843860132027,0.03560143418840635
172,10.408,10.19,-0.65,0.01425664016234809,0.03685835257624029,0.015950693084326693,0.0021200213646840414,0.06795463477301271,0.03615600016257374
173,10.448,10.24,-0.5,0.014920267520867506,0.03688718477275673,0.016320654206900903,0.00224736962603669,0.06843282712626475,0.03670209911189471
174,10.509,10.3,-0.34,0.015594381338167674,0.036914191310514974,0.016690355411546304,0.002377683272517468,0.06891843931595508,0.037239591605892186
175,10.572,10.35,-0.59,0.01627858005797169,0.0369393140755175,0.01705966108207964,0.0025108974071169294,0.06941094656277313,0.03776835044213666
176,10.655,10.41,-0.49,0.01697245751122639,0.036962499275685096,0.017428439179756828,0.002646947489170349,0.06990982361256222,0.03828826037672416
177,10.697,10.46,-0.45,0.01767560325123347,0.03698369742266108,0.017796561262691322,0.002785769364733928,0.07041454527193935,0.03879921784982834
178,10.739,10.52,-0.63,0.018387602888728673,0.037002863310189434,0.01816390250152491,0.0029272992948279806,0.07092458693181879,0.039301130706608026
179,10.8,10.57,-0.68,0.019108038426706594,0.03701995598911431,0.01853034169141648,0.0030714739815536633,0.07143942507859583,0.039793917913829205
180,10.861,10.63,-0.46,0.01983648859479415,0.03703493873908627,0.018895761260399917,0.0032182305921067108,0.07195853779272933,0.0402775092726543
181,10.903,10.68,-0.45,0.020572529182975228,0.03704777903708057,0.0192600472741553,0.0033675067807178135,0.07248140523442151,0.04075184512813543
182,11.026,10.74,-0.66,0.021315733374460393,0.03705844852283351,0.019623089437241552,0.0035192407085428237,0.07300751011605594,0.04121687607599092
183,11.046,10.79,-0.5,0.02206567207747932,0.03706692296128307,0.01998478109084274,0.0036733710615182037,0.07353633816105247,0.041672562667230094
184,11.087,10.85,-0.31,0.022821914255763333,0.03707318220205995,0.020345019207086767,0.003829837066191275,0.07406737854883266,0.04211887511113847
185,11.127,10.9,-0.55,0.023584027257484885,0.03707721013602496,0.02070370438000776,0.003988578503533002,0.07460012434562575,0.04255579297709745
186,11.189,10.96,-0.53,0.024351577142424585,0.03707899464881696,0.0210607408132253,0.004149535720749423,0.07513407292088238,0.042983304895700056
187,11.25,11.01,-0.27,0.025124129007144017,0.03707852757137143,0.02141603630440528,0.004312649641125973,0.07566872634911488,0.043401408259614874
188,11.291,11.07,-0.4,0.025901247307955035,0.03707580462738407,0.021769502226567563,0.004477861771952093,0.07620359179703916,0.043810108924637346
189,11.412,11.12,-0.51,0.026682496181486295,0.0370708253777211,0.022121053506316195,0.004645114210576408,0.07673818189593568,0.04420942091135744
190,11.433,11.18,-0.32,0.02746743976265154,0.037063593161808225,0.022470608599080906,0.00481434964864076,0.07727201509919839,0.0445993661078455
191,11.454,11.23,-0.25,0.02825564249982851,0.03705411503604717,0.02281808946147653,0.004985511374534838,0.07780461602509588,0.04497997397371355
192,11.495,11.29,-0.49,0.029046669467060512,0.03704240170931162,0.023163421520904684,0.005158543274105772,0.07833551578481251,0.04535128124588171
193,11.557,11.34,-0.39,0.02984008667309318,0.037028467475583304,0.02350653364251966,0.005333389829660235,0.0788642522958756,0.045713331646372785
194,11.619,11.4,-0.22,0.030635461367060794,0.037012330143807136,0.023847358093662802,0.0055099961173132326,0.0793903705811209,0.04606617559245857
195,11.679,11.45,-0.46,0.0314323623406404,0.03699401096506887,0.024185830505852365,0.005688307802757772,0.07991342305338542,0.04640986990949078
196,11.781,11.51,-0.49,0.0322303602264908,0.03697353455723175,0.02452188983439946,0.005868271135549716,0.08043296978613362,0.046744477546763405
197,11.802,11.56,-0.27,0.03302902779278644,0.03695092882720047,0.024855478315704116,0.006049832942018285,0.08094857877023993,0.04707006729673749
198,11.842,11.62,-0.36,0.03382794023364915,0.036926224890994855,0.025186541422281987,0.006232940616914577,0.08145982615715965,0.04738671351790746
199,11.904,11.67,-0.52,0.03462667545527094,0.03689945699180462,0.02551502781558183,0.006417542113896369,0.0819662964887167,0.04769449586152331
200,11.945,11.73,-0.35,0.03542481435751261,0.036870662416166836,0.025840889296665275,0.006603585934927813,0.08246758291373857,0.04799349900231423
201,12.025,11.78,-0.22,0.03622194111076085,0.03683988140836596,0.0261640807548345,0.006791021118654133,0.08296328739178414,0.04828381237330123
202,12.046,11.84,-0.48,0.03701764342783111,0.03680715708312073,0.026484560114308744,0.00697979722779895,0.08345302088422182,0.04856552990477244
203,12.106,11.89,-0.4,0.03781151283071039,0.036772535336614835,0.026802288279052587,0.007169864335634484,0.08393640353293036,0.048838749767524954
204,12.166,11.95,-0.22,0.03860314491195023,0.03673606475594683,0.02711722907585168,0.007361173011591709,0.08441306482692981,0.049103574120517246
205,12.228,12.0,-0.43,0.03939213959054478,0.036697796527106794,0.027429349195727194,0.007553674306097323,0.08488264375728287,0.04936010886311738
206,12.29,12.06,-0.48,0.04017810136215232,0.036657784341624644,0.02773861813377375,0.007747319734743226,0.08534478896062271,0.0496084633921717
207,12.352,12.11,-0.27,0.040960639543536105,0.03661608430206896,0.028045008127491184,0.00794206126191112,0.08579915885167837,0.049848750364125886
208,12.415,12.17,-0.31,0.04173936851111423,0.036572754826587776,0.028348494093674792,0.008137851283980794,0.08624542174517753,0.050081085462398485
209,12.477,12.22,-0.55,0.04251390793351531,0.03652785655267271,0.02864905356393447,0.008334642612242609,0.0866832559675055,0.05030558717015848
210,12.498,12.28,-0.44,0.043283882998037156,0.0364814522402978,0.028946666618919665,0.008532388455623104,0.08711234995850134,0.05052237654860147
211,12.54,12.33,-0.29,0.04404892463091229,0.03643360667453336,0.029241315821334594,0.008731042403320788,0.08753240236377857,0.05073157702076344
212,12.6,12.39,-0.57,0.04480866971129448,0.03638438656767791,0.029532986147840053,0.008930558407438222,0.08794312211794197,0.050933314160890794
213,12.662,12.44,-0.54,0.04556276127888568,0.03633386046091369,0.029821664919941395,0.009130890765691464,0.08834422851903664,0.05112771548940276
214,12.723,12.5,-0.29,0.046310848735124276,0.03628209862548237,0.030107341733959753,0.009331994104277914,0.08873545129454048,0.05131491027350418
215,12.786,12.55,-0.43,0.04705258803786047,0.036229172963383016,0.030390008390191015,0.00953382336097813,0.08911653065919126,0.05149502933351745
216,12.846,12.61,-0.54,0.04778764188945063,0.0361751569076096,0.03066965882137081,0.009736333768555068,0.08948721736492392,0.05166820485500636
217,12.887,12.66,-0.37,0.04851567991820816,0.03612012532196233,0.030946289020573357,0.009939480838502355,0.08984727274319783,0.05183457020674344
218,12.929,12.72,-0.3,0.04923637885315837,0.03606415440047052,0.031219896968682916,0.010143220345179923,0.09019646874001726,0.05199425976453246
219,12.99,12.77,-0.56,0.04994942269205634,0.03600732156646077,0.031490482561588325,0.010347508310363211,0.09053458794396169,0.052147408740879156
220,13.072,12.83,-0.45,0.05065450286263616,0.03594970537130895,0.03175804753724802,0.01055230098823139,0.09086142360755163,0.05229415302051319
221,13.113,12.88,-0.29,0.05135131837707058,0.03589138539293066,0.032022595402758154,0.010757554850831975,0.09117677966229108,0.052434629001785596
222,13.215,12.94,-0.53,0.05203957597963686,0.03583244213408462,0.0322841313615438,0.010963226574074706,0.09148047072773105,0.052568973443996816
223,13.236,12.99,-0.57,0.05271899028759716,0.03577295692058665,0.03254266224077934,0.011169273024322707,0.09177232211488524,0.05269732332074427
224,13.297,13.05,-0.35,0.05338928392531222,0.03571301179955221,0.03279819641912971,0.01137565124566055,0.09205216982431719,0.052819815679380204
225,13.318,13.1,-0.45,0.05405018765161551,0.035652689437784095,0.03305074375490437,0.011582318447916063,0.09231986053920205,0.052936587506633576
226,13.379,13.16,-0.61,0.05470144048047754,0.03559207302039835,0.03330031551472776,0.01178923199549418,0.09257525161363578,0.05304777560039493
227,13.441,13.21,-0.46,0.055342789794984366,0.035531246149743095,0.033546924302840175,0.011996349397057656,0.0928182110564397,0.053153516447591795
228,13.483,13.27,-0.31,0.05597399145464523,0.03547029274462021,0.033790583991151285,0.012203628296066693,0.09304861751069542,0.05325394610800676
229,13.587,13.32,-0.57,0.05659480989603269,0.03540929693978618,0.03403130965017647,0.01241102646217164,0.09326636022923017,0.053349200103851836
230,13.608,13.38,-0.47,0.057205018226747284,0.035348342985702684,0.034269117480982096,0.012618501783449589,0.09347133904626083,0.05343941331491796
231,13.648,13.43,-0.27,0.05780439831269885,0.03528751514852491,0.03450402474825205,0.012826012259487526,0.09366346434541872,0.053524719879136325
232,13.71,13.49,-0.46,0.05839274085871044,0.03522689761034244,0.03473604971457684,0.013033515995330732,0.0938426570243977,0.053605253098406955
233,13.751,13.54,-0.5,0.05896984548247034,0.03516657436971978,0.03496521157605449,0.013240971196329951,0.09400884845648537,0.05368114534956465
234,13.811,13.6,-0.31,0.05953552078187451,0.03510662914261558,0.035191530399276916,0.0134483361639323,0.09416198044926147,0.05375252800033719
235,13.872,13.65,-0.35,0.06008958439581571,0.03504714526377931,0.03541502705976795,0.013655569292461407,0.09430200520077306,0.05381953133010203
236,13.994,13.71,-0.59,0.06063186305848006,0.03498820558872831,0.03563572318193925,0.013862629066923107,0.09442888525350589,0.053882284455187716
237,14.014,13.76,-0.64,0.06116219264721043,0.034929892396394796,0.03585364108062591,0.01406947406186267,0.09454259344647171,0.05394091525840678
238,14.056,13.82,-0.49,0.06168041822400086,0.03487228729249514,0.03606880370426227,0.01427606294128971,0.09464311286571696,0.05399555032246844
239,14.098,13.87,-0.77,0.062186394070695344,0.03481547111362451,0.036281234579767084,0.014482354459675901,0.09473043679348868,0.054046314866949344
240,14.159,13.93,-0.73,0.06267998371796435,0.03475952383204777,0.03649095775920854,0.014688307464024379,0.09480456865617261,0.05409333268860873
241,14.22,13.98,-0.49,0.06316105996812299,0.03470452446115096,0.03669799776831262,0.014893880897010893,0.09486552197098674,0.05413672610496588
242,14.322,14.04,-0.7,0.06362950491184081,0.03465055096152597,0.03690237955687456,0.01509903380119604,0.0949133202913031,0.05417661590115862
243,14.342,14.09,-0.75,0.06408520993877612,0.034597680147682885,0.03710412845113259,0.015303725324303734,0.09494799715039247,0.0542131212801566
244,14.362,14.15,-0.52,0.06452807574214786,0.034545987595411616,0.03730327010815884,0.015507914725555575,0.09496959600334895,0.0542463598164012
245,14.423,14.2,-0.45,0.06495801231724732,0.03449554754982786,0.03749983047232284,0.015711561383040515,0.09497817016693584,0.05427644741290863
246,14.465,14.26,-0.68,0.06537493895389024,0.03444643283413694,0.037693835733888445,0.015914624802084477,0.09497378275708081,0.054303498261839396
247,14.528,14.31,-0.56,0.06577878422281659,0.034398714759142995,0.0378853122898023,0.016117064624577862,0.0949565066237584,0.05432762480851445
248,14.59,14.37,-0.37,0.06616948595606488,0.03435246303352107,0.03807428670672144,0.016318840639223,0.09492642428303469,0.05434893771884065
249,14.674,14.42,-0.62,0.06654699122137822,0.034307745674856484,0.038260785686319375,0.016519912792673893,0.09488362784608238,0.05436754585011159
250,14.695,14.48,-0.65,0.0669112562907236,0.03426462892145441,0.03844483603289507,0.016720241201554544,0.09482821894498787,0.05438355622517178
251,14.757,14.53,-0.44,0.06726224660301845,0.03422317714493467,0.03862646462328967,0.016919786165356353,0.0947603086551791,0.054397074009936895
252,14.8,14.59,-0.57,0.06759993672115996,0.03418345276363659,0.038805698379107814,0.01711850818021626,0.0946800174142987,0.05440820249423586
253,14.86,14.64,-0.71,0.06792431028344285,0.034145516156855474,0.038982564241242364,0.017316367953562502,0.09458747493731498,0.054417043075899875
254,14.941,14.7,-0.55,0.0682353599494293,0.034109425579915136,0.03915708914670114,0.017513326419593637,0.09448282012762761,0.05442369524796614
255,14.963,14.75,-0.39,0.06853308734030598,0.03407523708005376,0.03932930000773229,0.017709344755534075,0.0943662009838914,0.05442825658880249
256,15.065,14.81,-0.69,0.06881750297372857,0.0340430044130789,0.039499223693242255,0.017904384398591138,0.09423777450224634,0.054430822754934126
257,15.086,14.86,-0.56,0.0690886261931183,0.03401277896075194,0.039666887012483346,0.018098407063533706,0.09409770657361824,0.05443148747637295
258,15.126,14.92,-0.33,0.06934648509135469,0.033984609648888185,0.03983231670096444,0.01829137476082128,0.09394617187576051,0.05443034255429299
259,15.187,14.97,-0.52,0.06959111642881141,0.033958542866188796,0.039995539408522636,0.018483249815223944,0.0937833537597217,0.05442747786096144
260,15.249,15.03,-0.54,0.069822565545705,0.03393462238384979,0.04015658168948224,0.018673994884885747,0.09360944413043595,0.05442298134190731
261,15.289,15.08,-0.3,0.07004088626876101,0.03391288927601577,0.04031546999481648,0.018863572980795718,0.09342464332116522,0.054416939020346396
262,15.351,15.14,-0.37,0.07024614081224091,0.03389338184115535,0.04047223066622811,0.019051947486632758,0.09322915996156418,0.05440943500386395
263,15.433,15.19,-0.56,0.07043839967339993,0.03387613552443459,0.0406268899320756,0.019239082178943014,0.09302321083917404,0.054400551493317705
264,15.474,15.25,-0.44,0.07061774152245784,0.0338611828411561,0.040779473905076594,0.019424941247599813,0.09280702075418248,0.054390368793876355
265,15.534,15.3,-0.31,0.0707842530871694,0.033848553301310584,0.040930008581724665,0.019609489316491084,0.09258082236731673,0.05437896532806741
266,15.596,15.36,-0.61,0.07093802903207906,0.03383827333526679,0.041078519843360604,0.019792691464375504,0.09234485604073714,0.05436641765070439
267,15.637,15.41,-0.54,0.0710791718325298,0.03383036622062651,0.0412250334588341,0.019974513245852796,0.09209936967177779,0.0543528004655959
268,15.678,15.47,-0.31,0.07120779164347607,0.033824852010292214,0.04136957508867402,0.020154920712405832,0.09184461851935792,0.05433818664397571
269,15.74,15.52,-0.46,0.0713240061631313,0.03382174746182054,0.041512170290666714,0.020333880433482675,0.09158086502286292,0.05432264724462663
270,15.784,15.58,-0.51,0.07142794049146049,0.03382106596816147,0.041652844526724214,0.020511359517592927,0.09130837861326663,0.05430625153569675
271,15.866,15.63,-0.26,0.07151972698350766,0.033822817489909604,0.041791623170904964,0.02068732563339651,0.09102743551627243,0.054289067018200805
272,15.929,15.69,-0.2,0.0715995050975342,0.0338270084892108,0.0419285315184457,0.020861747030758236,0.0907383185472856,0.05427115945116097
273,15.97,15.74,-0.39,0.07166742123794022,0.033833641865471435,0.042063594795676,0.021034592561728793,0.09044131689807823,0.05425259287830352
274,16.032,15.8,-0.24,0.07172362859294701,0.03384271689300851,0.04219683817070384,0.021205831701401685,0.09013672591507818,0.05423342965620233
275,16.094,15.85,-0.06,0.0717682869670463,0.03385422916075072,0.042328286764782154,0.02137543456859074,0.08982484686930871,0.05421373048374053
276,16.155,15.91,-0.33,0.0718015626082639,0.03386817051406506,0.042457965664294404,0.02154337194627163,0.08950598671809627,0.05419355443276536
277,16.175,15.96,-0.34,0.07182362803032724,0.033884528998764554,0.04258589993331464,0.02170961530173864,0.08918045785873764,0.054172958979838114
278,16.257,16.02,-0.13,0.07183466182986221,0.03390328880735631,0.04271211462669905,0.02187413680644284,0.08884857787438265,0.05415200003900615
279,16.317,16.07,-0.31,0.07183484849877075,0.03392443022760253,0.04283663480366995,0.022036909355488125,0.0885106692724286,0.05413073199554059
280,16.358,16.13,-0.43,0.07182437823194995,0.03394792959348848,0.042959485541858675,0.02219790658676299,0.08816705921572572,0.05410920774059603
281,16.42,16.18,-0.25,0.07180344673050505,0.03397375923871228,0.04308069195177668,0.022357102899680972,0.08781807924688442,0.054087478706740286
282,16.461,16.24,-0.21,0.07177225500059438,0.034001887452816154,0.0432002791916894,0.022514473473490986,0.08746406500596367,0.05406559490426694
283,16.543,16.29,-0.44,0.07173100914802694,0.0340322784400701,0.04331827248287225,0.022669994285103214,0.08710535594180031,0.05404360495817387
284,16.563,16.35,-0.31,0.07167992016871436,0.03406489228121528,0.04343469712521962,0.022823642126371467,0.08674229501722726,0.05402155614567434
285,16.625,16.4,-0.11,0.07161920373506796,0.034099684898179744,0.04354957851315898,0.022975394620782075,0.08637522840843859,0.05399949443409916
286,16.665,16.46,-0.33,0.07154907997843914,0.03413660802188829,0.04366294215181041,0.023125230239514096,0.08600450519877838,0.05397746451906444
287,16.728,16.51,-0.34,0.07146977326772304,0.034175609163304733,0.04377481367332375,0.02327312831685336,0.08563047706725427,0.05395550986281753
288,16.79,16.57,-0.1,0.07138151198427987,0.034216631587861146,0.043885218853318586,0.023419069064960937,0.08525349797212453,0.05393367273269874
289,16.831,16.62,-0.2,0.07128452829337338,0.034259614293432064,0.04399418362735823,0.02356303358800553,0.08487392382996156,0.05391199423965669
290,16.893,16.68,-0.37,0.07117905791237006,0.03430449199199888,0.0441017341074046,0.023705003895666366,0.0844921121906365,0.053890514376744136
291,16.975,16.73,-0.25,0.07106533987597481,0.03435119509513022,0.044207896598214405,0.023844962916006376,0.08410842190871319,0.05386927205749086
292,16.996,16.79,-0.16,0.0709436162987994,0.03439964970337865,0.04431269761365049,0.02398289450770741,0.08372321281178284,0.0538483051540117
293,17.059,16.84,-0.46,0.0708141321355652,0.034449777599675574,0.04441616389289713,0.024118783471652583,0.08333684536628759,0.053827650534704403
294,17.12,16.9,-0.39,0.07067713493923207,0.034501496246806776,0.044518322416565684,0.0242526155618449,0.08294968034137608,0.05380734410143549
295,17.162,16.95,-0.21,0.07053287461733156,0.03455471878907128,0.04461920042265967,0.024384377495666926,0.08256207847132171,0.053787420826174506
296,17.264,17.01,-0.43,0.07038160318677239,0.0346093540582467,0.044718825422348944,0.024514056963503915,0.0821744001170101,0.05376791478709774
297,17.284,17.06,-0.46,0.07022357452737805,0.03466530658400345,0.04481722521548106,0.024641642637768524,0.08178700492696665,0.05374885920422938
298,17.326,17.12,-0.24,0.07005904413440948,0.03472247660892201,0.044914427905737304,0.02476712418137695,0.08140025149837603,0.0537302864746916
299,17.388,17.17,-0.3,0.06988826887032473,0.03478076010826547,0.045010461915339056,0.024890492255725604,0.08101449703854248,0.053712228207596704
300,17.451,17.23,-0.49,0.06971150671602629,0.03484004881464516,0.04510535599922706,0.02501173852820439,0.0806300970272424,0.05369471525856179
301,17.513,17.28,-0.34,0.0695290165218501,0.03490023024769582,0.045199139258653764,0.025130855679269246,0.08024740488043947,0.053677777763774685
302,17.575,17.34,-0.21,0.069341057758561,0.034961187748844144,0.04529184115414299,0.02524783740908787,0.07986677161586443,0.05366144517350016
303,17.636,17.39,-0.52,0.06914789026863707,0.035022800521226444,0.04538349151778421,0.025362678443767765,0.07948854552098074,0.05364574628492283
304,17.657,17.45,-0.46,0.06894977401814076,0.035084943674803575,0.0454741205648377,0.025475374541178816,0.07911307182386425,0.05363070927427563
305,17.72,17.5,-0.28,0.06874696884948973,0.035147488276736014,0.04556375890463398,0.025585922496392483,0.07874069236753663,0.05361636172826677
306,17.782,17.56,-0.5,0.06853973423545845,0.03521030140710588,0.045652437550766076,0.02569432014676812,0.07837174528828941,0.05360273067488066
307,17.842,17.61,-0.59,0.06832832903474875,0.035273246220105324,0.04574018793058293,0.025800566376723174,0.07800656469851212,0.053589842613685344
308,17.905,17.67,-0.4,0.06811301124946341,0.03533618201084227,0.04582704189399177,0.025904661122227807,0.0776454803745132,0.053577723545800836
309,17.986,17.72,-0.43,0.06789403778480413,0.03539896428793059,0.04591303172157974,0.026006605375058632,0.07728881744979674,0.05356639900366495
310,18.007,17.78,-0.66,0.06767166421129421,0.03546144485202776,0.04599819013207783,0.026106401186828786,0.07693689611422208,0.053555894080700515
311,18.048,17.83,-0.54,0.06744614452979882,0.03552347188046779,0.0460825502892038,0.026204051672791936,0.07659003131944238,0.05354623346094547
312,18.11,17.89,-0.38,0.06721773093959453,0.03558489001810672,0.04616614580793949,0.026299561015400062,0.07624853249100201,0.05353744144866337
313,18.171,17.94,-0.65,0.06698667360973105,0.03564554047446302,0.04624901076031959,0.026392934467582885,0.07591270324745057,0.05352954199793661
314,18.212,18.0,-0.62,0.06675322045392343,0.03570526112721504,0.04633117968081019,0.026484178355722848,0.07558284112680372,0.053522558742263096
315,18.292,18.05,-0.4,0.06651761690921434,0.03576388663212091,0.046412687571328666,0.026573300082326105,0.0752592373206695,0.05351651502419539
316,18.373,18.11,-0.58,0.06628010571864885,0.035821248539443094,0.04649356990592853,0.02666030812841986,0.07494217641635115,0.05351143392507015
317,18.394,18.16,-0.6,0.0660409267182027,0.03587717541698855,0.04657386263515597,0.026745212055725213,0.07463193614722356,0.05350733829488125
318,18.435,18.22,-0.39,0.06580031662819709,0.03593149297990496,0.04665360219008035,0.026828022508660964,0.07432878715168081,0.05350425078233218
319,18.498,18.27,-0.34,0.06555850884942638,0.035984024227382394,0.04673282548601092,0.026908751216227322,0.0740329927409725,0.05350219386505856
320,18.538,18.33,-0.6,0.06531573326422373,0.03603458958639011,0.046811569925931384,0.02698741099380384,0.0737448086762807,0.05350118987995871
321,18.6,18.38,-0.51,0.06507221604269582,0.03608300706253135,0.04688987340369826,0.027064015744885792,0.07346448295544167,0.053501261053514396
322,18.661,18.44,-0.44,0.0648281794543765,0.03612909239803424,0.046967774307057585,0.027138580462780535,0.07319225560977687,0.05350242953193252
323,18.722,18.49,-0.72,0.0645838416855705,0.0361726592368337,0.04704531152054596,0.02721112123228666,0.07292835851152282,0.053504717410925905
324,18.784,18.55,-0.77,0.06433941666266457,0.036213519296668016,0.0471225244283432,0.027281655231384847,0.07267301519232224,0.05350814676499539
325,18.866,18.6,-0.56,0.06409511388167177,0.036251482548110114,0.047199452917136,0.027350200732977878,0.0724264406731771,0.05351273967614639
326,18.887,18.66,-0.72,0.06385113824425485,0.03628635740045337,0.04727613737905175,0.027416777106715903,0.0721888413061764,0.05351851826203959
327,18.928,18.71,-0.84,0.06360768990044617,0.036317950894358256,0.04735261871472863,0.027481404820929433,0.07196041462820629,0.05352550470361905
328,19.012,18.77,-0.64,0.06336496409825725,0.03634606890113517,0.04742893833659253,0.027544105444674605,0.07174134922677038,0.05353372127225929
329,19.114,18.82,-0.55,0.06312315104035222,0.03637051632848918,0.04750513817241726,0.02760490164987473,0.07153182461799593,0.05354319035643786
330,19.134,18.88,-0.81,0.06288243574795131,0.03639109733250494,0.04758126066925331,0.027663817213523807,0.07133201113686967,0.05355393448791818
331,19.176,18.93,-0.71,0.06264299793212284,0.036407615535625375,0.04765734879780964,0.027720877019912132,0.07114206983973394,0.053565976367428304
332,19.196,18.99,-0.51,0.0624050118726289,0.036419874250371666,0.04773344605736877,0.027776107062842063,0.07096215241909186,0.05357933888983464
333,19.257,19.04,-0.76,0.062168646304508794,0.03642767670855002,0.047809596481318224,0.02782953444781429,0.07079240113078265,0.05359404516884338
334,19.319,19.1,-0.8,0.061934064312607943,0.03643082629569619,0.04788584464338109,0.02788118739418032,0.07063294873358696,0.05361011856131208
335,19.361,19.15,-0.57,0.061701423234279615,0.03642912679051923,0.04796223566462287,0.027931095237272715,0.0704839184413195,0.05362758269128236
336,19.463,19.21,-0.72,0.06147087457050061,0.036422382609110036,0.048038815221317616,0.02797928843052795,0.07034542388746146,0.05364646147383774
337,19.484,19.26,-0.9,0.06124256390564612,0.036410399053670606,0.04811562955377459,0.028025798547603932,0.07021756910235905,0.05366677913886604
338,19.545,19.32,-0.78,0.06101663083615793,0.036392982565499894,0.04819272547624261,0.02807065828447393,0.0701004485029845,0.05368856025476214
339,19.585,19.37,-0.69,0.06079320890831625,0.03636994098193991,0.048270150388018525,0.02811390146145716,0.06999414689521749,0.05371182975205582
340,19.646,19.43,-0.98,0.06057242556528634,0.036341083796955984,0.048347952285885995,0.02815556302512891,0.06989873948854328,0.05373661294692627
341,19.707,19.48,-0.87,0.06035440210355875,0.036306222425013544,0.04842617977798568,0.028195679050051718,0.06981429192298795,0.05376293556457927
342,19.769,19.54,-0.64,0.060139253638854286,0.03626517046791749,0.04850488209917324,0.028234286740287225,0.06974086030805017,0.053790823762496276
343,19.83,19.59,-0.85,0.0599270890815332,0.036217743984293005,0.048584109127869465,0.028271424430678455,0.06967849127333464,0.053820304153613364
344,19.871,19.65,-0.87,0.0597180111215303,0.03616376176140803,0.04866391140435154,0.028307131587927872,0.06962722203055419,0.053851403829545626
345,19.912,19.7,-0.64,0.05951211622283249,0.0361030455890613,0.048744340150387,0.028341448811527198,0.0695870804465613,0.053884150383996375
346,19.972,19.76,-0.73,0.05930949462752349,0.03603542053526993,0.048825447290094526,0.028374417834605516,0.06955808512708898,0.053918571936475
347,20.034,19.81,-0.89,0.05911023036943336,0.03596071522347884,0.048907285471926236,0.028406081524751683,0.06954024551089306,0.05395469715641568
348,20.075,19.87,-0.76,0.05891440129744159,0.03587876211098439,0.048989908091684554,0.02843648388484753,0.06953356197400093,0.05399255528775172
349,20.195,19.92,-0.63,0.05872207910849006,0.03578939776822284,0.04907336931650684,0.028465670053928787,0.06953802594377925,0.054032176173968396
350,20.215,19.98,-0.91,0.058533329390358574,0.035692463158538176,0.04915772410976477,0.02849368630807697,0.06955362002252054,0.054073590283664444
351,20.278,20.03,-0.84,0.058348211674238266,0.035587803918033796,0.04924302825681843,0.028520580061347032,0.06958031812022242,0.05411682873669815
352,20.298,20.09,-0.65,0.05816677949711682,0.03547527063512247,0.04932933839154095,0.02854639986675149,0.06961808559621582,0.05416192333104276
353,20.361,20.14,-0.86,0.0579890804739698,0.035354719129405916,0.049416712023504554,0.028571195417339382,0.06966687940927523,0.05420890657051496
354,20.421,20.2,-0.9,0.057815156379729844,0.035226010729534935,0.04950520756569362,0.028595017547422018,0.06972664827581135,0.05425781169356657
355,20.463,20.25,-0.67,0.0576450432409771,0.0350890125497182,0.049594884362583004,0.028617918234005536,0.06979733283571923,0.05430867270331889
356,20.564,20.31,-0.72,0.05747877143726451,0.0349435977645516,0.04968580271840596,0.028639950598483822,0.06987886582543552,0.05436152439896949
357,20.584,20.36,-0.88,0.05731636581195448,0.03478964588184386,0.04977802392543764,0.028661168908624274,0.06997117225773726,0.054416402408637606
358,20.626,20.42,-0.73,0.05715784579240026,0.034627043013128654,0.049871610292124766,0.028681628580853564,0.07007416960780813,0.054473343223646595
359,20.687,20.47,-0.57,0.05700322551926659,0.0344556821415715,0.04996662517090319,0.028701386182827582,0.07018776800511066,0.05453238423418368
360,20.749,20.53,-0.82,0.056852513984755146,0.03427546338699091,0.05006313298556058,0.02872049943625294,0.0703118704306133,0.054593563766261476
361,20.811,20.58,-0.73,0.05670571517947762,0.0340862942677297,0.05016119925800747,0.028739027219925346,0.07044637291893252,0.05465692111993415
362,20.934,20.64,-0.56,0.05656282824770371,0.033888089959144455,0.050260890634315686,0.02875702957296173,0.07059116476497686,0.05472249660876163
363,20.954,20.69,-0.75,0.05642384765070384,0.033680773548526596,0.0503622749098815,0.028774567698217048,0.07074612873470554,0.054790331600554146
364,20.995,20.75,-0.78,0.05628876333790151,0.03346427628632116,0.05046542105356715,0.028791703965889037,0.07091114127962467,0.05486046855946469
365,21.015,20.8,-0.56,0.05615756092554762,0.033238537833553065,0.05057039923066265,0.02880850191732363,0.07108607275465084,0.054932951089497514
366,21.077,20.86,-0.62,0.05603022188262882,0.033003506505389954,0.05067728082450807,0.02882502626903125,0.07127078763897818,0.05500782397946169
367,21.138,20.91,-0.83,0.05590672372371549,0.03275913951076605,0.05078613845662446,0.02884134291690796,0.07146514475958479,0.055085133249340654
368,21.179,20.97,-0.71,0.0557870402084391,0.032505403187967984,0.05089704600520858,0.028857518940635946,0.07166899751702129,0.05516492619798419
369,21.241,21.02,-0.56,0.055671141547270465,0.032242273236043506,0.05101007862185443,0.028873622608219355,0.07188219411312959,0.05524725145197069
370,21.302,21.08,-0.83,0.05555899461324858,0.03196973494185305,0.051125312746370714,0.028889723380597795,0.07210457778032142,0.05533215901547086
371,21.364,21.13,-0.74,0.055450563159282075,0.03168778340256804,0.05124282611955602,0.028905891916279028,0.07233598701201158,0.0554197003209712
372,21.426,21.19,-0.51,0.05534580804061977,0.031396423743432426,0.051362697793773615,0.0289222000759452,0.07257625579378098,0.0555099282807561
373,21.489,21.24,-0.69,0.05524468744207441,0.031095671330628797,0.0514850081411546,0.028938720926999388,0.07282521383483687,0.05560289733908802
374,21.51,21.3,-0.71,0.055147157109582734,0.030785551979118746,0.051609838859256754,0.028955528748023564,0.07308268679933479,0.05569866352506129
375,21.572,21.35,-0.47,0.05505317058569304,0.030466102155348423,0.05173727297401293,0.028972699033113284,0.07334849653714824,0.055797284506107596
376,21.675,21.41,-0.51,0.05496267944858613,0.030137369174709886,0.05186739483982698,0.02899030849603617,0.07362246131371109,0.055898819642096524
377,21.696,21.46,-0.7,0.05487563355425134,0.029799411393626855,0.05200029013670863,0.02900843507413699,0.07390439603859772,0.05600333003992623
378,21.737,21.52,-0.58,0.05479198128145473,0.029452298396095873,0.052136045864365196,0.029027157931894174,0.0741941124925514,0.0561108786084544
379,21.8,21.57,-0.44,0.05471166977916012,0.029096111174460895,0.052274750333193086,0.029046557464022914,0.07449141955271847,0.05622153011358566
380,21.841,21.63,-0.74,0.054634645216092605,0.028730942304143997,0.05241649315213512,0.029066715298015498,0.07479612341586826,0.05633535123334145
381,21.901,21.68,-0.7,0.05456085303215359,0.028356896112020028,0.05256136521337939,0.02908771429601462,0.07510802781937292,0.0564524106127832
382,21.963,21.74,-0.51,0.05449023819140321,0.027974088838115193,0.052709458673869246,0.029109638555928352,0.07542693425971163,0.056572778918707024
383,22.045,21.79,-0.7,0.05442274543632015,0.027582648790316956,0.052860866933586624,0.029132573411706036,0.07575264220823726,0.056696528894061377
384,22.066,21.85,-0.73,0.054358319543026355,0.027182716491800957,0.053015684610557785,0.029156605432700607,0.07608494932390054,0.05682373541206188
385,22.127,21.9,-0.48,0.05429690557712637,0.02677444482090186,0.05317400751251005,0.029181822422045794,0.07642365166259182,0.056954475529966936
386,22.188,21.96,-0.47,0.054238449149771155,0.026357999143168685,0.05333593260509651,0.029208313413969508,0.07676854388274562,0.05708882854243024
387,22.271,22.01,-0.67,0.05418289667352082,0.025933557435351872,0.05350155797661124,0.029236168669947132,0.07711941944685598,0.05722687603428369
388,22.292,22.07,-0.5,0.054130195617556984,0.025501310401075544,0.053670982799128214,0.029265479673582003,0.07747607081858505,0.0573687019325407
389,22.334,22.12,-0.26,0.0540802947617968,0.025061461577943298,0.05384430728601553,0.0292963391240902,0.0778382896552091,0.057514392557358546
390,22.396,22.18,-0.57,0.05403314444948784,0.024614227435805717,0.05402163264580434,0.029328840928262812,0.07820586699520443,0.05766403667169276
391,22.457,22.23,-0.52,0.05398869683790157,0.024159837465902806,0.05420306103241179,0.029363080190785942,0.07857859344083142,0.05781772552941021
392,22.518,22.29,-0.29,0.05394690614678104,0.02369853426059818,0.05438869549172355,0.029399153202817045,0.07895625933564332,0.057975552921664675
393,22.58,22.34,-0.47,0.05390772890422949,0.023230573583443465,0.05457863990454505,0.029437157428734706,0.07933865493690626,0.05813761522136954
394,22.64,22.4,-0.56,0.0538711241897384,0.02275622442934953,0.054772998925928636,0.02947719149099313,0.07972557058294628,0.058304011425628854
395,22.68,22.45,-0.35,0.05383705387404788,0.022275769074684718,0.05497187792087304,0.029519355153022293,0.08011679685546098,0.05847484319598422
396,22.804,22.51,-0.36,0.05380548285551617,0.021789503117147443,0.05517538289638696,0.029563749300114253,0.08051212473685397,0.05865021489629334
397,22.826,22.56,-0.67,0.053776379292657904,0.021297735505263097,0.05538362042991266,0.0296104759182257,0.08091134576266094,0.05883023362800689
398,22.846,22.62,-0.55,0.053749714832494515,0.02080078855733805,0.05559669759410707,0.029659638070617465,0.08131425216914012,0.05901500926256764
399,22.909,22.67,-0.37,0.05372546483435663,0.020298997969668383,0.0558147218779808,0.029711339872246025,0.08172063703609714,0.05920465447062728
400,22.969,22.73,-0.63,0.05370360858878515,0.01979271281376031,0.05603780110440697,0.02976568646181873,0.08213029442497792,0.05939928474779028
401,23.01,22.78,-0.59,0.053684129531186474,0.019282295522298327,0.05626604334401715,0.0298227839714289,0.0825430195122104,0.05959901843664844
402,23.071,22.84,-0.33,0.05366701544991022,0.018768121863602858,0.05649955682549639,0.029882739493701467,0.08295860871774342,0.05980397674492834
403,23.133,22.89,-0.48,0.05365225868843778,0.01825058090434097,0.056738449842287736,0.029945661046393884,0.08337685982872783,0.06001428375961931
404,23.175,22.95,-0.54,0.053639856341390665,0.01773007496028633,0.05698283065571809,0.03001165753440737,0.08379757211829081,0.06023006645698427
405,23.215,23.0,-0.32,0.053629810444083104,0.01720701953495833,0.05723280739455937,0.030080838709170138,0.08422054645938562,0.060451454708357714
406,23.276,23.06,-0.28,0.053622128155354706,0.01668184324598875,0.05748848795105531,0.030153315125351538,0.08464558543374666,0.060678581281603534
407,23.338,23.11,-0.51,0.05361682193342816,0.016154987739063768,0.0577499798734742,0.030229198094854928,0.08507249343602749,0.06091158183807004
408,23.379,23.17,-0.4,0.053613909704546506,0.015626907589277737,0.05801739025527552,0.030308599638029475,0.085501076773253,0.06115059492485192
409,23.441,23.22,-0.24,0.053613415024168186,0.015098070189710095,0.05829082562099994,0.030391632432042872,0.08593114375977533,0.061395761962151345
410,23.565,23.28,-0.56,0.053615367230534734,0.014568955627004157,0.058570391809015236,0.030478409756363345,0.08636250480795943,0.061647227225546
411,23.585,23.33,-0.56,0.05361980159045817,0.014040056543711198,0.05885619385126171,0.030569045435313736,0.08679497251483394,0.06190513782301761
412,23.625,23.39,-0.34,0.05362675943719417,0.01351187798717174,0.05914833585013934,0.030663653777680468,0.08722836174493724,0.06216964366663993
413,23.667,23.44,-0.52,0.05363628830027376,0.012984937244727079,0.059446920852674424,0.030762349513377127,0.08766248970956177,0.06244089743885766
414,23.73,23.5,-0.59,0.053648442027157316,0.012459763665082009,0.05975205072209611,0.030865247727171537,0.08809717604254609,0.06271905455331181
415,23.793,23.55,-0.36,0.05366328089655652,0.011936898465665592,0.06006382600693632,0.030972463789491787,0.08853224287272134,0.06300427311016292
416,23.877,23.61,-0.28,0.053680871723252935,0.011416894525849354,0.06038234580775505,0.03108411328432575,0.08896751489309815,0.06329671384583155
417,23.896,23.66,-0.51,0.0537012879542346,0.010900316165883224,0.060707707641593056,0.031200311934222444,0.08940281942688173,0.06359654007704262
418,23.936,23.72,-0.36,0.053724609755979015,0.010387738911404853,0.061040007304257626,0.031321175522400324,0.08983798649043404,0.06390391763903844
419,23.998,23.77,-0.19,0.053750924092743436,0.009879749243364917,0.0613793387305585,0.03144681981197151,0.09027284885336648,0.0642190148178128
420,24.059,23.83,-0.48,0.05378032479577857,0.009376944333190257,0.06172579385263388,0.03157736046229898,0.09070724209600883,0.06454200227623857
421,24.12,23.88,-0.48,0.05381291262344146,0.008879931763000897,0.062079462456526256,0.03171291294251905,0.0911410046645463,0.06487305297401667
422,24.243,23.94,-0.27,0.05384879531223658,0.008389329230711796,0.06244043203717873,0.03185359244228356,0.0915739779241489,0.06521234208143194
423,24.264,23.99,-0.46,0.05388808761885538,0.007905764239878618,0.0628087876520349,0.03199951377979549,0.09200600621042779,0.06556004688695101
424,24.284,24.05,-0.57,0.05393091135330507,0.007429873774185957,0.06318461177343365,0.032150791307224126,0.09243693687952834,0.06591634669873905
425,24.327,24.1,-0.36,0.05397739540321547,0.006962303956520017,0.06356798413998746,0.032307538813595466,0.09286662035713839,0.06628142274018828
426,24.368,24.16,-0.33,0.05402767574939694,0.006503709692599221,0.06395898160712825,0.0324698694252566,0.0932949101866606,0.06665545803953367
427,24.431,24.21,-0.57,0.05408189547270087,0.00605475429914841,0.06435767799700476,0.032637895504008724,0.0937216630767672,0.06703863731360833
428,24.493,24.27,-0.44,0.05414020475221315,0.005616109116600996,0.06476414394790805,0.03281172854300207,0.09414673894853832,0.06743114684577023
429,24.555,24.32,-0.26,0.05420276085479928,0.005188453106304457,0.06517844676339606,0.03299147906048979,0.09457000098238998,0.06783317435801262
430,24.616,24.38,-0.53,0.05426972811601314,0.004772472432213993,0.0656006502612882,0.03317725649154356,0.0949913156650015,0.06824490887727651
431,24.657,24.43,-0.52,0.05434127791236623,0.004368860027116924,0.06603081462270098,0.03336916907784623,0.09541055283645061,0.06866654059601658
432,24.697,24.49,-0.28,0.054417588624935884,0.0039783151435271585,0.06646899624128987,0.03356732375569448,0.09582758573776973,0.06909826072710909
433,24.78,24.54,-0.42,0.05449884559428401,0.0036015428894819695,0.06691524757286733,0.033771826042355756,0.09624229105914066,0.06954026135322046
434,24.821,24.6,-0.53,0.054585241066662946,0.003239253749543888,0.06736961698557946,0.03398277992092423,0.09665454898893354,0.06999273527078372
435,24.881,24.65,-0.32,0.05467697413149476,0.0028921630913549116,0.06783214861083162,0.03420028772381772,0.09706424326379424,0.07045587582873411
436,24.985,24.71,-0.27,0.05477425065012433,0.002560990658108732,0.06830288219516656,0.03442445001504658,0.09747126121999605,0.0709298767621335
437,25.005,24.76,-0.53,0.054877283175861484,0.0022464600473052483,0.06878185295332331,0.034655365471368535,0.0978754938462813,0.07141493202080001
438,25.047,24.82,-0.43,0.054986290865342666,0.001949298176145318,0.06926909142273312,0.03489313076242595,0.09827683583843304,0.0719112355930605
439,25.087,24.87,-0.29,0.05510149938126546,0.0016702347339134112,0.0697646233197348,0.03513784042995247,0.09867518565583909,0.0724189813247523
440,25.15,24.93,-0.61,0.05522314078657804,0.0014100016216874055,0.07026846939781421,0.03538958676613409,0.09907044558031186,0.0729383627336337
441,25.211,24.98,-0.63,0.05535145343022975,0.0011693323797172305,0.07078064530817457,0.035648459691219145,0.09946252177739777,0.07346957281941768
442,25.254,25.04,-0.4,0.05548668182460304,0.0009489616028335678,0.07130116146293342,0.03591454663048751,0.09985132436036168,0.07401280386969653
443,25.358,25.09,-0.55,0.0556290765147502,0.0007496243442705228,0.0718300229012328,0.03618793239069696,0.10023676745696071,0.07456824726206404
444,25.379,25.15,-0.65,0.055778893939547596,0.0005720555083109956,0.0723672291585466,0.03646869903612319,0.10061876927903343,0.07513609326277289
445,25.44,25.2,-0.44,0.05593639628485895,0.00041698923218722543,0.07291277413945867,0.036756925764304504,0.10099725219485994,0.07571653082226107
446,25.481,25.26,-0.36,0.0561018513287798,0.0002851582576819231,0.07346664599418123,0.03705268878159503,0.10137214280421282,0.07630974736785145
447,25.543,25.31,-0.58,0.056275532279021205,0.0001772932928803746,0.07402882699907713,0.03735606117862443,0.10174337201600031,0.07691592859390205
448,25.584,25.37,-0.44,0.05645771760248504,9.412236453516919e-05,0.07459929344143523,0.03766711280576941,0.10211087512840795,0.07753525824968022
449,25.646,25.42,-0.25,0.056648690847091863,3.637016152138444e-05,0.07517801550872664,0.037985910148762236,0.10247459191147552,0.07816791792523674
450,25.727,25.48,-0.53,0.05684874045594166,4.757369882585397e-06,0.07576495718255852,0.038312516204585485,0.10283446669207881,0.07881408683557424
451,25.748,25.53,-0.55,0.05705815957390889,0.0,0.07636007613753551,0.03864699035782656,0.10319044844130966,0.07947394160343592
452,25.809,25.59,-0.32,0.057277245846790205,2.280870645479929e-05,0.0769633236452346,0.038989388257687795,0.10354249086426824,0.08014765604105581
453,25.87,25.64,-0.5,0.05750630121313917,7.388810118466176e-05,0.0775746444835098,0.03933976169585517,0.10389055249228141,0.08083540093121083
454,25.91,25.7,-0.69,0.0577456316889268,0.00015393606055917519,0.0781939768513603,0.03969815848542072,0.10423459677752886,0.08153734380790877
455,25.972,25.75,-0.5,0.05799554714515825,0.00026364302701218945,0.07882125228960928,0.04006462234103843,0.10457459219001299,0.0822536487370244
456,26.034,25.81,-0.44,0.058256361078557035,0.00040369130586690046,0.07945639560764631,0.040439192760474627,0.10491051231675522,0.08298447609716483
457,26.139,25.86,-0.68,0.05852839037540133,0.0005747543579776832,0.08009932481648678,0.04082190490769729,0.10524233596302832,0.08372998236103607
458,26.158,25.92,-0.53,0.05881195506856301,0.0007774960888095493,0.0807499510683827,0.04121278949764423,0.10557004725536116,0.08449031987759474
459,26.199,25.97,-0.32,0.05910737808777556,0.0010125701345859847,0.0814081786031884,0.04161187268282093,0.10589363574601225,0.08526563665527805
460,26.26,26.03,-0.56,0.05941498500314861,0.0012806191461555527,0.08207390470165822,0.04201917594189546,0.10621309651858662,0.08605607614661923
461,26.322,26.08,-0.56,0.059735103761951576,0.0015822740712618342,0.0827470196458272,0.042434715970478536,0.10652843029446767,0.08686177703457713
462,26.384,26.14,-0.32,0.06006806441870311,0.0019181534359428622,0.08342740668660217,0.04285850457429705,0.10683964353975114,0.08768287302091823
463,26.446,26.19,-0.45,0.060414198858627366,0.002288862625820334,0.0841149420186855,0.043290548564979096,0.10714674857238825,0.08851949261698455
464,26.467,26.25,-0.56,0.060773840514562895,0.0026949931680620974,0.08480949476296241,0.04373084965866371,0.10744976366924612,0.0893717589371778
465,26.508,26.3,-0.37,0.061147324077430946,0.0031371220148159107,0.0855109269564984,0.04417940437763817,0.10774871317279623,0.0902397894954724
466,26.569,26.36,-0.27,0.06153498520038777,0.0036158108289154204,0.08621909355030996,0.044636203955190704,0.10804362759714789,0.09112369600523564
467,26.631,26.41,-0.54,0.06193716019679846,0.0041316052726555275,0.08693384241508963,0.045101234243851374,0.10833454373314537,0.09202358418260853
468,26.692,26.47,-0.44,0.06235418573217677,0.004685034300437188,0.08765501435505889,0.045574475627192614,0.10862150475225171,0.09293955355369085
469,26.753,26.52,-0.27,0.06278639851024377,0.005276609456093222,0.08838244313010012,0.046055902935373316,0.1089045603089604,0.09387169726576257
470,26.814,26.58,-0.53,0.06323413495327017,0.005906824175719207,0.0891159554862911,0.046545485364627034,0.10918376664147944,0.09482010190277405
471,26.854,26.63,-0.54,0.06369773087687629,0.006576153096847953,0.08985537119493692,0.04704318640091041,0.10945918667041211,0.09578484730535154
472,26.896,26.69,-0.3,0.06417752115946841,0.007285051374816894,0.09060050310016612,0.04754896374793819,0.10973089009512962,0.09676600639556619
473,26.958,26.74,-0.41,0.06467383940649556,0.008033954007171646,0.0913511571751461,0.04806276925982577,0.10999895348749769,0.09776364500669393
474,27.019,26.8,-0.52,0.06518701760971751,0.008823275166929772,0.09210713258697642,0.0485845488785396,0.11026346038257936,0.09877782171816211
475,27.082,26.85,-0.3,0.06571738580168363,0.009653407545503269,0.09286822177032518,0.04911424257632973,0.11052450136591585,0.0998085876958314
476,27.125,26.91,-0.21,0.06626527170563921,0.010524721706045787,0.09363421050988201,0.049651784303292486,0.11078217415699353,0.10085598653770786
477,27.187,26.96,-0.45,0.06683100038109803,0.01143756544796252,0.09440487803171273,0.05019710194018969,0.11103658368852093,0.10192005412515599
478,27.227,27.02,-0.31,0.06741489386534215,0.012392263183312538,0.09517999710359434,0.05075011725664629,0.11128784218116745,0.103000818479693
479,27.289,27.07,-0.11,0.06801727081114019,0.013389115325845103,0.09595933414438851,0.051310745874861015,0.1115360692134599,0.10409829962547244
480,27.371,27.13,-0.35,0.06863844612100949,0.014428397693434965,0.09674264934248078,0.05187889723898651,0.11178139178657268,0.1052125094576056
481,27.392,27.18,-0.36,0.06927873057838059,0.015510360924715928,0.09752969678326928,0.05245447459036019,0.11202394438377426,0.10634345161651672
482,27.454,27.24,-0.14,0.06993843047604723,0.016635229910748662,0.09832022458563644,0.05303737494878942,0.11226386902432416,0.10749112136854558
483,27.558,27.29,-0.28,0.07061784724230596,0.0178032032425811,0.09911397504730793,0.053627489100100144,0.11250131531163729,0.10865550549299462
484,27.578,27.35,-0.42,0.07131727706520272,0.01901445267556388,0.09991068479899806,0.05422470159014456,0.11273644047553392,0.10983658217578231
485,27.62,27.4,-0.23,0.07203701051530334,0.020269122611271652,0.10071008496724139,0.05482889072543816,0.11296940940838933,0.1110343209098103
486,27.68,27.46,-0.13,0.07277733216739744,0.021567329597857225,0.10151190134581317,0.055439928580568155,0.11320039469499192,0.11224868240208719
487,27.721,27.51,-0.38,0.07353852022152554,0.02290916184964202,0.10231585457564189,0.05605768101248768,0.1134295766359067,0.11347961848761288
488,27.783,27.57,-0.23,0.07432084612369944,0.02429467878673826,0.10312166033309787,0.05668200768179764,0.11365714326413327,0.1147270720500194
489,27.846,27.62,-0.01,0.07512457418667888,0.02572391059550262,0.10392902952651142,0.057312762081121946,0.1138832903548681,0.11599097694897081
490,27.928,27.68,-0.24,0.07594996121118353,0.027196857810628867,0.1047376685007433,0.057949791570692424,0.11410822142820884,0.11727125795434819
491,27.948,27.73,-0.26,0.07679725610795027,0.028713490919698152,0.10554727924960139,0.05859293742127337,0.11433214774467214,0.11856783068727533
492,28.05,27.79,-0.03,0.07766669952108735,0.030273749991014145,0.10635755963587473,0.05924203486456655,0.11455528829344441,0.11988060156804933
493,28.07,27.84,-0.18,0.07855852345322473,0.03187754432553962,0.10716820361875387,0.059896913151234375,0.11477786977333296,0.12120946777102007
494,28.132,27.9,-0.34,0.07947295089300674,0.03352475213372173,0.10797890148842393,0.06055739561665836,0.11500012656640726,0.12255431718644279
495,28.172,27.95,-0.2,0.08041019544550751,0.03521522023795101,0.10878934010763647,0.0612232997545216,0.11522230070432563,0.12391502838930606
496,28.234,28.01,-0.13,0.0813704609661742,0.036948763801348525,0.1095992031600858,0.06189443729827401,0.11544464182733445,0.12529147061512053
497,28.296,28.06,-0.41,0.08235394119891051,0.03872516608353348,0.11040817140542986,0.06257061431051107,0.11566740713589174,0.12668350374267467
498,28.357,28.12,-0.3,0.08336081941890076,0.040544178224013384,0.11121592294078753,0.06325163128028222,0.11589086133482311,0.12809097828381613
499,28.399,28.17,-0.12,0.08439126808075051,0.042405519053863736,0.11202213346852083,0.06393728322834245,0.11611527656988326,0.1295137353803773
500,28.461,28.23,-0.33,0.08544544847249252,0.04430887493640491,0.11282647657008685,0.06462735982035855,0.11634093235656395,0.1309516068084197
501,28.523,28.28,-0.33,0.0865235103759807,0.04625389963762124,0.11362862398572515,0.06532164548807566,0.11656811550095245,0.13240441499001068
502,28.564,28.34,-0.08,0.08762559173417589,0.048240214227085104,0.11442824589973119,0.06601991955843914,0.11679712001243349,0.13387197301274883
503,28.709,28.39,-0.16,0.0887518183258228,0.050267407010137814,0.11522501123106478,0.06672195639064654,0.11702824700803174,0.13535408465721355
504,28.73,28.45,-0.28,0.08990230344802266,0.05233503349204523,0.11601858792905685,0.06742752552107457,0.11726180460820511,0.13685054443246897
505,28.75,28.5,-0.1,0.09107714760721793,0.05444261637479589,0.1168086432739932,0.06813639181599596,0.11749810782393089,0.13836113761969937
506,28.771,28.56,0.03,0.09227643821912282,0.05658964558715195,0.11759484418237565,0.06884831563197556,0.11773747843497605,0.13988564032401066
507,28.834,28.61,-0.23,0.09350024931814667,0.05877557834851093,0.11837685751667873,0.0695630529838172,0.11798024485928713,0.1414238195344201
508,28.895,28.67,-0.11,0.09474864127686358,0.06099983926710501,0.1191543503994223,0.07028035571993275,0.11822674201347923,0.14297543319208234
509,28.936,28.72,0.08,0.0960216605360902,0.0632618204730459,0.11992699053136904,0.07099997170501848,0.11847731116445796,0.14454023026682633
510,29.038,28.78,-0.18,0.09731933934614907,0.0655608817867025,0.12069444651364715,0.07172164500993862,0.11873229977225423,0.14611795084211165
511,29.058,28.83,-0.22,0.09864169551991395,0.06789635092287365,0.12145638817358777,0.0724451161087311,0.11899206132418043,0.14770832620854701
512,29.099,28.89,-0.02,0.09998873219824558,0.07026752373118823,0.12221248689404504,0.07317012208266059,0.11925695516044091,0.14931107896612988
513,29.16,28.94,-0.14,0.10136043762843412,0.07267366447312065,0.12296241594595313,0.07389639683124216,0.11952734629133563,0.15092592313535746
514,29.222,29.0,-0.31,0.10275678495625677,0.07511400613594944,0.1237058508238662,0.07462367129014022,0.11980360520617407,0.15255256427734554
515,29.282,29.05,-0.16,0.10417773203223907,0.07758775078391113,0.12444246958421606,0.07535167365582134,0.12008610767398574,0.1541906996230619
516,29.323,29.11,-0.01,0.10562322123268045,0.08009406994671084,0.12517195318601168,0.07608012961681047,0.12037523453608562,0.15584001821174379
517,29.384,29.16,-0.28,0.10709317929597194,0.08263210504546366,0.12589398583369502,0.07680876259137372,0.12067137149051911,0.15750020103855525
518,29.446,29.22,-0.17,0.1085875171746987,0.08520096785607326,0.12660825532184344,0.07753729397143488,0.12097490886838756,0.1591709212115524
519,29.508,29.27,0.04,0.11010612990399643,0.08779974101000992,0.12731445338137493,0.07826544337253322,0.1212862414020615,0.16085184411804093
520,29.549,29.33,-0.14,0.11164889648662372,0.09042747853241365,0.12801227602688098,0.0789929288896299,0.121605767985309,0.1625426276004259
521,29.611,29.38,-0.17,0.11321567979521813,0.09308320641741787,0.12870142390468367,0.07971946735857242,0.12193389142538687,0.16424292214167102
522,29.673,29.44,0.04,0.11480632649221471,0.09576592324056205,0.12938160264118514,0.0804447746230228,0.12227101818717814,0.1659523710604751
523,29.757,29.49,-0.05,0.11642066696792289,0.09847460080811732,0.13005252319106492,0.08116856580664153,0.12261755812950254,0.16767061071622177
524,29.778,29.55,-0.24,0.11805851529726238,0.10120818484308997,0.1307139021848797,0.08189055559029032,0.12297392423375675,0.1693972707237
525,29.819,29.6,-0.1,0.11971966921565128,0.10396559570759456,0.13136546227561827,0.08261045849398507,0.1233405323250619,0.17113197417753437
526,29.88,29.66,-0.0,0.12140391011451752,0.10674572916120746,0.1320069324837648,0.08332798916329659,0.1237178007861065,0.17287433788622134
527,29.94,29.71,-0.28,0.12311100305686795,0.10954745715483447,0.13263804854042416,0.08404286265986659,0.12410615026385632,0.17462397261566176
528,29.982,29.77,-0.18,0.12484069681329558,0.11236962865957284,0.13325855322804697,0.0847547947556841,0.12450600336927137,0.17638048334210008
529,30.045,29.82,0.01,0.12659272391874704,0.11521107053000985,0.1338681967182596,0.08546350223075715,0.12491778437014775,0.17814346951439483
530,30.127,29.88,-0.17,0.1283668007503169,0.11807058840136282,0.13446673690627212,0.08616870317380357,0.1253419188771808,0.17991252532553828
531,30.148,29.93,-0.17,0.1301626276262801,0.12094696761982486,0.13505393974130908,0.08687011728557277,0.12577883352332705,0.18168723999332054
532,30.21,29.99,0.06,0.1319798889265199,0.12383897420543183,0.13562957955248758,0.0875674661843966,0.1262289556365485,0.18346719804997275
533,30.25,30.04,0.0,0.13381825323445679,0.12674535584670069,0.1361934393695626,0.08826047371354298,0.12669271290604778,0.18525197964053172
534,30.312,30.1,-0.17,0.13567737350053535,0.1296648429262076,0.13674531123796838,0.08894886624990683,0.1271705330421368,0.18704116082956673
535,30.375,30.15,0.0,0.13755688722728404,0.1325961495761746,0.1372849965275862,0.08963237301353093,0.12766284342992495,0.18883431391581576
536,30.436,30.21,0.14,0.13945641667592482,0.1355379747630167,0.13781230623467122,0.09031072637740598,0.12817007077706186,0.19063100775419548
537,30.499,30.26,-0.14,0.14137556909448226,0.13848900339967768,0.13832706127637137,0.09098366217696184,0.1286926407558005,0.19243080808461163
538,30.541,30.32,-0.04,0.14331393696729447,0.14144790748448624,0.13882909277725514,0.09165092001863934,0.1292309776396703,0.19423327786699301
539,30.581,30.37,0.1,0.1452710982857734,0.1444133472651916,0.13931824234722986,0.09231224358692447,0.12978550393508076,0.19603797762197023
540,30.643,30.43,-0.11,0.14724661684019416,0.1473839724267775,0.13979436235019518,0.09296738094922047,0.1303566400081979,0.19784446577661707
541,30.706,30.48,-0.16,0.14924004253221831,0.15035842330159968,0.14025731616273562,0.09361608485792271,0.1309448037074366,0.19965229901467085
542,30.768,30.54,0.04,0.15125091170776978,0.15333533210032443,0.14070697842210464,0.09425811304904766,0.13155040998190015,0.2014610326306225
543,30.809,30.59,-0.01,0.15327874750979428,0.15631332416206378,0.1411432352627079,0.09489322853673987,0.132173870496082,0.2032702208870119
544,30.87,30.65,-0.21,0.15532306025033532,0.15929101922198896,0.14156598454025518,0.09552119990294303,0.13281559324111603,0.20507941737418536
545,30.911,30.7,-0.04,0.15738334780126098,0.16226703269457496,0.14197513604271542,0.09614180158147691,0.1334759821428433,0.20688817537167864
546,30.971,30.76,0.12,0.15945909600288774,0.16523997697047293,0.14237061168718063,0.0967548141357216,0.13415543666695906,0.2086960482103011
547,31.031,30.81,-0.17,0.16154977908967408,0.1682084627248493,0.14275234570173095,0.09736002452906908,0.13485435142149438,0.21050258963395127
548,31.092,30.87,-0.06,0.16365486013208766,0.1711711002348922,0.1431202847913769,0.09795722638727536,0.13557311575688424,0.2123073541601927
549,31.134,30.92,0.22,0.165773791493691,0.17412650070407934,0.1434743882871442,0.09854622025182903,0.13631211336389126,0.21410989743863154
550,31.296,30.98,0.09,0.16790601530243557,0.17707327759071778,0.14381462827737265,0.0991268138234399,0.13707172186968355,0.21590977660615948
551,31.317,31.03,0.04,0.1700509639351122,0.18001004793820302,0.14414098972032685,0.09969882219474849,0.13785231243239862,0.21770655063815753
552,31.337,31.09,0.29,0.17220806051386914,0.18293543370440565,0.14445347053728402,0.10026206807136978,0.1386542493345927,0.21949978069477752
553,31.358,31.14,0.28,0.17437671941369656,0.18584806308757615,0.1447520816853955,0.10081638198042377,0.1394778895760712,0.22128903046143336
554,31.419,31.2,0.01,0.17655634677977952,0.1887465718461768,0.14503684720980278,0.10136160246577842,0.14032358246669008,0.2230738664826815
555,31.48,31.25,0.17,0.17874634105364406,0.19162960461010237,0.14530780427467127,0.10189757626934054,0.14119166921979923,0.22485385848874992
556,31.52,31.31,0.28,0.18094609350706647,0.194495816180815,0.14556500317295565,0.10242415849785105,0.14208248254706274,0.226628579714069
557,31.583,31.36,-0.03,0.18315498878277114,0.19734387281799012,0.14580850731483486,0.10294121277474363,0.1429963462554125,0.2283976072072725
558,31.645,31.42,0.0,0.18537240544099087,0.20017245351035315,0.1460383931948543,0.10344861137670937,0.14393357484688035,0.2301605221322786
559,31.706,31.47,0.24,0.18759771651099444,0.20298025122849583,0.1462547503378973,0.10394623535469127,0.14489447312203152,0.23191691006018614
560,31.768,31.53,0.09,0.189830290046705,0.20576597415758158,0.14645768122419445,0.10443397463910466,0.14587933578769105,0.23366636125183607
561,31.81,31.58,0.01,0.19206948968553084,0.2085283469079853,0.1466473011936535,0.10491172812914663,0.14688844706961168,0.23540847093098197
562,31.871,31.64,0.29,0.19431467520952217,0.21126611170204945,0.1468237383298399,0.10537940376612248,0.1479220803307173,0.23714283954806104
563,31.953,31.69,0.32,0.19656520310796732,0.21397802953525683,0.14698713332397986,0.1058369185907696,0.14898049769557486,0.23886907303455981
564,31.973,31.75,0.05,0.19882042714055412,0.21666288131021638,0.14713763931940674,0.10628419878460674,0.15006394968178338,0.24058678304795117
565,32.035,31.8,0.2,0.2010796989002482,0.21931946894193333,0.14727542173692015,0.10672117969538042,0.15117267483902633,0.2422955872071652
566,32.096,31.86,0.3,0.20334236837508676,0.22194661643288896,0.1474006580815739,0.10714780584673339,0.15230689939660005,0.2439951093185456
567,32.137,31.91,0.0,0.20560778450814882,0.2245431709164976,0.14751353773145925,0.1075640309322672,0.15346683692026936,0.2456849795922721
568,32.199,31.97,-0.02,0.20787529575502103,0.22710800366756534,0.14761426170908726,0.10796981779422672,0.15465268797929657,0.24736483484929708
569,32.26,32.02,0.15,0.21014425063811581,0.2296400110784629,0.14770304243599244,0.10836513838709333,0.15586463982446136,0.2490343187189155
570,32.342,32.08,0.0,0.21241399829722202,0.23213811559982128,0.14778010347119477,0.10874997372642521,0.1571028660778291,0.2506930818271425
571,32.362,32.13,-0.16,0.21468388903566182,0.2346012666446702,0.14784567923417305,0.10912431382331789,0.15836752643493707,0.25234078197610943
572,32.403,32.19,0.08,0.21695327486140276,0.2370284414550377,0.1479000147130015,0.10948815760487911,0.1596587663799797,0.2539770843146797
573,32.464,32.24,0.13,0.21922151002244283,0.23941864593010978,0.14794336515830567,0.10984151282111859,0.16097671691450346,0.2556016615004347
574,32.505,32.3,-0.14,0.22148795153576045,0.2417709154151033,0.1479759957636992,0.11018439593864973,0.16232149430006218,0.25721419385311467
575,32.586,32.35,0.08,0.223751959709103,0.24408431545005518,0.1479981813333628,0.1105168320216005,0.16369319981524597,0.258814369499551
576,32.628,32.41,0.22,0.22601289865489346,0.2463579424777789,0.14801020593742278,0.11083885460013945,0.16509191952749389,0.2604018845100898
577,32.71,32.46,-0.01,0.22827013679556715,0.24859092451028542,0.14801236255578637,0.11115050552703597,0.16651772408010135,0.26197644302650547
578,32.751,32.52,0.02,0.23052304735969428,0.25078242175302856,0.1480049527110885,0.11145183482269218,0.16797066849483705,0.2635377573814332
579,32.813,32.57,0.26,0.23277100886829322,0.2529316271864086,0.1479882860914046,0.11174290050910776,0.169450791990601,0.26508554820938507
580,32.874,32.63,0.17,0.23501340561079104,0.2550377671040524,0.14796268016340128,0.11202376843325294,0.17095811781857112,0.26661954454944303
581,32.916,32.68,-0.01,0.23724962811013095,0.2571001016074714,0.14792845977663577,0.1122945120803331,0.17249265311428694,0.2681394839397574
582,32.979,32.74,0.21,0.23947907357656054,0.2591179250567928,0.14788595675976424,0.11255521237743608,0.17405438876712903,0.269645112503997
583,33.06,32.79,0.23,0.24170114634966514,0.2610905664773477,0.14783550950947677,0.11280595748806267,0.1756432993076682,0.2711361850298934
584,33.081,32.85,-0.09,0.24391525832823854,0.263017389921982,0.14777746257303415,0.11304684259805424,0.17725934281335687,0.2726124650400329
585,33.143,32.9,0.08,0.24612082938760152,0.2648977947890588,0.14771216622530575,0.11327796969345837,0.17890246083301145,0.2740737248550679
586,33.163,32.96,0.21,0.24831728778399417,0.26673121609622996,0.1476399760411945,0.113499447330911,0.1805725783305029,0.2755197456495444
587,33.226,33.01,0.01,0.25050407054568863,0.268517124710172,0.1475612524643105,0.11371139040114682,0.18226960364801734,0.27695031750056565
588,33.288,33.07,-0.0,0.2526806238504911,0.27025502753259195,0.14747636037271436,0.11391391988627626,0.18399342848918135,0.27836523942955094
589,33.37,33.12,0.22,0.25484640338933445,0.27194446764291536,0.14738566864251032,0.11410716261148145,0.1857439279222995,0.2797643194373477
590,33.452,33.18,0.14,0.25700087471571365,0.2735850243981425,0.1472895497100493,0.11429125099177447,0.18752096040391736,0.2811473745329345
591,33.473,33.23,-0.05,0.25914351358077475,0.2751763134904165,0.14718837913351251,0.11446632277442621,0.18932436782288753,0.2825142307559252
592,33.536,33.29,0.19,0.26127380625392427,0.2767179869628831,0.14708253515467085,0.11463252077762584,0.19115397556509056,0.2838647231930454
593,33.578,33.34,0.25,0.2633912498288797,0.27820973318445485,0.1469723982616413,0.11478999262588613,0.19300959259894243,0.28519869598871417
594,33.64,33.4,-0.05,0.26549535251512113,0.27965127678413293,0.1468583507534771,0.11493889048267877,0.1948910115817914,0.2865160023498483
595,33.661,33.45,0.12,0.26758563391473306,0.2810423785455975,0.1467407763074063,0.11507937078077726,0.19679800898727282,0.287816504545021
596,33.721,33.51,0.25,0.2696616252846491,0.28238283526285757,0.14662005954949214,0.11521159395079923,0.19873034525366676,0.2891000738981274
597,33.824,33.56,0.06,0.2717228697843403,0.283672479557832,0.14649658562944154,0.11533572414846148,0.20068776495326934,0.29036659077674426
598,33.844,33.62,0.01,0.2737689227090115,0.2849111796608215,0.1463707398002403,0.11545192898108116,0.20266999698273794,0.2916159445754036
599,33.885,33.67,0.23,0.2757993517083951,0.2860988391549091,0.14624290700324968,0.1155603792338726,0.20467675477432662,0.2928480336940078
600,33.946,33.73,0.19,0.2778137369912546,0.287235396685375,0.14611347145937217,0.11566124859658633,0.20670773652788238,0.2940627655115646
601,34.007,33.78,-0.01,0.2798116715157301,0.28832082563523637,0.14598281626688522,0.11575471339101717,0.2087626254634155,0.29526005635536445
602,34.068,33.84,0.23,0.28179276116567026,0.28935513376802313,0.14585132300653098,0.11584095229988396,0.21084109009400984,0.2964398314656464
603,34.108,33.89,0.33,0.2837566249131113,0.2903383628388947,0.14571937135443394,0.11592014609756247,0.21294278451880674,0.2976020249557329
604,34.169,33.95,0.04,0.28570289496707935,0.29127058817519363,0.14558733870340262,0.11599247738313803,0.2150673487357663,0.2987465797675855
605,34.231,34.0,0.22,0.28763121690890575,0.29215191822756087,0.14545559979314213,0.11605813031623956,0.21721440897388036,0.29987344762275636
606,34.272,34.06,0.38,0.2895412498142703,0.29298249409277166,0.14532452634986995,0.1161172903561224,0.21938357804449415,0.3009825889687607
607,34.333,34.11,0.24,0.29143266636222687,0.29376248900949264,0.1451944867357936,0.11617014400447331,0.22157445571137047,0.30207397292095456
608,34.393,34.17,0.18,0.2933051529315094,0.2944921078281904,0.14506584560887056,0.11621687855241572,0.2237866290791017,0.3031475772000576
609,34.435,34.22,0.37,0.29515840968445944,0.29517158645644376,0.1449389635932283,0.11625768183219319,0.2260196729994585,0.30420338806547004
610,34.538,34.28,0.33,0.29699215063894946,0.2958011912809201,0.14481419696059136,0.11629274197399399,0.2282731504952572,0.3052414002444852
611,34.559,34.33,0.07,0.2988061037286958,0.29638121856726357,0.14469189732305063,0.1163222471683476,0.23054661320130107,0.30626161685743547
612,34.599,34.39,0.28,0.3006000108523533,0.2969119938391236,0.14457241133750037,0.11634638543448773,0.23283960182190322,0.3072640493387513
613,34.661,34.44,0.39,0.30237362791176653,0.2973938712375219,0.14445608042206426,0.11636534439504179,0.23515164660444174,0.30824871735387027
614,34.764,34.5,0.13,0.3041267248397204,0.29782723286173657,0.14434324048482278,0.11637931105737952,0.23748226782831175,0.30921564871194274
615,34.784,34.55,0.31,0.30585908561748787,0.2982124880928807,0.14423422166512484,0.11638847160193992,0.23983097630855227,0.3101648792743267
616,34.847,34.61,0.52,0.3075705082824332,0.29855007290137603,0.14412934808771652,0.11639301117785483,0.2421972739133692,0.31109645285892124
617,34.907,34.66,0.39,0.30926080492590985,0.2988404491395375,0.14402893762986965,0.1163931137061827,0.24458065409473723,0.31201042114043714
618,34.928,34.72,0.36,0.3109298016816819,0.29908410382051037,0.14393330170164428,0.1163889616910546,0.24698060243124825,0.3129068435467355
619,34.991,34.77,0.72,0.31257733870509496,0.2992815483848221,0.14384274503936928,0.11638073603901836,0.2493965971823866,0.31378578715136224
620,35.073,34.83,0.71,0.3142032701432277,0.29943331795581263,0.14375756551239016,0.11636861588683774,0.2518281098534466,0.31464732656234984
621,35.094,34.88,0.44,0.31580746409625476,0.2995399705851813,0.14367805394311017,0.11635277843796611,0.25427460577034855,0.31549154380728595
622,35.156,34.94,0.64,0.31738980257026445,0.2996020864898465,0.1436044939403358,0.11633339880787304,0.2567355446636692,0.31631852821457335
623,35.218,34.99,0.74,0.3189501814217806,0.2996202672812488,0.14353716174592543,0.11631064987836533,0.2592103812612627,0.31712837629073864
624,35.259,35.05,0.18,0.3204885102942591,0.29959513518817094,0.14347632609472696,0.116284702161013,0.26169856588886053,0.31792119159364185
625,35.32,35.1,0.32,0.32200471254682406,0.29952733227412226,0.14342224808775725,0.11625572366977135,0.2641995450779819,0.31869708460149765
626,35.382,35.16,0.54,0.32349872517549155,0.29941751965033403,0.14337518107852423,0.1162238798028812,0.2667127621803772,0.31945617257774805
627,35.443,35.21,0.46,0.324970498727102,0.29926637668542394,0.1433353705723447,0.11618933323411554,0.2692376579880469,0.3201985794320202
628,35.483,35.27,0.42,0.3264199972061475,0.29907460021279914,0.1433030541384633,0.11615224381342071,0.27177367135767977,0.3209244355776245
629,35.544,35.32,0.74,0.3278471979746442,0.29884290373686956,0.14327846133474462,0.11611276847697205,0.27432023983822085,0.32163387778617586
630,35.648,35.38,0.8,0.3292520916451804,0.29857201663913013,0.1432618136446891,0.11607106116662758,0.27687680030023476,0.3223270490399245
631,35.669,35.43,0.56,0.33063468196726836,0.29826268338512657,0.14325332442653604,0.11602727275871609,0.27944278956575047,0.32300409838231176
632,35.71,35.49,0.85,0.331994985707135,0.29791566273327835,0.143253198874219,0.11598155100205562,0.28201764503732574,0.32366518076718664
633,35.771,35.54,1.01,0.3333330325211095,0.297531726946472,0.14326163398995387,0.11593404046506964,0.28460080532514026,0.32431045690704813
634,35.812,35.6,0.74,0.33464886482279793,0.2971116610072844,0.1432788185682498,0.11588488249184885,0.28719171087098194,0.32494009312066074
635,35.873,35.65,0.86,0.33594253764426046,0.2966562618376542,0.14330493319113918,0.11583421516700021,0.2897898045680314,0.32555426118040537
636,35.936,35.71,1.07,0.337214118491422,0.29616633752379884,0.14334015023441318,0.11578217328912893,0.292394532375388,0.32615313815974456
637,36.039,35.76,0.95,0.3384636871939516,0.2956427065471686,0.14338463388464853,0.11572888835279753,0.2950053439263092,0.3267369062811854
638,36.059,35.82,0.8,0.33969133574982585,0.29508619702222816,0.14343854016680316,0.11567448853879465,0.2976216931291329,0.3273057527651167
639,36.099,35.87,1.1,0.34089716816475535,0.2944976459418611,0.1435020169821509,0.11561909871252798,0.3002430387598508,0.3278598696798547
640,36.16,35.93,1.19,0.3420813002866063,0.2938778984311693,0.14357520415632155,0.11556284043032464,0.3028688450452961,0.32839945379316143
641,36.221,35.98,0.97,0.34324385963490445,0.29322780701039614,0.14365823349721693,0.115505831953386,0.3054985822358872,0.3289247064254358
642,36.262,36.04,1.24,0.3443849852254694,0.2925482308676491,0.14375122886257916,0.11544818826911146,0.3081317271668669,0.3294358333047299
643,36.303,36.09,1.39,0.34550482739021304,0.29184003514202866,0.14385430623698475,0.11539002111948524,0.3107677638070114,0.32993304442370386
644,36.385,36.15,1.15,0.3466035475921445,0.29110409021770467,0.14396757381804146,0.11533143903621508,0.31340618379383967,0.33041655389862834
645,36.425,36.2,1.23,0.34768131823564835,0.2903412710294259,0.14409113211154406,0.11527254738232559,0.31604648695440724,0.33088657983056996
646,36.467,36.26,1.48,0.3487383224721285,0.28955245637992827,0.1442250740353071,0.11521344839994144,0.31868818181082886,0.3313433441689338
647,36.529,36.31,1.38,0.34977475400112945,0.2887385282696991,0.14436948503134645,0.11515424126403112,0.32133078606971244,0.3317870725775741
648,36.59,36.37,1.25,0.35079081686705554,0.2879003712395601,0.14452444318603633,0.1150950221419075,0.32397382709470296,0.3322179943037098
649,36.63,36.42,1.52,0.3517867252516022,0.2870388717265329,0.14469001935782028,0.11503588425829336,0.32661684236135513,0.3326363420498721
650,36.732,36.48,1.59,0.3527627032619943,0.28615491743342764,0.14486627731202634,0.11497691796574992,0.329259379893582,0.3330423518490559
651,36.753,36.53,1.3,0.3537189847151154,0.2852493967125457,0.14505327386232247,0.11491821082023955,0.33190099868094675,0.3334362629431908
652,36.795,36.59,1.54,0.3546558129175855,0.28432319796382377,0.14525105901833077,0.11485984766156765,0.3345412690760812,0.33381831766499775
653,36.856,36.64,1.72,0.3555734404418412,0.28337720904765834,0.14545967613889824,0.11480191069843267,0.33717977317154313,0.33418876132325825
654,36.917,36.7,1.51,0.35647212889827967,0.28241231671254075,0.1456791620905068,0.11474447959780393,0.3398161051554423,0.3345478420915039
655,36.979,36.75,1.57,0.35735214870354487,0.2814294060375377,0.14590954741028514,0.11468763157834705,0.34244987164518065,0.334895810900141
656,37.04,36.81,1.85,0.35821377884504085,0.28042935988958595,0.14615085647306983,0.11463144150762138,0.3450806919986845,0.3352329213320253
657,37.101,36.86,1.8,0.35905730664177116,0.2794130583955439,0.14640310766195858,0.11457598200277307,0.3477081986025522,0.3355594295214895
658,37.142,36.92,1.7,0.3598830275015998,0.2783813784289392,0.14666631354181064,0.11452132353443574,0.3503320371365821,0.33587559405680895
659,37.183,36.97,2.02,0.36069124467503516,0.27733519311135973,0.14694048103516053,0.11446753453353695,0.3529518668142084,0.3361816758860514
660,37.245,37.03,2.12,0.36148226900563735,0.27627537132843694,0.1472256116000349,0.11441468150069126,0.3555673605984588,0.3364779382261802
661,37.287,37.08,1.83,0.3622564186771599,0.2752027772603541,0.14752170140918847,0.114362829117842,0.35817820539314454,0.33676464647521254
662,37.37,37.14,2.06,0.36301401895753727,0.2741182699268047,0.147828741530291,0.11431204036180684,0.3607841022090982,0.3370420681271746
663,37.474,37.19,2.21,0.36375540193983796,0.27302270274631,0.14814671810659935,0.11426237661938643,0.3633847663053858,0.3373104726895651
664,37.495,37.25,1.94,0.3644809062803179,0.2719169231097943,0.1484756125376537,0.11421389780370449,0.3659799273055051,0.33757013160303984
665,37.515,37.3,1.94,0.3651908769337164,0.2708017719683084,0.14881540165953003,0.11416666247146078,0.3685693292886288,0.337821318163069
666,37.576,37.36,2.2,0.3658856648859368,0.2696780834347923,0.14916605792416904,0.11412072794079278,0.37115273085598705,0.33806430744334576
667,37.637,37.41,2.13,0.3665656268842455,0.2685466843997644,0.14952754957729794,0.11407615040944481,0.3737299051724908,0.33829937622073214
668,37.678,37.47,1.97,0.3672311251651009,0.2674083941608143,0.14989984083447286,0.1140329850729326,0.3763006399836867,0.3385268029015216
669,37.74,37.52,2.28,0.36788252717969444,0.2662640240657574,0.15028289205478393,0.1139912862423718,0.37886473760812917,0.33874686744877486
670,37.844,37.58,2.4,0.36852020531726315,0.2651143771692786,0.1506766599117925,0.11395110746161821,0.38142201490528493,0.3389598513104337
671,37.864,37.63,2.11,0.3691445366262181,0.26396024790285116,0.1510810975612965,0.113912501623349,0.3839723032191286,0.33916603734788886
672,37.904,37.69,2.36,0.36975590253313123,0.2628024217576931,0.1514961548055373,0.1138755210837147,0.3865154482976501,0.3393657097646759
673,37.966,37.74,2.52,0.3703546885596384,0.2616416749805054,0.15192177825346334,0.11384021777521064,0.38905131018858274,0.33955915403498593
674,38.007,37.8,2.3,0.3709412840373507,0.2604787742817265,0.1523579114766708,0.11380664331744035,0.39157976311174436,0.33974665683170413
675,38.068,37.85,2.31,0.3715160818208974,0.25931447655603707,0.1528044951606449,0.11377484912546741,0.39410069530845043,0.3399285059537292
676,38.13,37.91,2.53,0.3720794779992568,0.2581495286148504,0.15326146725093234,0.11374488651546792,0.39661400886852627,0.34010499025233754
677,38.211,37.96,2.43,0.3726318716055568,0.2569846669305148,0.15372876309389813,0.11371680680739217,0.39911961953549585,0.3402763995563276
678,38.232,38.02,2.22,0.3731736643255397,0.2558206173919193,0.15420631557174985,0.11369066142431818,0.401617456490551,0.3404430245956356
679,38.294,38.07,2.48,0.3737052602048822,0.2546580950711513,0.15469405523153673,0.11366650198814177,0.4041074621159133,0.3406051569230416
680,38.335,38.13,2.57,0.3742270653555276,0.2534978040007944,0.15519191040784688,0.11364438041120366,0.40658959173821,0.34076308883350365
681,38.397,38.18,2.24,0.3747394876611558,0.25234043696140035,0.1556998073389312,0.11362434898341456,0.40906381335246683,0.3409171132805935
682,38.459,38.24,2.49,0.3752429364818636,0.25118667527863214,0.15621767027596623,0.11360646045441895,0.41153010732731177,0.34106752378947963
683,38.501,38.29,2.69,0.37573782235810377,0.2500371886295572,0.1567454215851366,0.11359076811033864,0.41398846609199164,0.34121461436589884
684,38.583,38.35,2.52,0.376224556713922,0.24889263485756383,0.15728298184219425,0.11357732584464975,0.41643889380582044,0.34135867940058084
685,38.645,38.4,2.53,0.37670355155953356,0.24775365979537914,0.15783026991914534,0.11356618822276535,0.4188814060107065,0.34150001356863974
686,38.686,38.46,2.8,0.37717521919330266,0.2466208970956748,0.15838720306273393,0.1135574105399171,0.4213160292674677,0.3416389117234721
687,38.768,38.51,2.69,0.3776399719032139,0.24549496806875454,0.1589536969644593,0.11355104887194989,0.4237428007767244,0.34177566878471943
688,38.789,38.57,2.46,0.37809822166796553,0.24437648152682168,0.15952966582196496,0.11354716011866746,0.42616176798522337,0.3419105796198961
689,38.831,38.62,2.7,0.37855037985784423,0.24326603363434487,0.16011502239174022,0.11354580203940717,0.4285729881785087,0.3420439389193234
690,38.935,38.68,2.75,0.37899685693556556,0.2421642077640574,0.16070967803315608,0.11354703328057011,0.43097652806087666,0.3421760410640717
691,38.956,38.73,2.44,0.37943806215727016,0.2410715743581531,0.16131354274391438,0.11355091339488234,0.4333724633235577,0.3423071799866904
692,39.019,38.79,2.66,0.37987440327385563,0.23998869079429208,0.1619265251870154,0.11355750285222375,0.43576087820202497,0.3424376490246307
693,39.102,38.84,2.84,0.38030628623281126,0.23891610125608742,0.16254853270935887,0.11356686304193554,0.4381418650233117,0.34256774076639224
694,39.122,38.9,2.65,0.380734114880715,0.23785433660780725,0.16317947135210567,0.11357905626659379,0.4405155237441962,0.3426977468905505
695,39.162,38.95,2.63,0.38115829066654877,0.23680391427307673,0.16381924585294091,0.11359414572731401,0.44288196148110215,0.34282795799792554
696,39.223,39.01,2.93,0.38157921234599484,0.23576533811741215,0.1644677596403907,0.11361219550072067,0.4452412920325895,0.34295866343720244
697,39.304,39.06,2.87,0.3819972756868949,0.23473909833443884,0.1651249148203723,0.11363327050776452,0.4475936353953514,0.3430901511243158
698,39.326,39.12,2.63,0.3824128731760802,0.2337256713356499,0.16579061215520946,0.1136574364745962,0.4499391172746673,0.3432227073558962
699,39.387,39.17,2.89,0.38282639372781213,0.2327255196435519,0.16646475103539327,0.1136847598857185,0.4522778685902993,0.34335661661705974
700,39.448,39.23,2.98,0.3832382223940927,0.23173909178802465,0.16714722944441926,0.11371530792965105,0.45461002497885983,0.3434921613838087
701,39.488,39.28,2.63,0.3836487400771224,0.2307668222057147,0.1678379439170669,0.1137491484373577,0.456935726293694,0.343629621920357
702,39.55,39.34,2.82,0.38405832324419004,0.22980913114228654,0.1685367894914957,0.11378634981371777,0.4592551161033155,0.34376927607178703
703,39.612,39.39,2.96,0.38446734364528923,0.22886642455739092,0.16924365965551813,0.11382698096236855,0.46156834118943385,0.3439113990525557
704,39.674,39.45,2.74,0.38487616803376745,0.22793909403223955,0.16995844628739357,0.11387111120429418,0.4638755510455908,0.3440562632314701
705,39.736,39.5,2.68,0.385285157890336,0.2270275166797183,0.17068103959146635,0.113918810190578,0.4661768973773893,0.34420413791384175
706,39.798,39.56,2.93,0.38569466915077616,0.22613205505700365,0.17141132802894682,0.11397014780976736,0.46847253360526997,0.34435528912154806
707,39.839,39.61,2.86,0.38610505193768596,0.2252530570806721,0.1721491982441163,0.11402519409030695,0.47076261437074984,0.34450997937168193
708,39.902,39.67,2.63,0.38651665029659393,0.224390855944304,0.1728945349862366,0.1140840190984795,0.4730472950469975,0.3446684674543931
709,39.964,39.72,2.89,0.386929801936745,0.22354577003858928,0.17364722102744617,0.11414669283226521,0.4753267312545675,0.3448310082104387
710,40.067,39.78,3.01,0.3873448379768324,0.22271810287393412,0.17440713707693548,0.1142132851115055,0.4776010783830889,0.34499785230888524
711,40.087,39.83,2.68,0.3877620826959313,0.22190814300555908,0.17517416169170028,0.11428386546473997,0.4798704911196735,0.34516924602538385
712,40.108,39.89,2.85,0.38818185328986804,0.22111616396109202,0.17594817118415707,0.11435850301308578,0.48213512298477645,0.3453454310214648
713,40.189,39.94,3.03,0.38860445963325163,0.2203424241706917,0.17672903952687322,0.11443726635154712,0.4843951258762397,0.3455266441253432
714,40.209,40.0,2.83,0.3890302040473916,0.21958716689978866,0.17751663825463318,0.11452022342816534,0.4866506496222283,0.34571311711478736
715,40.27,40.05,2.82,0.3894593810743336,0.21885062018458287,0.1783108363640354,0.11460744142144276,0.4889018415437432,0.3459050765026607
716,40.331,40.11,3.07,0.3898922772572484,0.21813299677048842,0.1791115002107879,0.11469898661648799,0.4911488460273646,0.346102743325758
717,40.414,40.16,2.99,0.39032917092741853,0.21743449405373885,0.1799184934048658,0.11479492428032517,0.4933918041088779,0.3463063329375124
718,40.434,40.22,2.77,0.3907703319980736,0.21675529402635693,0.18073167670371154,0.11489531853678005,0.49563085306840926,0.34651605480505565
719,40.496,40.27,2.99,0.39121602176531134,0.21609556322466283,0.1815509079036872,0.11500023224131181,0.4978661260376925,0.3467321123110011
720,40.538,40.33,3.11,0.3916664927163233,0.21545545268144842,0.18237604173003097,0.11510972685610787,0.500097751620063,0.34695470256020244
721,40.601,40.38,2.79,0.39212198834510387,0.21483509788190736,0.18320692972562633,0.11522386232570128,0.5023258535237414,0.3471840161916717
722,40.662,40.44,3.03,0.39258274297577517,0.21423461872339675,0.1840434201389278,0.11534269695332998,0.5045505502089143,0.3474202371958209
723,40.723,40.49,3.22,0.3930489815936225,0.2136541194791179,0.18488535781140167,0.1154662872782418,0.5067719545490921,0.3476635427372022
724,40.785,40.55,3.04,0.39352091968391445,0.21309368876582419,0.1857325840648351,0.11559468795415646,0.5089901735072062,0.3479141029829486
725,40.826,40.6,3.02,0.3939987630785873,0.2125533995156914,0.18658493658885827,0.11572795162911383,0.5112053078268988,0.3481720809371481
726,40.886,40.66,3.27,0.394482707810885,0.21203330895251205,0.18744224932901768,0.11586612882695756,0.5134174517394768,0.3484376322813787
727,40.928,40.71,3.09,0.3949729399780733,0.21153345857238645,0.18830435237575502,0.11600926783070645,0.5156266926870323,0.3487109052215855
728,40.99,40.77,2.84,0.3954696356123657,0.21105387412908114,0.1891710718546792,0.11615741456805224,0.5178331110622194,0.348992040341433
729,41.051,40.82,3.08,0.3959729605602033,0.21059456562420903,0.19004222981855234,0.11631061249920224,0.5200367799651575,0.34928117046224794
730,41.153,40.88,3.17,0.39648307037002295,0.21015552730236878,0.1909176441414421,0.11646890250726209,0.5222377649778575,0.3495784205097026
731,41.173,40.93,2.84,0.39700011018862363,0.20973673765137446,0.1917971284155254,0.11663232279133547,0.5244361239564591,0.34988390738748976
732,41.214,40.99,3.04,0.39752421466619275,0.20933815940774148,0.19268049185103614,0.11680090876251215,0.5266319068414536,0.3501977398583734
733,41.275,41.04,3.24,0.3980555078700089,0.2089597395676469,0.19356753917983205,0.11697469294292742,0.5288251554859774,0.35052001843308916
734,41.336,41.1,3.09,0.39859410320679967,0.20860140940363298,0.19445807056303005,0.11715370486808836,0.5310159035022037,0.35085083526761474
735,41.377,41.15,3.05,0.39914010335370986,0.20826308448734882,0.19535188150313001,0.11733797099266934,0.5332041761258004,0.3511902740693388
736,41.458,41.21,3.34,0.3996936001978228,0.2079446647186419,0.19624876276102382,0.11752751459997982,0.5353899900984105,0.3515384100126261
737,41.52,41.26,3.27,0.40025467478417975,0.20764603436130571,0.19714850027828007,0.11772235571529185,0.537573353568112,0.351895309664205
738,41.541,41.32,3.1,0.4008233972722582,0.2073670620857709,0.19805087510510955,0.11792251102318899,0.539754266007815,0.3522610309187387
739,41.582,41.37,3.39,0.4013998269008831,0.2071076010189956,0.19895566333442577,0.1181279937890691,0.5419327181515573,0.35263562294487927
740,41.644,41.43,3.46,0.4019840119615726,0.20686748880177128,0.19986263604242602,0.11833881378490607,0.5441086919486656,0.3530191261420426
741,41.704,41.48,3.16,0.4025759897803264,0.20664654765362467,0.2007715592361192,0.11855497721935371,0.5462821605357454,0.35341157210811824
742,41.765,41.54,3.35,0.4031757867078668,0.2064445844454856,0.20168219380820554,0.1187764866722701,0.5484530882264638,0.35381298361832664
743,41.807,41.59,3.51,0.4037834181183341,0.20626139078030004,0.2025942954996726,0.11900334103375021,0.5506214305190843,0.3542233746154629
744,41.891,41.65,3.3,0.4043988884164324,0.20609674308178416,0.2035076148704292,0.11923553544776563,0.5527871341216989,0.354642750211791
745,41.932,41.7,3.25,0.40502219105300896,0.20595040269153458,0.20442189727825638,0.1194730612605181,0.5549501369950632,0.3550711067028858
746,41.995,41.76,3.53,0.405653308549041,0.20582211597472017,0.20533688286630591,0.11971590597361488,0.5571103684129105,0.3555084315936921
747,42.056,41.81,3.45,0.406292212527987,0.20571161443457417,0.20625230655934565,0.11996405320216065,0.559267749039583,0.35595470363700144
748,42.097,41.87,3.27,0.406938863756449,0.20561861483587407,0.20716789806892985,0.12021748263782879,0.5614221910247749,0.35640989288444413
749,42.138,41.92,3.56,0.40759321219307715,0.20554281933754964,0.20808338190765788,0.12047617001693571,0.5635735981151316,0.356873960749983
750,42.199,41.98,3.67,0.4082551970456339,0.20548391563450552,0.20899847741267188,0.12074008709350288,0.5657218657824342,0.35734686008578215
751,42.26,42.03,3.34,0.4089247468361295,0.20544157710869818,0.2099128987785359,0.12100920161725903,0.5678668813680658,0.35782853527026054
752,42.302,42.09,3.58,0.40960177947393284,0.20541546298949578,0.21082635509961345,0.12128347731651998,0.5700085242434554,0.35831892230814044
753,42.362,42.14,3.77,0.41028620233676794,0.20540521852336302,0.21173855042203074,0.12156287388588438,0.5721466659861909,0.35881794894232305
754,42.424,42.2,3.55,0.41097791235951625,0.20541047515294236,0.2126491838052843,0.12184734697868953,0.5742811705715015,0.35932553477748275
755,42.485,42.25,3.53,0.41167679613076696,0.20543085070563696,0.21355794939352982,0.12213684820417507,0.5764118945787909,0.35984159141531896
756,42.526,42.31,3.77,0.4123827299970675,0.20546594959182862,0.21446453649656,0.12243132512930563,0.5785386874129094,0.3603660226014127
757,42.627,42.36,3.65,0.413095580174839,0.2055153630128716,0.21536862968046927,0.12273072128519079,0.5806613915398446,0.3608987243835928
758,42.648,42.42,3.45,0.4138152028699169,0.20557866917899176,0.21626990886799963,0.12303497617801225,0.582779842736487,0.36143958528164394
759,42.769,42.47,3.73,0.41454144440465457,0.20565543353719332,0.21716804944855952,0.12334402530433124,0.5848938703540774,0.3619884864681028
760,42.79,42.53,3.83,0.4152741413525069,0.2057452090092276,0.21806272239789637,0.12365780017061334,0.5870032975949024,0.36254530195978574
761,42.811,42.58,3.51,0.41601312067998847,0.20584753623961724,0.21895359440739307,0.12397622831677975,0.5891079418017361,0.36310989881962435
762,42.852,42.64,3.77,0.41675819989588436,0.205961943853679,0.21984032802292183,0.12429923334358581,0.5912076147594776,0.3636821373683536
763,42.914,42.69,3.96,0.4175091872075848,0.20608794872545289,0.22072258179314028,0.12462673494364261,0.5933021230084125,0.36426187140558863
764,43.019,42.75,3.73,0.4182658816844177,0.2062250562554246,0.22160001042707275,0.12495864893591943,0.5953912681685057,0.36484894843985927
765,43.039,42.8,3.73,0.4190280734278685,0.20637276065791693,0.2224722649607797,0.1252948873035911,0.5974748472741304,0.36544320992720936
766,43.081,42.86,4.0,0.4197955437485996,0.20653054525802103,0.2233389929328929,0.12563535823511504,0.599552653118641,0.366044491517996
767,43.142,42.91,3.89,0.42056806535021174,0.20669788279792195,0.22419983856879344,0.1259799661684258,0.6016244746082107,0.3666526233115142
768,43.182,42.97,3.7,0.4213454025197179,0.20687423575244923,0.22505444297323288,0.12632861183811914,0.6036900971243349,0.36726743011806035
769,43.244,43.02,3.98,0.42212731132471165,0.20705905665365326,0.22590244433122295,0.12668119232547717,0.6057493028943793,0.3678887317280161
770,43.306,43.08,4.04,0.42291353981721425,0.20725178842417635,0.22674347811704276,0.12703760111116133,0.607801871369534,0.3685163431874787
771,43.389,43.13,3.69,0.4237038282441613,0.2074518647191657,0.22757717731122962,0.12739772813038153,0.6098475796094965,0.3691500750799326
772,43.409,43.19,3.93,0.4244979092644539,0.2076587102764803,0.22840317262541676,0.12776145983034629,0.6118862026731705,0.36978973381344393
773,43.449,43.24,4.11,0.42529550817244527,0.20787174127496574,0.22922109273485902,0.12812867922981594,0.6139175140146347,0.37043512191287004
774,43.511,43.3,3.85,0.4260963431276996,0.2080903657005939,0.23003056451846474,0.1284992659806078,0.6159412858835889,0.37108603831660164
775,43.572,43.35,3.85,0.4269001253908327,0.2083139837202862,0.23083121330612277,0.1288730964309382,0.6179572897294326,0.37174227867740756
776,43.613,43.41,4.15,0.42770655956522374,0.20854198806325822,0.23162266313308708,0.1292500436905214,0.619965296608099,0.3724036356669734
777,43.716,43.46,4.08,0.42851534384438283,0.20877376440973627,0.23240453700118033,0.12962997769736476,0.6219650775907347,0.37306989928373857
778,43.736,43.52,3.9,0.4293261702647624,0.2090086917868994,0.23317645714659435,0.13001276528620043,0.6239564041732806,0.3737408571636401
779,43.798,43.57,4.23,0.4301387249638006,0.20924614297189534,0.23393804531409296,0.13039827025848333,0.6259390486859818,0.3744162948933558
780,43.839,43.63,4.33,0.4309526884430045,0.20948548490175836,0.23468892303745056,0.1307863534538723,0.6279127847018651,0.3750959963256049
781,43.9,43.68,4.02,0.4317677358358867,0.209726079090031,0.2354287119259939,0.13117687282309523,0.6298773874432243,0.37577974389603286
782,43.962,43.74,4.26,0.43258353718057846,0.20996728204987453,0.23615703395713042,0.13156968350209935,0.6318326341851799,0.3764673189412016
783,44.043,43.79,4.43,0.43339975769695266,0.2102084457234495,0.23687351177475172,0.1319646378873982,0.6337783046554109,0.37715850201721046
784,44.105,43.85,4.14,0.4342160580680932,0.21044891791734865,0.23757776899340333,0.13236158571254658,0.6357141814291883,0.37785307321849454
785,44.126,43.9,4.16,0.43503209472595605,0.210688042743879,0.2382694305081004,0.132760374125701,0.6376400503188394,0.37855081249639516
786,44.168,43.96,4.49,0.43584752014104716,0.21092516106801074,0.2389481228096497,0.13316084776824907,0.6395557007567708,0.3792514999771252
787,44.23,44.01,4.37,0.4366619831159246,0.21115961095983218,0.23961347430532198,0.13356284885450934,0.6414609261711635,0.37995491627876676
788,44.292,44.07,4.25,0.43747512908229397,0.2113907281523608,0.240265115644714,0.1339662172525033,0.6433555243534134,0.3806608428269369
789,44.333,44.12,4.64,0.43828660040143114,0.2116178465045647,0.2409026800506399,0.1343707905657948,0.6452392978163933,0.38136906216872407
790,44.394,44.18,4.76,0.4390960366676308,0.21184029846943656,0.2415258036549,0.13477640421637627,0.6471120541426334,0.38207935828443834
791,44.457,44.23,4.49,0.43990307501436426,0.21205741556693802,0.24213412583880234,0.1351828915285652,0.6489736063215796,0.3827915168966669
792,44.519,44.29,4.79,0.44070735042282927,0.21226852886161743,0.24272728957833126,0.13559008381386978,0.6508237730751691,0.3835053257760974
793,44.561,44.34,4.96,0.44150849603259346,0.21247296944468597,0.24330494179387435,0.13599781045679502,0.6526623791710859,0.38422057504356255
794,44.623,44.4,4.64,0.44230614345407493,0.2126700689203239,0.24386673370444203,0.13640589900157776,0.6544892557231812,0.38493705746777696
795,44.663,44.45,4.7,0.44309992308265006,0.21285915989599535,0.24441232118632605,0.13681417523987024,0.656304240478639,0.3856545687582987
796,44.723,44.51,4.97,0.4438894644141956,0.2130395764765879,0.2449413651361361,0.13722246329942325,0.6581071780915513,0.3863729078533089
797,44.825,44.56,4.82,0.44467439636189277,0.21321065476224804,0.2454535318381509,0.13763058573385156,0.6598979203826123,0.38709187720186866
798,44.846,44.62,4.65,0.4454543475741052,0.2133717333498466,0.24594849333591215,0.13803836361357819,0.6616763265846435,0.38781128304037205
799,44.887,44.67,4.99,0.44622894675312447,0.2135221538380616,0.24642592780798306,0.13844561661806404,0.6634422635736672,0.3885309356629387
800,44.948,44.73,5.06,0.4469978229745526,0.2136612613360816,0.24688551994779032,0.13885216312942453,0.6651956060852572,0.389250649685458
801,45.01,44.78,4.75,0.4477606060070651,0.21378840497591894,0.24732696134748214,0.13925782032751918,0.666936236915908,0.38997024430295474
802,45.051,44.84,5.07,0.44851692663227866,0.2139029384282886,0.24774995088574145,0.13966240428658694,0.6686640471091885,0.3906895435399107
803,45.114,44.89,5.24,0.44926641696445363,0.21400422042196707,0.2481541951195051,0.14006573007349296,0.6703789361265027,0.3914083764931603
804,45.197,44.95,4.92,0.4500087107697831,0.2140916152665017,0.24853940867955043,0.14046761184765005,0.6720808120023459,0.3921265775670097
805,45.217,45.0,5.06,0.45074344378506837,0.2141644933781259,0.2489053146699179,0.14086786296269033,0.67376959148401,0.3928439867003053
806,45.3,45.06,5.33,0.4514702540356226,0.21422223180874547,0.24925164507112754,0.14126629606998212,0.6754452001557671,0.39356044958525804
807,45.321,45.11,5.18,0.4521887821522939,0.2142642147778917,0.24957814114713758,0.14166272322410597,0.6771075725476315,0.3942758178778993
808,45.403,45.17,5.05,0.4528986716875364,0.21428983420757275,0.24988455385598315,0.14205695599041604,0.67875665222885,0.39498994940010185
809,45.445,45.22,5.39,0.4535995694304807,0.21429849025999315,0.25017064426401014,0.1424488055548171,0.6803923918863347,0.3957027083331223
810,45.508,45.28,5.39,0.45429112572097347,0.21428959187812605,0.25043618396361444,0.1428380828358841,0.6820147533883244,0.39641396540259066
811,45.59,45.33,5.01,0.4549729947625685,0.21426255732910826,0.2506809554943885,0.14322459859943987,0.6836237078336151,0.3971235980548534
812,45.611,45.39,5.28,0.45564483493447394,0.21421681475039545,0.2509047527675699,0.14360816357570574,0.6852192355867592,0.3978314906245588
813,45.652,45.44,5.39,0.45630630910247755,0.2141518026985611,0.251107381493675,0.14398858857914887,0.6868013262996797,0.3985375344933819
814,45.713,45.5,5.04,0.4569570849288974,0.21406697070057387,0.25128865961320873,0.1443656846311572,0.6883699789201604,0.3992416282398409
815,45.774,45.55,5.2,0.4575968351816211,0.21396177980735848,0.2514484177303456,0.1447392630856809,0.6899252016876491,0.3999436777802527
816,45.837,45.61,5.46,0.45822523804229115,0.21383570314944897,0.25158649954947054,0.14510913575799936,0.6914670121167928,0.40064359650097514
817,45.961,45.66,5.31,0.45884197741369653,0.21368822649456262,0.2517027623144582,0.1454751150567858,0.6929954369691135,0.4013413053821562
818,45.981,45.72,5.24,0.4594467432264224,0.21351884880695687,0.25179707725055583,0.14583701411966082,0.6945105122132375,0.4020367331132746
819,46.001,45.77,5.56,0.4600392317448084,0.21332708280846957,0.2518693300087082,0.14619464695243872,0.6960122829741351,0.4027298162007792
820,46.043,45.83,5.57,0.4606191458722699,0.21311245554116312,0.2519194211121591,0.14654782857227808,0.6975008034718999,0.40342049906810723
821,46.104,45.88,5.22,0.4611861954560545,0.21287450893148638,0.25194726640517473,0.14689637515493675,0.6989761369506765,0.40410873414833176
822,46.144,45.94,5.46,0.46174009759152346,0.21261280035584035,0.2519527975037591,0.1472401041863212,0.7004383555984262,0.4047944819696579
823,46.206,45.99,5.56,0.46228057692607694,0.21232690320738862,0.2519359622482624,0.14757883461850818,0.7018875404582912,0.40547771123397885
824,46.287,46.05,5.17,0.4628073659628782,0.21201640746390887,0.25189672515781314,0.1479123870304139,0.7033237813323513,0.40615839888876226
825,46.328,46.1,5.31,0.46332020536453977,0.21168092025645982,0.25183506788651006,0.14824058379329022,0.7047471766785477,0.40683653019264665
826,46.37,46.16,5.47,0.46381884425694786,0.2113200664386377,0.2517509896812927,0.14856324924124728,0.7061578335015211,0.4075120987752454
827,46.431,46.21,5.27,0.46430304053338955,0.21093348915620566,0.2516445078413698,0.14888020984701347,0.7075558672380595,0.408185106691736
828,46.493,46.27,5.16,0.46477256115912824,0.21052085041688706,0.2515156581790472,0.1491912944031435,0.7089414016377957,0.40885556447285853
829,46.535,46.32,5.44,0.465227182476542,0.21008183166012023,0.251364495481751,0.14949633420887679,0.7103145686397415,0.40952349117093
830,46.597,46.38,5.37,0.4656666905109008,0.20961613432655504,0.2511910939750042,0.1497951632628244,0.7116755082452159,0.4101889144024057
831,46.681,46.43,5.09,0.4660908812768216,0.2091234804270393,0.25099554778609384,0.15008761846162913,0.7130243683876777,0.41085187038744175
832,46.702,46.49,5.38,0.46649956108540364,0.20860361311079753,0.2507779714081402,0.1503735398047122,0.714361304799947,0.4115124039868416
833,46.765,46.54,5.49,0.4668925468520243,0.20805629723245025,0.25053850016426177,0.15065277060519114,0.7156864808792727,0.41217056873671837
834,46.828,46.6,5.15,0.467269666404765,0.20748131991747606,0.250277290671514,0.15092515770703135,0.7170000675506814,0.4128264268812019
835,46.87,46.65,5.33,0.46763075879342114,0.20687849112570517,0.24999452130425143,0.15119055170848303,0.7183022431290164,0.4134800494035519
836,46.932,46.71,5.51,0.4679756745990321,0.206247644212449,0.24969039265652274,0.15144880719186543,0.7195931931800726,0.41413151605607396
837,46.974,46.76,5.28,0.46830427624386073,0.20558863648689032,0.24936512800306387,0.1516997829597682,0.7208731103812384,0.4147809153892673
838,47.035,46.82,5.18,0.46861643830173694,0.2049013497673761,0.2490189737584133,0.15194334227774556,0.722142194382036,0.4154283447806495
839,47.096,46.87,5.44,0.4689120478086759,0.2041856909332626,0.24865219993362475,0.1521793531235787,0.7234006516649405,0.4160739104636789
840,47.137,46.93,5.34,0.4691910045736571,0.20344159247294885,0.24826510059000675,0.15240768844316813,0.7246486954068347,0.41671772755712405
841,47.218,46.98,5.06,0.469453221489421,0.20266901302769996,0.24785799428928393,0.15262822641309162,0.7258865453414105,0.41735992009513995
842,47.259,47.04,5.34,0.4696986248430966,0.20186793793081378,0.24743122453953192,0.15284085070982675,0.7271144276227637,0.41800062105820746
843,47.3,47.09,5.45,0.4699271546264121,0.20103837974161937,0.24698516023619754,0.1530454507856047,0.7283325746903831,0.41863997240499157
844,47.402,47.15,5.09,0.4701387648451868,0.2001803787737426,0.24652019609748127,0.15324192215082724,0.7295412251356614,0.4192781251051195
