,Time_Host,Time_Arduino,easingdata,CH1_Oxy,CH1_Deoxy,CH2_Oxy,CH2_Deoxy,CH3_Oxy,CH3_Deoxy
0,1.161,0.04,0.0,0.0,0.9292402634333379,0.0,0.6518631474793565,0.0,1.0
1,1.182,0.1,0.0,0.006992576989546032,0.9088801154634382,0.005830639310492359,0.6497187565934578,0.004671297584476712,0.9869478840256414
2,1.202,0.16,0.0,0.013942910238095409,0.8886925362386432,0.011619774877426327,0.6476608930696001,0.009333966257590065,0.9739724000278546
3,1.222,0.21,0.0,0.02084847639499292,0.8686853363480895,0.017365359062622505,0.6456901545974634,0.013986435721683512,0.9610785707913113
4,1.243,0.27,0.0,0.02770679865676181,0.84886616895484,0.02306538685820497,0.6438070624494461,0.018627152362508635,0.9482713461929262
5,1.263,1.06,0.0,0.03451544897841449,0.8292425236512436,0.02871789745566697,0.6420120616389797,0.02325458064205834,0.9355555990370596
6,1.283,1.11,0.0,0.04127205020897182,0.8098217205696202,0.03432097574269752,0.6403055211983405,0.02786720445728456,0.9229361210133437
7,1.324,1.17,0.0,0.047974278149028195,0.7906109047518912,0.039872753727092314,0.638687734572006,0.03246352846290634,0.9104176187805748
8,1.385,1.22,0.0,0.05461986352838514,0.7716170407810847,0.04537141188727379,0.6371589201212051,0.03704207935659511,0.8980047101797801
9,1.447,1.28,0.0,0.06120659390195327,0.752846907676971,0.05081518044914096,0.6357192217349124,0.041601407124900784,0.8857019205792271
10,1.489,1.33,-0.26,0.06773231546229345,0.7343070940574353,0.056202340589157435,0.634368709542139,0.04614008624835143,0.8735136793538473
11,1.551,1.39,0.34,0.07419493476732492,0.7160039935665814,0.061531225563746884,0.6331073807200207,0.05065671686421194,0.8614443165013176
12,1.652,1.44,0.17,0.08059242038185603,0.6979438005700794,0.06680022176514107,0.6319351603919827,0.05514992588542228,0.8494980593969809
13,1.673,1.5,-0.12,0.08692280443169359,0.6801325061179877,0.07200776970377562,0.6308519026104035,0.059618368074300376,0.8376790296897876
14,1.713,1.55,0.22,0.09318418406920344,0.6625758941751275,0.07715236491722678,0.6298573914186639,0.06406072706974106,0.8259912403413252
15,1.775,1.61,0.34,0.09937472284937232,0.6452795381188929,0.08223255880568557,0.6289513419879937,0.0684757163668307,0.8144385928096901
16,1.838,1.66,0.16,0.1054926520156197,0.6282487975041403,0.0872469593940965,0.628133401824841,0.07286208024794139,0.8030248743797024
17,1.898,1.72,0.04,0.11153627169476607,0.6114888150947212,0.09219423202121713,0.6274031520446905,0.07721859466448339,0.7917537556407787
18,2.001,1.77,0.47,0.11750395200069427,0.5950045141612216,0.09707309995592774,0.6267601087083898,0.0815440680686369,0.780628788113509
19,2.022,1.83,0.28,0.12339413404638844,0.5788005960443481,0.10188234494119724,0.6262037242170866,0.08583734219452742,0.7696534020256873
20,2.062,1.88,-0.06,0.12920533086418534,0.5628815379831827,0.10662080766620391,0.6257333887618024,0.09009729278841205,0.7588309042383282
21,2.103,1.94,0.5,0.13493612823419562,0.547251591207321,0.1112873881671992,0.6253484318236098,0.09432283028753873,0.7481644763220212
22,2.168,1.99,0.33,0.1405851854209458,0.5319147792916932,0.11588104615780426,0.6250481237203589,0.09851290044742998,0.7376571727837883
23,2.229,2.05,0.03,0.14615123581835748,0.5168748967726182,0.12040080128950519,0.6248316771960335,0.10266648491740245,0.7273119194445055
24,2.291,2.1,0.27,0.15163308750321908,0.5021355080234137,0.12484573334312334,0.6246982490492065,0.10678260176418727,0.7171315119668782
25,2.374,2.16,0.41,0.15702962369735166,0.4876999463876319,0.12921498235204398,0.624646941797563,0.11086030594358219,0.7071186145338042
26,2.396,2.21,0.27,0.16233980313873905,0.4735713135677299,0.13350774865805537,0.6246768053757731,0.11489868972010026,0.6972757586768411
27,2.458,2.27,0.12,0.16756266036195458,0.4597524792668544,0.13772329290073268,0.6247868388640767,0.1188968830345979,0.6876053422544479
28,2.479,2.32,0.6,0.17269730588829452,0.44624608108141284,0.14186093594136828,0.6249759922449131,0.12285405381992281,0.6781096285795525
29,2.542,2.38,0.41,0.17774292632615846,0.4330545246419811,0.14592005872252842,0.625243168184783,0.12676940826471308,0.668790745695815
30,2.605,2.43,0.07,0.18269878438238185,0.42017998399982165,0.14990010206440554,0.6255872238383384,0.1306421910255648,0.65965068580181
31,2.648,2.49,0.64,0.1875642187853965,0.40762440225594093,0.15380056639921608,0.626006972671567,0.1344716853878808,0.6506913048222163
32,2.732,2.54,0.52,0.19233864412125534,0.39538949242925303,0.15762101144498658,0.6265011863008875,0.13825721337581098,0.6419143221249425
33,2.793,2.6,0.25,0.19702155058369022,0.38347673856008974,0.1613610558201425,0.6270685963450898,0.14199813581176346,0.6333213203830578
34,2.814,2.65,0.42,0.2016125036394701,0.3718873970450449,0.1650203766003046,0.6277078962874598,0.14569385232603405,0.6249137455803271
35,2.877,2.71,0.58,0.20611114361042113,0.36062249819883235,0.1685987088186703,0.6284177433459185,0.14934380131719469,0.6166929071589823
36,2.919,2.76,0.44,0.2105171851735628,0.3496828480383502,0.17209584491139984,0.6291967603492542,0.15294745986394445,0.6086599783081521
37,2.982,2.82,0.23,0.21483041678086576,0.3390690302836753,0.17551163410950787,0.6300435376174499,0.15650434358914805,0.6008159963912352
38,3.045,2.87,0.75,0.21905070000015303,0.3287814085703284,0.17884598177883507,0.6309566348438841,0.1600140064768193,0.5931618635103032
39,3.108,2.93,0.56,0.22317796877870355,0.31882012886678024,0.18209884870975343,0.6319345829769185,0.16347604064285162,0.5856983472053696
40,3.15,2.98,0.2,0.22721222863118157,0.3091851220908073,0.18527025035833175,0.6329758860981544,0.1668900760603365,0.5784260812861376
41,3.232,3.04,0.77,0.2311535557536062,0.29987610691801964,0.18836025604074777,0.6340790232945314,0.17025578024037158,0.5713455667936249
42,3.252,3.09,0.71,0.23500209606518432,0.29089259277564905,0.19136898808281183,0.6352424505214295,0.1735728578693349,0.5644571730888579
43,3.315,3.15,0.48,0.2387580641799494,0.28223388301452557,0.1942966209265274,0.6364646024540829,0.17684105040365616,0.5577611390657377
44,3.376,3.2,0.6,0.24242174231025196,0.27389907825213405,0.1971433801955769,0.6377438943250385,0.18006013562317935,0.5512575744851076
45,3.458,3.26,0.84,0.24599347910427136,0.26588707987956,0.19990954172153766,0.6390787237459392,0.18322992714432507,0.5449464614268374
46,3.478,3.31,0.68,0.2494736884198666,0.2581965937248597,0.2025954305326017,0.6404674725122348,0.1863502738943642,0.5388276558564696
47,3.538,3.37,0.43,0.25286284803720954,0.2508261338650865,0.20520141980659257,0.6419085083894481,0.1894210595481861,0.5329008893027841
48,3.62,3.42,0.94,0.25616149831273166,0.24377402657902858,0.20772792979010293,0.6434001868795005,0.19244220192901432,0.527165770642461
49,3.661,3.48,0.71,0.2593702407769821,0.23703841443258664,0.21017542668562803,0.6449408529654204,0.19541365237458716,0.5216217879878419
50,3.743,3.53,0.32,0.262489736679039,0.23061726048859796,0.21254442150862118,0.6465288428326044,0.19833539507034803,0.5162683106736948
51,3.764,3.59,0.81,0.2655207054801276,0.22450835263280744,0.2148354689164247,0.6481624855647854,0.201207446351204,0.5111045913388126
52,3.825,3.64,0.79,0.26846392329908275,0.21870930800755664,0.21704916601106602,0.6498401048129286,0.20402985397341217,0.506129768098221
53,3.866,3.7,0.57,0.2713202213122684,0.21321757754463744,0.21918615111794373,0.6515600204354136,0.20680269635811319,0.5013428668018111
54,3.926,3.75,0.63,0.274090484110529,0.208030450588783,0.221247102542393,0.6533205501081343,0.20952608180799992,0.4967428033752718
55,3.968,3.81,0.96,0.2767756480157537,0.20314505960333126,0.22323273730604629,0.6551200109034807,0.21220014769863704,0.4923283862390957
56,4.031,3.86,0.78,0.279376699359703,0.19855838494955513,0.22514380986487464,0.6569567208373249,0.214825059645999,0.48809831880124854
57,4.091,3.92,0.5,0.2818946727278362,0.19426725973112216,0.2269811108107948,0.6588290003830723,0.21740101065183562,0.48405120201898216
58,4.133,3.97,1.08,0.2843306491709472,0.1902683746952651,0.22874546555872574,0.6607351739517201,0.2199282202285391,0.48018553702516686
59,4.215,4.03,0.88,0.2866857543874684,0.18655828318243742,0.2304377330209855,0.6626735713367092,0.22240693350525473,0.4764997278144369
60,4.256,4.08,0.48,0.28896115687933976,0.18313340611640985,0.23205880427092845,0.6646425291222906,0.22483742031702023,0.4729920839844559
61,4.297,4.14,0.9,0.29115806608435296,0.17999003702693256,0.2336096011976994,0.6666403920542083,0.2272199742787589,0.4696608235276523
62,4.36,4.19,0.91,0.2932777304878875,0.17712434709718392,0.23509107515397554,0.668665514371697,0.2295549118459889,0.4665040756688112
63,4.421,4.25,0.68,0.2953214357169198,0.17453239022833406,0.23650420559857535,0.6707162610999482,0.2318425713640949,0.4635198837440236
64,4.462,4.3,0.63,0.29729050261908935,0.17221010811381385,0.23784999873576532,0.6727910093024093,0.2340833121079679,0.4607062081166506
65,4.565,4.36,0.96,0.29918628532946856,0.17015333531619975,0.23912948615297883,0.6748881492925085,0.2362775133138032,0.4580609291259656
66,4.586,4.41,0.76,0.30101016932756114,0.16835780433981187,0.24034372345855745,0.6770060858045083,0.23842557320483204,0.45558185006405466
67,4.628,4.47,0.48,0.3027635694869344,0.166819150692273,0.2414937889210365,0.6791432391231541,0.24052790801271737,0.45326670017653736
68,4.691,4.52,1.05,0.30444792811978144,0.16553291792853195,0.24258078211141004,0.6812980461717224,0.2425849509963025,0.4511131376826721
69,4.754,4.58,0.86,0.30606471301862287,0.1644945626711607,0.2436058225497454,0.6834689615580056,0.24459715145937636,0.44911875281042457
70,4.795,4.63,0.52,0.3076154154973207,0.16369945960103935,0.2445700483574643,0.6856544585777635,0.24656497376909126,0.4472810708421613
71,4.855,4.69,0.85,0.3091015484335589,0.16314290641289633,0.24547461491655542,0.68785303017531,0.24848889637666152,0.44559755516673816
72,4.958,4.74,0.93,0.31052464431495763,0.16282012873052285,0.24632069353697703,0.6900631898611069,0.25036941084198205,0.44406561033383907
73,4.979,4.8,0.75,0.3118862532909877,0.16272628497684816,0.24710947013355594,0.6922834725863499,0.2522070208637824,0.4426825851065936
74,5.019,4.85,0.62,0.31318794123280724,0.16285647119456312,0.24784214391369094,0.6945124355746387,0.25400224131688326,0.441445775508755
75,5.082,4.91,1.0,0.31443128780306445,0.163205725813546,0.24851992607710663,0.6967486591109345,0.2557555972981111,0.44035242786287687
76,5.144,4.96,0.77,0.3156178845376483,0.16376903436178297,0.2491440385288486,0.698990747288004,0.25746762318241845,0.439399741816
77,5.185,5.02,0.43,0.3167493329413052,0.16454133411679864,0.24971571260667733,0.7012373287104323,0.25913886169071737,0.43858487334951635
78,5.246,5.07,0.97,0.3178272425989539,0.1655175186949393,0.2502361878239908,0.7034870571561433,0.2607698629708723,0.43790493777004175
79,5.307,5.13,0.78,0.31885322930442067,0.16669244257614713,0.2507067106293972,0.7057386121952596,0.26236118369322714,0.43735701267829596
80,5.348,5.18,0.46,0.3198289132082057,0.16806092556211158,0.25112853318403494,0.7079906997661417,0.2639133861619405,0.43693814091321653
81,5.413,5.24,0.7,0.3207559169857729,0.16961775716592803,0.2515029121576652,0.7102420527086852,0.26542703744330615,0.4366453334687629
82,5.494,5.29,0.83,0.3216358640277767,0.1713577009315851,0.2518311075444863,0.7124914312552848,0.2669027085121634,0.43647557238103096
83,5.515,5.35,0.66,0.32247037665359574,0.17327549868176895,0.25211438149958254,0.7147376234801099,0.2683409734173995,0.43642581358350757
84,5.575,5.4,0.51,0.32326107434949597,0.175365874692774,0.2523539971968676,0.7169794457074756,0.26974240846743824,0.4364929897285877
85,5.658,5.46,0.97,0.32400957203270814,0.177623539795737,0.2525512177092874,0.7192157428802024,0.27110759143653995,0.43667401297369235
86,5.679,5.51,0.77,0.32471747834270076,0.18004319540374888,0.2527073049119847,0.7214453888888352,0.2724371007926995,0.4369657777304768
87,5.739,5.57,0.42,0.3253863939609482,0.18261953746459716,0.25282351840909545,0.7236672868624537,0.2737315149478883,0.43736516337579406
88,5.8,5.62,1.01,0.3260179099605123,0.18534726033901336,0.2529011144848304,0.725880369421657,0.27499141153135465,0.43786903692325063
89,5.842,5.68,0.87,0.3266136061867696,0.18822106060435423,0.25294134507949306,0.7280835988942339,0.27621736668667557,0.43847425565434467
90,5.904,5.73,0.59,0.32717504967061617,0.1912356407836882,0.2529454567910644,0.7302759674941275,0.2774099543932087,0.43917766970841043
91,5.965,5.79,0.76,0.3277037930754581,0.19438571300035182,0.25291468990289095,0.7324564974646954,0.27856974581256094,0.4399761246308311
92,6.027,5.84,0.92,0.32820137317927695,0.19766600255805564,0.2528502774379253,0.7346242411877548,0.279697308660685,0.44086646387907663
93,6.068,5.9,0.76,0.3286693093930498,0.2010712514464667,0.2527534442399594,0.7367782812601366,0.2807932066061799,0.44184553128620707
94,6.13,5.95,0.56,0.32910910231675927,0.20459622177203995,0.2526254060823198,0.7389177305394192,0.28185799869529793,0.44291017348161704
95,6.213,6.01,1.09,0.3295222323341659,0.20823569911380568,0.2524673688045119,0.7410417321603192,0.28289223880409814,0.4440572422688778
96,6.233,6.06,0.87,0.3299101582474676,0.2119844958037672,0.2522805274773196,0.7431494595229369,0.28389647511814686,0.4452835969605399
97,6.273,6.12,0.51,0.3302743159529533,0.21583745413149916,0.25206606559689265,0.7452401162537898,0.2848712496401224,0.44658610666976334
98,6.334,6.17,1.08,0.33061611715874356,0.2197894494725269,0.25182515430835734,0.7473129361403832,0.2858170977256603,0.44796165255865134
99,6.397,6.23,0.99,0.33093694814571345,0.22383539334005537,0.2515589516594985,0.7493671830399874,0.2867345476477675,0.44940713004314614
100,6.459,6.28,0.75,0.33123816857268823,0.2279702363596447,0.25126860188505296,0.7514021507633737,0.28762412019009764,0.45091945095444447
101,6.519,6.34,0.87,0.331521110326979,0.23218897116654746,0.25095523472205467,0.7534171629345966,0.28848632826935355,0.4524955456569775
102,6.581,6.39,1.08,0.33178707642131877,0.23648663522549357,0.2506199647565375,0.7554115728283687,0.2893216765870963,0.45413236512294264
103,6.642,6.45,0.91,0.33203733993827167,0.24085831357258258,0.2502638908018246,0.757384763186785,0.2901306613112425,0.45582688296323576
104,6.662,6.5,0.66,0.33227314302318495,0.2452991414787674,0.24988809530860037,0.7593361460170792,0.2909137697874992,0.4575760974145642
105,6.766,6.56,1.15,0.3324956959267227,0.24980430703430512,0.24949364380693562,0.7612651623718549,0.29167148028095463,0.45937703328242935
106,6.808,6.61,0.91,0.33270617609797604,0.2543690536534547,0.24908158438042324,0.7631712821129615,0.2924042617480088,0.4612267438395638
107,6.83,6.67,0.51,0.332905727329096,0.25898868249858037,0.2486529471725769,0.7650540036599036,0.29311257363875914,0.4631223126793583
108,6.89,6.72,1.0,0.33309545895230647,0.26365855482273204,0.2482087439256233,0.7669128537235268,0.2937968657298756,0.4650608555237888
109,6.953,6.78,0.95,0.3332764450900621,0.2683740942296775,0.2477499675518221,0.7687473870256315,0.29445757798790473,0.46703952198535786
110,6.994,6.83,0.74,0.33344972395902195,0.27313078885029185,0.24727759173744748,0.7705571860051633,0.29509514046280844,0.4690554972826912
111,7.056,6.89,0.8,0.3336162972284155,0.27792419343425245,0.24679257057949677,0.7723418605117808,0.29570997321142606,0.4711060039095774
112,7.157,6.94,1.1,0.3337771294333407,0.28274993135600884,0.24629583825507184,0.7741010474878424,0.2963024862504884,0.4731883032572227
113,7.178,7.0,0.9,0.3339331474435458,0.2876036965338547,0.24578830872330745,0.7758344106399119,0.2968730795387838,0.47529969718936277
114,7.218,7.05,0.65,0.3340852399882757,0.29248125526076374,0.24527087545968285,0.7775416401007402,0.2974221429880393,0.47743752956979185
115,7.279,7.11,1.21,0.33423425723775324,0.2973784479456195,0.24474441122251855,0.7792224520824405,0.29795005650205925,0.4795991877417813
116,7.32,7.16,0.99,0.3343810104418438,0.3022911907634946,0.2442097678514438,0.7808765885213284,0.29845719004364535,0.48178210395875704
117,7.402,7.22,0.61,0.3345262716264058,0.30721547721364684,0.24366777609761192,0.7825038167146627,0.29894390372878865,0.483983756765566
118,7.444,7.27,1.04,0.3346707733477642,0.31214737958390937,0.24311924548542604,0.7841039289494041,0.2994105479475846,0.4862016723296362
119,7.567,7.33,1.05,0.3348152085056721,0.3170830503200911,0.24256496420555504,0.7856767421230682,0.2998574635112909,0.4884334257213071
120,7.588,7.38,0.83,0.3349602302150286,0.32201872329893183,0.2420056990390472,0.7872220973567213,0.3002849818248684,0.4906766421426728
121,7.609,7.44,0.84,0.3351064517364819,0.32695071500322326,0.2414421953122982,0.788739859600272,0.30069342508425095,0.49292899810438706
122,7.65,7.49,1.2,0.33525444646589725,0.3318754255978664,0.24087517688250598,0.7902299172303895,0.30108310649754416,0.4951882225498266
123,7.731,7.55,1.01,0.3354047479825551,0.336789339905734,0.24030534615314228,0.7916921816414143,0.30145433052932885,0.4974520979258643
124,7.794,7.6,0.73,0.33555785015585404,0.34168902828235465,0.23973338411889125,0.7931265868295261,0.30180739316721583,0.49971846119940877
125,7.876,7.66,1.33,0.3357142073102006,0.34657114738872125,0.23915995043943103,0.7945330889702601,0.30214258220979273,0.5019852048187642
126,7.895,7.71,1.14,0.3358742344476889,0.3514324408618537,0.23858568354137338,0.7959116659893446,0.3024601775751138,0.5042502776187674
127,7.936,7.77,0.78,0.3360383075280992,0.3562697398830175,0.2380112007476258,0.7972623171267482,0.3027604516288825,0.5065116856686478
128,7.998,7.82,1.15,0.33620676380566394,0.3610799636437656,0.23743709843337987,0.7985850624939332,0.303043669531482,0.5087674930615778
129,8.039,7.88,1.19,0.3363799022219619,0.3658601197101954,0.23686395220791534,0.799879942624455,0.30331008960302414,0.5110158226449034
130,8.103,7.93,0.97,0.33655798385418917,0.37060730428604255,0.23629231712142792,0.8011470180181846,0.30355996370555305,0.5132548566901499
131,8.163,7.99,0.85,0.3367412324178892,0.3753187023755782,0.23572272789604828,0.8023863686795544,0.3037935376414813,0.51548283750209
132,8.245,8.04,1.21,0.3369298348230314,0.37999158784765225,0.235155699180103,0.8035980936504019,0.3040110515672887,0.5176980679662417
133,8.265,8.1,0.98,0.33712394178214694,0.38462332340246713,0.23459172582456775,0.8047823105379979,0.30421274042146335,0.5198989120341793
134,8.327,8.15,0.68,0.3373236684690388,0.38921136044284604,0.23403128318058689,0.8059391550387179,0.3043988343655671,0.5220837951461375
135,8.367,8.21,1.31,0.33752909522637,0.3937532388520298,0.23347482741686973,0.8070687804576315,0.30456955923720197,0.5242512045904859
136,8.471,8.26,1.12,0.337740268320247,0.3982465866802945,0.23292279585572737,0.8081713572241661,0.30472513701356607,0.5263996897997238
137,8.493,8.32,0.78,0.33795720073977753,0.4026891197428897,0.23237560732646592,0.8092470724040052,0.3048657862842128,0.5285278625827465
138,8.532,8.37,1.1,0.33817987303950486,0.40707864113198516,0.2318336625347635,0.8102961292076661,0.3049917227315967,0.5306343972932346
139,8.616,8.43,1.22,0.33840823422259997,0.41141304064547113,0.23129734444660757,0.8113187464965854,0.3051031596179934,0.5327180309340631
140,8.678,8.48,1.03,0.33864220266268985,0.41569029413561,0.2307670186853893,0.8123151582877624,0.3052003082773597,0.5347775631977768
141,8.698,8.54,0.92,0.33888166706216055,0.41990846278085164,0.23024303394077222,0.8132856132580711,0.3052833786106476,0.5368118564434021
142,8.759,8.59,1.36,0.33912648744471685,0.4240656922845321,0.22972572238793343,0.8142303742493294,0.3053525795830783,0.538819835610006
143,8.82,8.65,1.14,0.339376496179945,0.4281602120044578,0.22921540011577166,0.8151497177750557,0.3054081197218965,0.5408004880674806
144,8.862,8.7,0.8,0.33963149903760026,0.4321903340175391,0.22871236756269658,0.8160439335295795,0.30545020761310687,0.5427528634051517
145,8.923,8.76,1.41,0.33989127626929194,0.43615445212377135,0.22821690995863414,0.8169133238999083,0.3054790523956947,0.5446760731589525
146,8.985,8.81,1.22,0.3401555837151747,0.4400510407939566,0.22772929777192313,0.8177582034805577,0.3054948642518213,0.546569290477985
147,9.028,8.87,0.9,0.3404241539331693,0.44387865406561167,0.22724978715980315,0.8185788985914825,0.30549785489145714,0.5484317497314466
148,9.089,8.92,1.2,0.34069669734813546,0.44763592439158617,0.22677862042116523,0.8193757467994899,0.3054882380298899,0.5502627460570194
149,9.153,8.98,1.36,0.34097290341834346,0.4513215614459268,0.22631602645022283,0.8201490964438236,0.30546622985654676,0.5520616348518764
150,9.195,9.03,1.21,0.3412524418165554,0.4549343508914742,0.22586222118982618,0.8208993061667375,0.305432049493547,0.5538278312075355
151,9.256,9.09,1.07,0.3415349636229989,0.45847315311371667,0.22541740808321675,0.8216267444497918,0.3053859194423766,0.5555608092899312
152,9.38,9.14,1.58,0.3418201025275116,0.4619369019255722,0.22498177852306753,0.8223317891564024,0.30532806601711016,0.5572601016661307
153,9.4,9.2,1.37,0.34210747603817465,0.4653246032478357,0.22455551229670556,0.823014827080897,0.3052587197626751,0.5589252985791031
154,9.442,9.25,1.01,0.3423966866938291,0.4686353337699693,0.22413877802647986,0.8236762535039835,0.3051781158567161,0.5605560471720222
155,9.482,9.31,1.63,0.3426873232779513,0.47186823959577356,0.22373173360430418,0.8243164717542439,0.3050864944936852,0.5621520506636682
156,9.545,9.36,1.48,0.3429789620314517,0.47502253487828233,0.22333452661950423,0.8249358927750299,0.3049841012498545,0.5637130674765981
157,9.586,9.42,1.19,0.3432711678620273,0.4780975004480352,0.22294729477918432,0.8255349346960774,0.3048711874279819,0.5652389103199469
158,9.628,9.47,1.39,0.34356349554773125,0.48109248243880304,0.22257016632034526,0.8261140224094005,0.30474801038039795,0.5667294452289207
159,9.711,9.53,1.55,0.34385549093244255,0.4840068909146979,0.22220326041299113,0.8266735871493636,0.3046148338093376,0.5681845905631094
160,9.752,9.58,1.42,0.344146692110958,0.48684019850226484,0.2218466875535392,0.8272140660769658,0.30447192804337364,0.5696043159657698
161,9.812,9.64,1.24,0.34443663060144,0.489591939030753,0.22150054994794943,0.8277359018682102,0.30431957028879514,0.5709886412863084
162,9.873,9.69,1.79,0.3447248325029689,0.49226170618341364,0.2211649418840648,0.8282395423061403,0.3041580448548,0.5723376354681974
163,9.913,9.75,1.58,0.3450108196360032,0.494849152162308,0.2208399500927312,0.8287254398757684,0.30398764335142503,0.5736514154044693
164,9.974,9.8,1.23,0.34529411066363835,0.49735398636877476,0.22052565409734387,0.8291940513607778,0.30380866485920177,0.5749301447628827
165,10.035,9.86,1.86,0.3455742221916705,0.49977597410146685,0.22022212655152987,0.8296458374406543,0.30362141606962745,0.5761740327827664
166,10.098,9.91,1.76,0.34585066984558777,0.5021149352737189,0.2199294335647401,0.8300812622868389,0.30342621139565107,0.5773833330455047
167,10.158,9.97,1.51,0.3461229693227273,0.5043707431519431,0.2196476350155456,0.8305007931567023,0.30322337305146924,0.5785583422206755
168,10.178,10.02,1.68,0.3463906374179424,0.5065433231168205,0.21937678485233836,0.8309048999847718,0.3030132311010259,0.5796993987899258
169,10.239,10.08,1.87,0.34665319302124364,0.5086326514490339,0.21911693138102029,0.8312940549714279,0.3027961234747565,0.5808068817505974
170,10.3,10.13,1.72,0.3469101580860334,0.5106387541410429,0.2188681175392511,0.8316687321697372,0.30257239595424146,0.5818812093009702
171,10.36,10.19,1.48,0.3471610585666834,0.5125617057360838,0.21863038115689645,0.8320294070710685,0.30234240212452235,0.5829228375089153
172,10.442,10.24,2.0,0.34740542532429713,0.5144016281953514,0.2184037552024065,0.8323765561898715,0.30210650329392436,0.5839322589656235
173,10.463,10.3,1.78,0.3476427949995817,0.5161586897940811,0.2181882680149579,0.8327106566476316,0.3018650683813162,0.5849100014259117
174,10.524,10.35,1.4,0.34787271085182664,0.517833104046959,0.21798394352229025,0.8330321857556827,0.3016184737708023,0.5858566264364826
175,10.605,10.41,1.99,0.3480947235630643,0.5194251286629529,0.21779080144425075,0.8333416205963615,0.3013671031339039,0.5867727279534164
176,10.627,10.46,1.93,0.34830839200657254,0.520935064529294,0.2176088574821526,0.833639437601911,0.3011113472193512,0.5876589309500815
177,10.688,10.52,1.71,0.3485132839789846,0.5223632547240782,0.21743812349412478,0.8339261121306829,0.3008516036106585,0.5885158900166962
178,10.729,10.57,1.85,0.34870897689538205,0.5237100835568708,0.217278607656585,0.834202118040681,0.30058827645173253,0.5893442879528287
179,10.813,10.63,2.13,0.34889505844688873,0.5249759756366359,0.2171303146118823,0.8344679272611207,0.3003217761409111,0.5901448343540164
180,10.853,10.68,1.96,0.3490711272204837,0.5261613949660788,0.2169932456021427,0.8347240093630407,0.3000525189939982,0.5909182641935012
181,10.894,10.74,1.69,0.34923679328093743,0.5272668440612323,0.2168673985894195,0.8349708311299557,0.2997809268770128,0.5916653363999221
182,10.957,10.79,2.26,0.3493916787149423,0.5282928630949527,0.21675276836233298,0.8352088561293012,0.2995074268095322,0.592386832431654
183,11.018,10.85,2.01,0.34953541813766614,0.5292400290628445,0.216649346629483,0.835438544285106,0.29923245053967645,0.5930835548483192
184,11.06,10.9,1.46,0.349667659162094,0.5301089549699518,0.21655712210001143,0.8356603514520722,0.29895643409189093,0.593756325879939
185,11.121,10.96,1.96,0.34978806283163233,0.5309002890364082,0.21647608055175951,0.8358747289911221,0.29867981728877707,0.5944059859942126
186,11.182,11.01,1.92,0.3498963040165269,0.5316147139200448,0.21640620488754564,0.8360821233464852,0.2984030432482653,0.5950333924625334
187,11.242,11.07,1.7,0.34999207177469177,0.5322529459538032,0.21634747518016087,0.8362829756244969,0.2981265578573773,0.5956394179257236
188,11.303,11.12,1.76,0.35007506967755847,0.5328157343957586,0.21629986870665271,0.8364777211746256,0.29785080922375645,0.5962249489609157
189,11.385,11.18,2.1,0.35014501610159426,0.5333038606895132,0.2162633599723724,0.8366667891736722,0.29757624710614183,0.5967908846512128
190,11.405,11.23,1.9,0.35020164448625246,0.5337181377325405,0.2162379207252182,0.8368506022143058,0.29730332232502954,0.5973381351597132
191,11.447,11.29,1.64,0.350244703559265,0.5340594091498889,0.21622351996051303,0.8370295758990256,0.2970324861548509,0.5978676203093843
192,11.552,11.34,2.23,0.35027395753031554,0.5343285485707077,0.21622012391696968,0.8372041184404494,0.29676418969912927,0.5983802681701254
193,11.574,11.4,2.0,0.3502891862542357,0.5345264589051996,0.2162276960642311,0.8373746302686108,0.29649888325021784,0.5988770136542214
194,11.614,11.45,1.57,0.3502901853649519,0.5346540716197389,0.2162461970825058,0.8375415036457928,0.2962370156353394,0.5993587971213105
195,11.675,11.51,1.99,0.3502767663814739,0.5347123460079685,0.21627558483484202,0.8377051222894547,0.2959790335507656,0.5998265629939563
196,11.757,11.56,1.99,0.3502487567872907,0.5347022684556729,0.21631581433264344,0.8378658610038832,0.2957253808860717,0.6002812583848905
197,11.778,11.62,1.73,0.35020600008459335,0.5346248516972336,0.21636683769512105,0.838024085321279,0.2954764980404377,0.6007238317371019
198,11.942,11.67,1.65,0.35014835582473397,0.5344811340616924,0.2164286041033855,0.838180151153115,0.29523282123296585,0.6011552314781253
199,11.962,11.73,1.99,0.35007569961627694,0.5342721787067797,0.21650105974981132,0.8383344044527942,0.29499478180901073,0.6015764046899039
200,11.983,11.78,1.76,0.34998792311194266,0.5339990728394769,0.21658414778322682,0.8384871808906702,0.294762805544546,0.6019882957955058
201,12.024,11.84,1.43,0.3498849339756736,0.5336629269218416,0.21667780825043298,0.8386388055423789,0.2945373119505859,0.6023918452639163
202,12.065,11.89,2.0,0.3497666558309599,0.533264873861091,0.21678197803450497,0.8387895925912577,0.29431871357967027,0.6027879883340572
203,12.127,11.95,1.77,0.34963302819147296,0.5328060681832439,0.21689659079030527,0.8389398450454945,0.294107415336427,0.6031776537590955
204,12.19,12.0,1.4,0.3494840063750056,0.5322876851899142,0.21702157687761225,0.8390898544706159,0.29390381379421726,0.6035617625720714
205,12.231,12.06,1.71,0.34931956140169784,0.5317109200981368,0.21715686329222744,0.8392399007381257,0.29370829651987773,0.6039412268738829
206,12.312,12.11,1.76,0.34913967987755296,0.5310769871633563,0.21730237359542257,0.8393902517913855,0.2935212414085974,0.6043169486446172
207,12.333,12.17,1.53,0.34894436386428174,0.5303871187859297,0.217458027842161,0.8395411634299609,0.29334301603094587,0.6046898185792667
208,12.395,12.22,1.37,0.34873363073651903,0.529642564601816,0.21762374250857544,0.8396928791136608,0.29317397699402387,0.6050607149489761
209,12.437,12.28,1.74,0.34850751302743016,0.5288445905585023,0.2177994304191714,0.8398456297874464,0.29301446931869124,0.6054305024889652
210,12.518,12.33,1.49,0.3482660582637144,0.5279944779774702,0.21798500067421067,0.8399996337282248,0.2928648258348073,0.6058000313142133
211,12.558,12.39,1.11,0.34800932879098107,0.5270935226047092,0.21818035857771392,0.840155096414293,0.29272536659636866,0.6061701358639672
212,12.639,12.44,1.62,0.3477374015904139,0.5261430336509932,0.21838540556650432,0.840312210417969,0.2925963983183607,0.6065416338761233
213,12.66,12.5,1.39,0.3474503680875561,0.52514433282381,0.21860003914069923,0.8404711553217776,0.29247821383706635,0.6069153253924782
214,12.722,12.55,1.02,0.3471483339539535,0.5240987533529101,0.21882415279603823,0.8406320976585216,0.2923710915954715,0.6072919917958587
215,12.763,12.61,1.24,0.3468314189022811,0.5230076390115357,0.2190576359583595,0.8407951908757988,0.2922752951552909,0.6076723948801763
216,12.825,12.66,1.34,0.3464997564754752,0.5218723431354292,0.21930037392047977,0.8409605753258373,0.2921910727370292,0.6080572759544345
217,12.887,12.72,1.13,0.34615349383032207,0.5206942276417298,0.21955224778173865,0.841128378281649,0.2921186567893573,0.6084473549817228
218,12.929,12.77,0.92,0.3457927915158725,0.5194746620499733,0.21981313439047986,0.841298713980407,0.2920582635889252,0.6088433297542989
219,13.011,12.83,1.35,0.34541782324699594,0.5182150225075991,0.2200829062897248,0.8414716836947683,0.29201009287163077,0.6092458751058198
220,13.053,12.88,1.1,0.34502877567337037,0.516916690822448,0.2203614316662876,0.8416473758325509,0.29197432749626934,0.6096556421616999
221,13.094,12.94,0.72,0.3446258481442268,0.5155810535046601,0.2206485743035894,0.8418258660648192,0.2919511331413914,0.6100732576285636
222,13.176,12.99,1.26,0.34420925246919093,0.5142095008202158,0.2209441935384351,0.8420072174821167,0.29194065803608915,0.6104993231237947
223,13.238,13.05,1.07,0.3437792126755836,0.5128034258581557,0.22124814422203995,0.8421914807783354,0.2919430327253354,0.610934414546185
224,13.279,13.1,0.76,0.343335964762527,0.5113642236133464,0.22156027668559747,0.842378694461643,0.2919583698703792,0.6113790814887596
225,13.383,13.16,0.91,0.34287975645214924,0.5098932900866218,0.22188043671061788,0.842568885092059,0.29198676408458285,0.6118338466949101
226,13.404,13.21,1.03,0.3424108469381183,0.5083920214040791,0.2222084655041956,0.8427620675455662,0.29202829180499157,0.612299205558893
227,13.445,13.27,0.85,0.341929506631685,0.506861812957112,0.22254419967936245,0.8429582453046824,0.29208301119980257,0.6127756256716526
228,13.548,13.32,0.62,0.3414360169053373,0.5053040585645019,0.2228874712407063,0.8431574107752274,0.2921509621117454,0.6132635464128725
229,13.569,13.38,1.11,0.34093066983407583,0.5037201496576518,0.2232381075754345,0.8433595456286901,0.292232166037246,0.6137633785900192
230,13.61,13.43,0.89,0.3404137679342508,0.5021114744897616,0.2235959314500771,0.8435646211692294,0.29232662614113636,0.6142755041249188
231,13.672,13.49,0.49,0.3398856238998716,0.5004794173694292,0.2239607610130424,0.8437725987239427,0.29243432730655317,0.6148002757882085
232,13.755,13.54,1.07,0.33934656033628785,0.4988253579189296,0.22433240980325883,0.8439834300547486,0.29255523621957724,0.6153380169818099
233,13.775,13.6,0.97,0.3387969094911681,0.49715067035722366,0.2247106867651765,0.8441970577900246,0.2926893014880851,0.6158890215694084
234,13.817,13.65,0.73,0.3382370129827328,0.49545672280763214,0.2250953962704277,0.8444134158741068,0.2928364537941879,0.616453553754866
235,13.88,13.71,0.83,0.33766722152523587,0.4937448766300864,0.22548633814638827,0.8446324300330132,0.2929966060795593,0.6170318480084637
236,13.92,13.76,1.05,0.33708789465174605,0.49201648577780355,0.2258833077117896,0.8448540182551334,0.2931696537629289,0.61762410904068
237,13.983,13.82,0.88,0.3364994004343701,0.4902728961779773,0.22628609581951115,0.8450780912857605,0.2933554749889983,0.6182305118229673
238,14.044,13.87,0.63,0.3359021152021283,0.4885154451358075,0.22669448890670435,0.8453045531342055,0.29355393090797693,0.6188512016548146
239,14.106,13.93,1.16,0.3352964232567261,0.48674546076101655,0.22710826905242548,0.8455333015919385,0.2937648659848905,0.6194862942762082
240,14.146,13.98,0.92,0.33468271658648346,0.484964261415839,0.22752721404299384,0.8457642287598705,0.2939881083377642,0.6201358760243865
241,14.208,14.04,0.51,0.3340613945786896,0.48317315518326115,0.22795109744532643,0.8459972215826015,0.2942234701037204,0.6208000040336331
242,14.248,14.09,1.01,0.3334328637306298,0.4813734393540553,0.2283796886885146,0.8462321623873107,0.29447074783196625,0.6214787064767187
243,14.309,14.15,0.99,0.3327975373594948,0.479566399930918,0.22881275315393027,0.8464689294249348,0.29472972290257654,0.622171982846497
244,14.37,14.2,0.79,0.3321558353113242,0.47775331114783814,0.2292500522741683,0.846707397411333,0.29500016196986695,0.6228798042761797
245,14.493,14.26,0.84,0.331508183669063,0.4759354350028219,0.22969134364106378,0.8469474380663906,0.2952818174290498,0.6236021138968698
246,14.513,14.31,1.2,0.3308550144597755,0.4741140208021541,0.23013638112290094,0.847188920649324,0.2955744279048346,0.6243388272308126
247,14.554,14.37,1.02,0.33019676536110515,0.4722903047142937,0.23058491499086053,0.8474317124885882,0.2958777187606418,0.6250898326186258
248,14.595,14.42,0.75,0.3295338794071403,0.4704655093314315,0.2310366920547312,0.8476756795046562,0.29619140262710647,0.6258549916786317
249,14.636,14.48,1.37,0.3288668046938977,0.4686408432368451,0.23149145580790045,0.8479206867237367,0.2965151799485859,0.6266341397962886
250,14.698,14.53,1.17,0.32819599408467326,0.4668175005763828,0.23194894658163764,0.8481665987803284,0.29684873954643154,0.6274270866416188
251,14.759,14.59,0.75,0.3275219049155303,0.4649966606326302,0.23240890170864026,0.8484132804065757,0.2971917591978179,0.6282336167125008
252,14.841,14.64,1.15,0.32684499870120104,0.46317948740054654,0.2328710556956959,0.8486605969068397,0.2975439062289523,0.6290534899017255
253,14.862,14.7,1.22,0.3261657408416739,0.4613671291635581,0.23333514040520476,0.8489084146165273,0.29790483812151825,0.6298864420857524
254,14.925,14.75,0.99,0.3254846003297195,0.4595607180692512,0.23380088524525813,0.8491566013447143,0.29827420313116704,0.6307321857332919
255,14.985,14.81,0.89,0.3248020494595301,0.45776136970406633,0.23426801736791109,0.8494050268004166,0.2986516409168036,0.6315904105321092
256,15.025,14.86,1.29,0.3241185635365432,0.4559701826666734,0.234736261875184,0.8496535630025831,0.2990367831793754,0.6324607840325496
257,15.086,14.92,1.06,0.32343462058842537,0.4541882381398305,0.23520534203224563,0.8499020846738922,0.2994292543088501,0.6333429523062714
258,15.148,14.97,0.73,0.3227507010770903,0.4524165994605909,0.235674979487177,0.8501504696182858,0.29982867203801256,0.634236540618682
259,15.229,15.03,1.39,0.32206728761151626,0.45065631168883247,0.23614489449667125,0.8503985990819756,0.3002346481016534,0.6351411541136173
260,15.25,15.08,1.23,0.32138486466104693,0.4489084011741906,0.23661480615700067,0.8506463580975111,0.30064678889967994,0.6360563785088538
261,15.312,15.14,0.91,0.3207039182688273,0.44717387512156137,0.23708443263954365,0.8508936358105392,0.30106469616263803,0.636981780801176
262,15.353,15.19,1.25,0.3200249357650354,0.4454537211554868,0.23755349143008522,0.8511403257892285,0.30148796761813795,0.6379169099798383
263,15.415,15.25,1.38,0.31934840547961024,0.4437489068839322,0.23802169957105943,0.8513863263168179,0.301916197656741,0.6388612977472706
264,15.476,15.3,1.21,0.318674816454213,0.4420603794623017,0.2384887739059443,0.8516315406680331,0.3023489779959002,0.6398144592459148
265,15.516,15.36,1.07,0.3180046581531261,0.44038906515918846,0.23895443132506167,0.8518758773702266,0.3027858983405729,0.6407758937902083
266,15.578,15.41,1.54,0.31733842017274133,0.4387358689261435,0.2394183890120362,0.852119250450083,0.30322654703917473,0.6417450856027872
267,15.64,15.47,1.32,0.3166765919492602,0.4371016739743176,0.2398803646901839,0.8523615796665864,0.3036705117336074,0.6427215045540113
268,15.724,15.52,0.96,0.31601966246424196,0.43548734136108513,0.24034007686813624,0.8526027907306702,0.30411738000212396,0.6437046069040074
269,15.744,15.58,1.56,0.31536811994764496,0.43389370958985635,0.2407972450840463,0.8528428155116943,0.30456673999382744,0.6446938360465687
270,15.805,15.63,1.38,0.31472245157800893,0.43232159422626854,0.24125159014777942,0.8530815922306753,0.305018181053615,0.6456886232543634
271,15.846,15.69,1.08,0.31408314317941116,0.43077178753386913,0.24170283438052587,0.8533190656401612,0.30547129433637543,0.6466883884251033
272,15.951,15.74,1.33,0.3134506789147868,0.4292450581323285,0.24215070185123458,0.8535551871909175,0.30592567340923704,0.6476925408285032
273,15.971,15.8,1.5,0.31282554097516896,0.4277421506810605,0.24259491860923513,0.8537899151859851,0.3063809148406779,0.64870047985392
274,16.012,15.85,1.36,0.3122082092643956,0.4262637855908234,0.24303521291246846,0.854023214922807,0.306836618775307,0.6497115957585983
275,16.073,15.91,1.2,0.3115991610788298,0.4248106587655634,0.2434713154508363,0.8542550588239506,0.30729238949310916,0.6507252704165352
276,16.136,15.96,1.75,0.3109988707816736,0.42338344137650513,0.24390295956425434,0.85448542655664,0.30774783595198413,0.6517408780679703
277,16.197,16.02,1.55,0.31040780947153906,0.421982779670216,0.2443298814550767,0.8547143051409033,0.3082025723124843,0.6527577860694438
278,16.259,16.07,1.17,0.3098264446450584,0.42060929481209763,0.24475182039464566,0.8549416890457605,0.3086562184437414,0.6537753556443207
279,16.321,16.13,1.8,0.3092552398534223,0.4192635827665676,0.24516851892379024,0.8551675802725868,0.30910840040967225,0.654792942633642
280,16.362,16.18,1.66,0.3086946543528371,0.41794621421504186,0.24557972304717574,0.8553919884246718,0.3095587509346654,0.6558098982471345
281,16.404,16.24,1.38,0.30814514274896315,0.41665773451273075,0.24598518242144143,0.8556149307621197,0.3100069098480225,0.6568255698142996
282,16.466,16.29,1.56,0.30760715463544774,0.4153986636852515,0.2463846505369809,0.8558364322417915,0.31045252450649635,0.6578393015356303
283,16.507,16.35,1.75,0.30708113422672056,0.4141694964659474,0.24677788489310742,0.8560565255427127,0.31089525019435527,0.6588504352340122
284,16.57,16.4,1.58,0.30656751998529774,0.41297070237446976,0.24716464716633296,0.8562752510777545,0.31133475050046155,0.6598583111063172
285,16.693,16.46,1.36,0.3060667442438854,0.41180272583680383,0.2475447033715466,0.8564926569923265,0.3117706976718754,0.6608622684752136
286,16.713,16.51,1.92,0.3055792328225735,0.4106659863466625,0.24791782401595436,0.8567087991504952,0.31220277294353216,0.6618616465411378
287,16.733,16.57,1.69,0.3051054046414068,0.40956087866792734,0.24828378424573538,0.8569237411084766,0.31263066684359764,0.6628557851342071
288,16.795,16.62,1.3,0.30464567132862486,0.4084877730775542,0.2486423639854753,0.8571375540750116,0.31305407947415415,0.6638440254656981
289,16.837,16.68,1.92,0.30420043682488057,0.4074470156481132,0.24899334807052007,0.8573503168578244,0.3134727207669305,0.664825710878589
290,16.899,16.73,1.84,0.30377009698379354,0.4064389285689036,0.24933652637248252,0.8575621157952434,0.3138863107138589,0.6658001875965814
291,16.961,16.79,1.6,0.3033550391692568,0.40546381050443514,0.2496716939181792,0.8577730446722127,0.31429457957228846,0.6667668054710929
292,17.002,16.84,1.73,0.30295564184998164,0.4045219369890444,0.24999865100218946,0.8579832046204804,0.31469726804475073,0.6677249187258177
293,17.065,16.9,2.03,0.3025722741918609,0.4036135608563397,0.250317203293092,0.858192704003482,0.3150941274332977,0.6686738866983719
294,17.127,16.95,1.84,0.3022052956488742,0.4027389127018782,0.2506271619333791,0.858401658286874,0.3154849197685635,0.6696130745783756
295,17.188,17.01,1.57,0.30185505555338676,0.4018982013771246,0.2509283436330792,0.8586101898956513,0.3158694179138063,0.6705418541412013
296,17.229,17.06,2.13,0.3015218927067986,0.4010916145124772,0.25122057075717097,0.8588184280585481,0.3162474056443054,0.6714596044764856
297,17.289,17.12,1.88,0.3012061349715869,0.4003193190669,0.2515036714069457,0.8590265086400731,0.31661867770260876,0.672365712710355
298,17.352,17.17,1.4,0.3009080988658542,0.3995814619014335,0.2517774794955456,0.8592345739602464,0.31698303983019815,0.6732595747202603
299,17.434,17.23,1.91,0.30062808916152234,0.39887817037360807,0.25204183481796105,0.859442772601933,0.3173403087761966,0.6741405958413081
300,17.453,17.28,1.86,0.3003663984873218,0.3982095529495252,0.2522965831158465,0.85965125920562,0.31769031228376393,0.6750081915630224
301,17.494,17.34,1.63,0.3001233069376817,0.39757569983019475,0.25254157613758604,0.8598601942515023,0.3180328890547884,0.6758617882156792
302,17.556,17.39,1.69,0.29989908168855534,0.39697668358876703,0.2527766716940217,0.8600697438289505,0.31836788869342525,0.6767008236456025
303,17.617,17.45,2.02,0.29969397662113956,0.3964125598154635,0.25300173371016027,0.8602800793937336,0.3186951716290435,0.6775247478788591
304,17.657,17.5,1.84,0.29950823195444815,0.39588336776706057,0.253216632273121,0.8604913775134748,0.31901460901918777,0.6783330237726753
305,17.718,17.56,1.54,0.29934207388772505,0.39538913101779116,0.25342124367656543,0.8607038196016913,0.31932608263322476,0.6791251276537976
306,17.781,17.61,2.15,0.29919571425371666,0.39492985810861797,0.2536154504618414,0.8609175916405477,0.31962948471742825,0.6799005499428962
307,17.844,17.67,1.92,0.29906935018385095,0.39450554319196773,0.25379914145607596,0.8611328838922437,0.31992471784236837,0.6806587957639858
308,17.907,17.72,1.51,0.2989631637863983,0.39411616666913507,0.25397221180745666,0.8613498905988314,0.3202116947335445,0.6813993855377994
309,17.948,17.78,1.95,0.2988773218387026,0.3937616958176764,0.2541345630179348,0.8615688096703412,0.3204903380862822,0.682121855558045
310,18.009,17.83,1.95,0.2988119754945915,0.3934420854061671,0.2542861029736292,0.8617898423612638,0.3207605803659844,0.6828257585494802
311,18.072,17.89,1.69,0.2987672600080595,0.3931572782937866,0.2544267459732853,0.8620131929355916,0.3210223635948475,0.6835106642068463
312,18.154,17.94,1.6,0.2987432944742378,0.3929072060124698,0.2545564127551379,0.8622390683208495,0.32127563912614426,0.6841761597138629
313,18.175,18.0,1.95,0.2987401815885433,0.3926917893297223,0.25467503052241197,0.8624676777518208,0.3215203674072015,0.6848218502415048
314,18.236,18.05,1.7,0.29875800742477815,0.39251093879042864,0.2547825329675847,0.862699232404796,0.3217565177322038,0.6854473594247109
315,18.278,18.11,1.37,0.29879684123281675,0.392364555236167,0.25487886029545087,0.8629339450230714,0.32198406798592494,0.6860523298166671
316,18.339,18.16,1.98,0.2988567352563555,0.39225253030081214,0.2549639592449626,0.863172029534266,0.32220300437944616,0.686636423319781
317,18.402,18.22,1.76,0.29893772457105305,0.39217474688149084,0.25503778310976283,0.8634137006598815,0.3224133211788888,0.6871993215924307
318,18.443,18.27,1.36,0.2990398269432795,0.39213107958420196,0.2551002917572801,0.8636591735175455,0.3226150204281526,0.6877407264305905
319,18.525,18.33,1.74,0.299163042709628,0.3921213951436297,0.2551514516461733,0.8639086632166485,0.3228081116666345,0.688260360123489
320,18.546,18.38,1.79,0.29930735467734054,0.39214555281682884,0.2551912358418848,0.864162384448469,0.3229926116429182,0.6887579657824671
321,18.607,18.44,1.57,0.2994727280458106,0.3922034047505888,0.25521962403010423,0.8644205510721127,0.3231685440253972,0.689233307642324
322,18.648,18.49,1.42,0.2996591103493016,0.3922947963225796,0.2552366025279591,0.8646833756977131,0.3233359391107561,0.6896861713346312
323,18.711,18.55,1.82,0.2998664314209702,0.39241956645676523,0.25524216429269836,0.864951069268409,0.32349483353124053,0.6901163641325744
324,18.773,18.6,1.57,0.30009460337824534,0.3925775479138489,0.25523630892759275,0.8652238406425196,0.32364526996164733,0.6905237151669184
325,18.835,18.66,1.2,0.3003435206295794,0.39276856755767076,0.25521904268475754,0.86550189617712,0.32378729682693236,0.6909080756127856
326,18.919,18.71,1.76,0.30061305990253645,0.39299244659863336,0.25519037846459874,0.865785439313963,0.32392096801128084,0.6912693188470929
327,18.938,18.77,1.52,0.3009030802931153,0.39324900081532,0.2551503358115929,0.8660746701685051,0.32404634256942944,0.6916073405765969
328,18.979,18.82,1.15,0.3012134233361304,0.39353804075550497,0.25509894090610324,0.8663697851227998,0.3241634844409448,0.6919220589367023
329,19.039,18.88,1.39,0.30154391309636613,0.393859371917836,0.25503622655184716,0.8666709764233685,0.3242724621680787,0.6922134145613716
330,19.101,18.93,1.5,0.30189435628011096,0.3942127949155442,0.2549622321585508,0.8669784317856368,0.3243733486177413,0.6924813706245984
331,19.163,18.99,1.31,0.302264542366565,0.39459810562358166,0.2548770037193178,0.8672923340067863,0.3244662207080105,0.6927259128540371
332,19.205,19.04,1.14,0.302654243758502,0.39501509531072176,0.2547805937822477,0.8676128605888794,0.3245511591394577,0.6929470495175755
333,19.267,19.1,1.62,0.3030632159514656,0.3954635507583612,0.2546730614158127,0.8679401833739708,0.32462824813147595,0.6931448113837141
334,19.328,19.15,1.42,0.3034911977207491,0.3959432543678749,0.25455447216749205,0.8682744681926609,0.32469757516374753,0.6933192516566199
335,19.37,19.21,1.03,0.30393791132541714,0.3964539842583647,0.25442489801517004,0.8686158745271971,0.32475923072294627,0.6934704458867635
336,19.432,19.26,1.62,0.3044030627286712,0.3969955143565678,0.2542844173108175,0.868964555189939,0.3248133080547481,0.6935984918580839
337,19.492,19.32,1.46,0.30488634183390423,0.3975676144805689,0.2541331147160232,0.8693206560177585,0.3248599029212281,0.6937035094526582
338,19.574,19.37,1.15,0.30538742273583214,0.39817005041884435,0.25397108112898276,0.8696843155829113,0.32489911336369365,0.6937856404940086
339,19.636,19.43,1.35,0.3059059639860939,0.3988025840061606,0.2537984136025807,0.8700556649211378,0.3249310394709791,0.6938450485703547
340,19.657,19.48,1.49,0.30644160887271776,0.39946497319777835,0.2536152152532922,0.870434827278024,0.3249557831532181,0.6938819188391926
341,19.699,19.54,1.32,0.30699398571286496,0.4001569721431891,0.2534215951608473,0.8708219178746648,0.3249734479210675,0.6938964578146016
342,19.759,19.59,1.1,0.30756270815824877,0.4008783312603372,0.25321766825880393,0.8712170436933866,0.3249841386702948,0.6938888931387355
343,19.821,19.65,1.61,0.30814737551258603,0.40162879731106765,0.25300355521629525,0.8716203032839207,0.32498796147158804,0.6938594733389193
344,19.884,19.7,1.38,0.3087475730603999,0.40240811347827987,0.2527793823112786,0.872031786589995,0.3249850233654241,0.6938084675716344
345,19.924,19.76,1.01,0.3093628724064596,0.40321601944498797,0.252545281295667,0.872451574795922,0.324975432161782,0.693736165354553
346,20.007,19.81,1.62,0.30999283182510945,0.4040522514752905,0.2523013892527462,0.8728797401924624,0.32495929624446324,0.693642876287658
347,20.028,19.87,1.51,0.31063699661873284,0.40491654249713577,0.2520478484473192,0.8733163460610769,0.32493672437976967,0.6935289297643631
348,20.089,19.92,1.26,0.3112948994846043,0.4058086221867861,0.25178480616902205,0.873761446575732,0.32490782552925623,0.693394674673532
349,20.152,19.98,1.43,0.31196606088940504,0.40672821705503115,0.2515124145691623,0.8742150867218365,0.3248727086662855,0.6932404790932871
350,20.213,20.03,1.67,0.3126499894507362,0.40767505053527636,0.2512308304913064,0.874677302232435,0.32483148259615496,0.6930667299773454
351,20.254,20.09,1.51,0.31334618232507205,0.40864884307346716,0.25094021529580884,0.8751481195420593,0.32478425577962994,0.6928738328344098
352,20.356,20.14,1.26,0.3140541256016995,0.4096493122195498,0.25064073467850667,0.8756275557585156,0.32473113615974564,0.6926622114010137
353,20.377,20.2,1.79,0.31477329470227516,0.4106761727199456,0.25033255848385205,0.8761156186525788,0.3246722309918003,0.6924323073080455
354,20.418,20.25,1.55,0.3155031547857143,0.4117291366103022,0.2500158605128207,0.876612306665176,0.32460764667652636,0.692184579740996
355,20.502,20.31,1.12,0.31624316115818574,0.4128079133075662,0.24969081832600248,0.8771176089312749,0.3245374885964517,0.6919195050938594
356,20.543,20.36,1.67,0.3169927596880119,0.41391220970028486,0.2493576130423366,0.877631505319484,0.32446186095547086,0.6916375766165576
357,20.585,20.42,1.61,0.3177513872252652,0.41504173023593055,0.24901642913404018,0.878153966486255,0.32438086662163124,0.691339304055719
358,20.648,20.47,1.37,0.3185184720258129,0.4161961770040035,0.24866745421834582,0.878684953943648,0.3242946069730856,0.6910252132887093
359,20.73,20.53,1.47,0.31929343417949557,0.41737524981375407,0.2483108788466163,0.8792244201399704,0.3242031817471189,0.690695845950901
360,20.75,20.58,1.78,0.32007568604208886,0.41857864626543445,0.2479468962912791,0.879772308553098,0.3241066888921712,0.6903517590560779
361,20.812,20.64,1.6,0.320864632670736,0.4198060618138812,0.24757570233096068,0.8803285537965312,0.32400522442282503,0.6899935246096993
362,20.852,20.69,1.33,0.3216596722626189,0.4210571898230633,0.24719749503419772,0.8808930817381295,0.32389888227775687,0.6896217292146394
363,20.915,20.75,1.93,0.3224601965967335,0.4223317216101335,0.2468124745421273,0.8814658096311979,0.3237877541807252,0.6892369736689057
364,20.975,20.8,1.7,0.3232655914787626,0.4236293464774106,0.24642084285059734,0.8820466462572758,0.323671929504746,0.6888398725547361
365,21.017,20.86,1.27,0.32407523718915987,0.42494975173060334,0.24602280359218245,0.8826354920797354,0.32355149513966314,0.6884310538184646
366,21.097,20.91,1.75,0.32488850893466137,0.42629262268149604,0.24561856181862346,0.883232239407216,0.323426535363374,0.688011158340554
367,21.138,20.97,1.73,0.32570477730352276,0.4276576426332181,0.2452083237842812,0.8838367725659484,0.3232971317170159,0.6875808394952245
368,21.179,21.02,1.49,0.3265234087248287,0.4290444928461603,0.24479229673129266,0.8844489680800696,0.3231633628844076,0.6871407626992354
369,21.241,21.08,1.47,0.327343765932211,0.43045285248272214,0.24437068867712297,0.8850686948592101,0.32302530457600853,0.6866916049495636
370,21.302,21.13,1.8,0.3281652084322693,0.43188239852925375,0.2439437082051258,0.8856958143928829,0.322883029417664,0.68623405434972
371,21.365,21.19,1.59,0.32898709297795303,0.43333280569362304,0.24351156425865284,0.8863301809512765,0.32273660684441674,0.6857688096243356
372,21.509,21.24,1.28,0.3298087740470929,0.43480374627690666,0.24307446593921173,0.886971641791911,0.32258610299964763,0.6852965796215892
373,21.529,21.3,1.9,0.3306296043261792,0.4362948900179097,0.24263262230912128,0.887620037371417,0.3224315806398008,0.684818082802967
374,21.55,21.35,1.69,0.33144893519939017,0.43780590390947594,0.2421862421990783,0.8882752015614905,0.3222730990449547,0.6843340467197752
375,21.57,21.41,1.3,0.3322661172428255,0.4393364519857757,0.24173553402101502,0.8889369618679794,0.3221107139354975,0.6838452074758117
376,21.633,21.46,1.72,0.3330805007238853,0.4408861950799518,0.2412807055865952,0.8896051396521335,0.3219444773951876,0.6833523091756384
377,21.694,21.52,1.77,0.3338914361057679,0.4424547905516291,0.2408219639317279,0.8902795503531998,0.32177443780092246,0.6828561033579111
378,21.756,21.57,1.54,0.3346982745571056,0.4440418919839226,0.24035951514756507,0.890960003711641,0.321600639759548,0.6823573484133466
379,21.878,21.63,1.45,0.33550036846675885,0.4456471488498701,0.2398935642184679,0.8916463039923858,0.32142312405203904,0.6818568089870837
380,21.9,21.68,1.83,0.33629707196376585,0.4472702061486061,0.2394243148673531,0.8923382502076809,0.3212419275854107,0.6813552553652495
381,21.919,21.74,1.58,0.33708774144242964,0.4489107040119008,0.23895196940876162,0.8930356363391231,0.32105708335276323,0.680853462845513
382,21.959,21.79,1.24,0.337871736092499,0.4505682772819324,0.23847672860994465,0.8937382515582969,0.3208686204018576,0.6803522110914413
383,22.019,21.85,1.82,0.3386484184343376,0.45224255506142785,0.23799879156022763,0.8944458804452445,0.3206765638126026,0.6798522834705326
384,22.082,21.9,1.59,0.33941715485890017,0.453933160237533,0.2375183555488868,0.8951583032038342,0.3204809346838076,0.679354466375825
385,22.123,21.96,1.21,0.340177316172231,0.4556397089809666,0.2370356159517313,0.8958752958731304,0.32028175012950877,0.6788595485310553
386,22.204,22.01,1.51,0.34092827814407817,0.4573618102222275,0.23655076612647447,0.8965966305342044,0.3200790232851268,0.6783683202794183
387,22.224,22.07,1.61,0.34166942206010636,0.45909906510679843,0.23606399731688188,0.897322075512317,0.31987276332368,0.6778815728559796
388,22.286,22.12,1.4,0.34240013527709506,0.46085106643146573,0.23557549856565976,0.8980513955747113,0.31966297548220796,0.677400097643896
389,22.347,22.18,1.25,0.3431198117804045,0.4626173980642,0.23508545663602912,0.898784352124356,0.3194496610984677,0.6769246854147475
390,22.409,22.23,1.69,0.3438278527429088,0.46439763435047027,0.23459405594188712,0.8995207033899624,0.31923281765792433,0.6764561255533679
391,22.45,22.29,1.45,0.3445236670845763,0.46619133950916625,0.23410147848643736,0.9002602046124235,0.3190124388510428,0.6759952052675766
392,22.51,22.34,1.08,0.3452066720319005,0.46799806702146646,0.23360790380917532,0.9010026082275294,0.318788514640854,0.6755427087833196
393,22.572,22.4,1.69,0.3458762936764214,0.4698173590161219,0.23311350894112343,0.9017476640445248,0.31856103134074115,0.6750994165258628
394,22.651,22.45,1.49,0.34653196753161436,0.47164874565470194,0.23261846836822894,0.9024951194198898,0.31832997170236904,0.674666104287818
395,22.691,22.51,1.13,0.3471731390874495,0.47349174452038856,0.23212295400280436,0.9032447194258099,0.31809531501363236,0.6742435423849839
396,22.794,22.56,1.36,0.3477992643619202,0.47534586001397544,0.23162713516275465,0.9039962070133446,0.3178570372064637,0.6738324948011912
397,22.814,22.62,1.46,0.34840981044882197,0.4772105827607462,0.23113117855818696,0.9047493231710292,0.3176151109743213,0.6734337183234446
398,22.855,22.67,1.28,0.3490042560610255,0.479085389031841,0.23063524828495086,0.9055038070800484,0.31736950589911433,0.6730479616687616
399,22.937,22.73,1.09,0.3495820920683962,0.48096974018368965,0.23013950582467102,0.9062593962671229,0.31712018858721497,0.6726759646042897
400,22.959,22.78,1.56,0.3501428220293914,0.4828630821191294,0.2296441100508394,0.9070158267560019,0.31686712281412743,0.6723184570623378
401,22.999,22.84,1.34,0.35068596271526187,0.48476484477377924,0.22914921724054518,0.9077728332180958,0.31661026967732436,0.6719761582519259
402,23.06,22.89,0.96,0.35121104462572733,0.4866744416311071,0.22865498109143537,0.9085301491223887,0.31634958775670274,0.6716497757684547
403,23.161,22.95,1.58,0.35171761249497996,0.4885912692694633,0.22816155274350755,0.9092875068844412,0.3160850332820733,0.6713400047031156
404,23.181,23.0,1.43,0.352205225786903,0.4905147069441498,0.22766908080536527,0.9100446380140731,0.31581656030707284,0.671047526753716
405,23.221,23.06,1.15,0.3526734591784508,0.49244411620741513,0.22717771138456092,0.9108012732613538,0.3155441208888503,0.6707730093387698
406,23.304,23.11,1.35,0.3531219030301936,0.49437884056916237,0.2266875881215616,0.9115571427609457,0.31526766527286476,0.6705171047168947
407,23.324,23.17,1.52,0.3535501638431107,0.4963182052010191,0.22619885222677533,0.9123119761754336,0.31498714208215506,0.6702804491136003
408,23.406,23.22,1.37,0.35395786470080404,0.49826151668612084,0.2257116425200833,0.9130655028385378,0.3147024985104621,0.670063661857537
409,23.447,23.28,1.15,0.354344645696369,0.5002080628166834,0.2252260954723931,0.9138174518989777,0.31441368051856133,0.669867344528306
410,23.506,23.33,1.65,0.35471016434318026,0.5021571124412392,0.2247423452487905,0.9145675524654265,0.3141206330331786,0.6696920801178615
411,23.568,23.39,1.4,0.35505409596887677,0.5041079153631997,0.22426052375294092,0.9153155337525577,0.3138233001478779,0.6695384322073956
412,23.609,23.44,1.0,0.35537613409183333,0.5060597022921653,0.22378076067246244,0.9160611252277757,0.31352162532531946,0.6694069441614681
413,23.67,23.5,1.59,0.35567599077938306,0.5080116848492066,0.22330318352504405,0.9168040567579089,0.3132155516002763,0.6692981383410258
414,23.73,23.55,1.48,0.3559533969869966,0.5099630556271898,0.22282791770513719,0.9175440587549804,0.3129050217827855,0.6692125153368743
415,23.792,23.61,1.24,0.35620810287755705,0.5119129883071399,0.22235508653105507,0.9182808623202839,0.3125899786607531,0.6691505532251857
416,23.853,23.66,1.41,0.35643987811980565,0.5138606378316635,0.22188481129219215,0.9190141993865254,0.312270365201301,0.6691127068466673
417,23.874,23.72,1.63,0.35664851216504234,0.5158051406364003,0.221417211295914,0.9197438028585156,0.3119461247501675,0.6690994071108979
418,23.936,23.77,1.49,0.35683381450125806,0.5177456149402077,0.22095240391359947,0.9204694067532878,0.31161720122851855,0.6691110603271485
419,24.036,23.83,1.24,0.3569956148840086,0.5196811610944526,0.22049050462534037,0.9211907463404406,0.3112835393265641,0.6691480475628657
420,24.077,23.88,1.79,0.3571337635434739,0.5216108619915459,0.22003162706286292,0.9219075582831769,0.3109450846934357,0.6692107240308276
421,24.098,23.94,1.55,0.3572481313672871,0.5235337835326234,0.219575883050319,0.9226195807800827,0.31060178412286005,0.6692994185057998
422,24.161,23.99,1.15,0.3573386100588368,0.5254489751540699,0.21912338264268064,0.923326553707309,0.3102535857342072,0.66941443277143
423,24.221,24.05,1.71,0.35740511227082133,0.5273554704124259,0.21867423416153348,0.9240282187605915,0.3099004391485308,0.669556041098074
424,24.284,24.1,1.6,0.35744757171386704,0.5292522876270963,0.21822854422813,0.9247243195964773,0.30954229565924485,0.6697244897522163
425,24.325,24.16,1.33,0.35746594324002123,0.5311384305802017,0.2177864177935863,0.9254146019722868,0.3091791083970684,0.6699199965382131
426,24.449,24.21,1.43,0.3574602029008757,0.5330128892729372,0.2173479581659928,0.9260988138849087,0.3088108324888571,0.6701427503731351
427,24.469,24.27,1.69,0.35743034798002365,0.53487464073777,0.21691326703402855,0.9267767057092489,0.30843742520996326,0.6703929108953806
428,24.489,24.32,1.53,0.35737639699952445,0.5367226499055662,0.21648244448655848,0.9274480303375723,0.30805884612978285,0.6706706081075238
429,24.55,24.38,1.27,0.3572983897000296,0.5385558705264285,0.21605558902767638,0.9281125433209245,0.30767505725013805,0.67097594205372
430,24.612,24.43,1.86,0.3571963869942182,0.5403732461427944,0.2156327975866711,0.9287700030135351,0.3072860231361651,0.6713089825318126
431,24.694,24.49,1.63,0.35707047089323035,0.5421737111131175,0.21521416552244202,0.9294201707207118,0.30689171103942947,0.671669768840104
432,24.715,24.54,1.21,0.3569207444058734,0.5439561916842556,0.21479978662195595,0.9300628108503899,0.30649209101303354,0.6720583095586389
433,24.777,24.6,1.76,0.3567473314104753,0.5457196071105489,0.21438975309241184,0.9306976910682757,0.3060871360185464,0.6724745823647996
434,24.839,24.65,1.7,0.3565503764993734,0.5474628708174873,0.21398415554690717,0.9313245824564416,0.30567682202463725,0.6729185338829978
435,24.88,24.71,1.44,0.35633004479612906,0.5491848916078346,0.213583082983515,0.9319432596752917,0.3052611280973155,0.6733900795683847
436,24.921,24.76,1.51,0.35608652174563044,0.5508845749081915,0.2131866227576679,0.9325535011292664,0.30484003648168634,0.6738891036246777
437,24.984,24.82,1.79,0.355820012877307,0.5525608240540882,0.2127948605476397,0.9331550891372173,0.304413532675184,0.6744154589562144
438,25.046,24.87,1.58,0.3555307435417704,0.554212541611601,0.21240788031286661,0.9337478101087077,0.303981605492298,0.6749689671542379
439,25.128,24.93,1.28,0.3552189586212619,0.5558386307332996,0.2120257642448743,0.9343314547273842,0.30354424712082834,0.6755494185173608
440,25.169,24.98,1.83,0.35488492221432055,0.5574379965461973,0.2116485927106322,0.9349058181422517,0.30310145316973297,0.6761565721060705
441,25.211,25.04,1.59,0.354528917295085,0.5590095475692601,0.2112764441882376,0.9354707001672686,0.3026532227086596,0.6767901558310403
442,25.272,25.09,1.18,0.3541512453476209,0.5605521971579228,0.21090939519494178,0.9360259054892113,0.3021995582992445,0.6774498665749783
443,25.335,25.15,1.7,0.3537522259756304,0.5620648649729781,0.2105475202076643,0.9365712438833423,0.30174046601825427,0.6781353703477397
444,25.377,25.2,1.67,0.3533321964878827,0.5635464784710889,0.21019089157632237,0.9371065304360466,0.30127595547263397,0.6788463024744292
445,25.438,25.26,1.43,0.3528915114597309,0.5649959744140748,0.2098395794304571,0.9376315857734568,0.30080603980649645,0.6795822678163166
446,25.521,25.31,1.48,0.352430542271126,0.5664123003941324,0.20949365157964572,0.9381462362953249,0.30033073570007446,0.6803428410245068
447,25.542,25.37,1.8,0.35194967662164134,0.5677944163721593,0.20915317340810563,0.9386503144138597,0.29985006336070874,0.6811275668262635
448,25.582,25.42,1.61,0.3514493180231751,0.5691412962262399,0.2088182077638612,0.939143658797468,0.29936404650601245,0.6819359603437505
449,25.644,25.48,1.32,0.35092988527115543,0.5704519293072067,0.20848881484287832,0.939626114619215,0.29887271233940305,0.6827675074448779
450,25.705,25.53,1.88,0.35039181189519597,0.57172532199816,0.2081650520686224,0.9400975338095487,0.29837609151825834,0.6836216651258583
451,25.766,25.59,1.64,0.3498355455902467,0.572960499274812,0.2078469739675557,0.9405577753125128,0.2978742181150236,0.6844978619249724
452,25.807,25.64,1.21,0.3492615476293576,0.5741565062634828,0.20753463204113895,0.9410067053444634,0.29736712957163564,0.685395498367029
453,25.889,25.7,1.66,0.34867029225920915,0.5753124097935585,0.20722807463493487,0.9414441976542588,0.2968548666476592,0.6863139474380232
454,25.91,25.75,1.62,0.34806226607958274,0.5764272999411828,0.20692734680547376,0.9418701337839595,0.29633747336254307,0.6872525550895243
455,25.972,25.81,1.36,0.3474379674079321,0.5775002915609405,0.20663249018562574,0.9422844033291821,0.2958149969323635,0.6882106407724605
456,26.033,25.86,1.37,0.3467979056301636,0.5785305258023662,0.20634354284921533,0.9426869041984816,0.29528748770136026,0.6891874980001296
457,26.096,25.92,1.69,0.3461426005386769,0.5795171716081696,0.20606053917552303,0.9430775428714445,0.29475499906854813,0.6901823949402532
458,26.136,25.97,1.49,0.3454725816587014,0.5804594271909289,0.20578350971424775,0.943456234655285,0.294217587409676,0.6911945750357782
459,26.219,26.03,1.21,0.3447883875639723,0.5813565214848568,0.20551248105148573,0.9438229039395656,0.2936753119947852,0.6922232576540285
460,26.261,26.08,1.8,0.3440905651827959,0.5822077155692638,0.20524747567727467,0.9441774844484092,0.29312823490162004,0.6932676387637196
461,26.322,26.14,1.57,0.34337966909558126,0.5830123040604688,0.2049885118552682,0.9445199194892846,0.29257642092518116,0.6943268916391958
462,26.364,26.19,1.16,0.3426562608249546,0.5837696164690261,0.20473560349512104,0.9448501621972797,0.29201993748373645,0.6954001675911848
463,26.428,26.25,1.62,0.3419209081196248,0.5844790185192513,0.2044887600281581,0.9451681757738247,0.2914588545216516,0.6964865967233052
464,26.509,26.3,1.61,0.34117418423323126,0.5851399134280891,0.20424798628693402,0.9454739337189861,0.29089324440944375,0.6975852887135233
465,26.529,26.36,1.36,0.34041666719946506,0.5857517431403958,0.204013282389356,0.9457674200565933,0.29032318184146144,0.6986953336198387
466,26.653,26.41,1.34,0.3396489391047855,0.5863139895178044,0.20378464362804705,0.9460486295516554,0.28974874373157083,0.6998158027095985
467,26.674,26.47,1.65,0.33887158536006806,0.586826175478445,0.20356206036555088,0.9463175679197601,0.2891700091072437,0.7009457493118221
468,26.694,26.52,1.4,0.3380851939725455,0.5872878660847438,0.20334551793592265,0.9465742520282074,0.28858705900246656,0.702084209691784
469,26.755,26.58,1.09,0.3372903548193996,0.5876986695764904,0.2031349965532157,0.9468187100884574,0.28799997634987146,0.7032302039470315
470,26.796,26.63,1.7,0.33648765892430405,0.5880582383464422,0.2029304712273427,0.9470509818392493,0.28740884587247423,0.7043827369239347
471,26.857,26.69,1.49,0.33567769773812217,0.5883662698558588,0.20273191168776597,0.9472711187195093,0.2868137539753822,0.7055407991537547
472,26.918,26.74,1.08,0.3348610624248784,0.5886225074874019,0.20253928231545087,0.947479184030001,0.2862147886378019,0.7067033678071092
473,26.979,26.8,1.53,0.33403834315405556,0.5888267413328241,0.2023525420834854,0.9476752530827014,0.2856120393056746,0.7078694076655738
474,27.062,26.85,1.55,0.33321012840026537,0.5889788089128042,0.20217164450678618,0.9478594133369849,0.2850055967852937,0.709037872108956
475,27.082,26.91,1.32,0.3323770042513572,0.5890785958262942,0.20199653760135983,0.9480317645217884,0.284395553138259,0.7102077041167247
476,27.122,26.96,1.3,0.3315395537260428,0.5891260363269685,0.20182716385356858,0.9481924187431267,0.2837820015781099,0.7113778372821172
477,27.183,27.02,1.64,0.3306983561021265,0.5891211138246836,0.2016634601997512,0.9483415005765391,0.28316503636901785,0.7125471968373918
478,27.246,27.07,1.42,0.32985398625647766,0.5890638613100493,0.20150535801647854,0.9484791471441048,0.28254475272696467,0.7137147006885595
479,27.351,27.13,1.1,0.3290070140179339,0.5889543617003294,0.20135278312169372,0.948605508175476,0.2819212467238627,0.7148792604578629
480,27.372,27.18,1.68,0.32815800353433855,0.588792748105064,0.20120565578697497,0.9487207460521346,0.2812946151950935,0.7160397825322203
481,27.414,27.24,1.45,0.32730751265491903,0.5885792040099933,0.2010638907611689,0.9488250358338551,0.2806649556509639,0.7171951691158239
482,27.476,27.29,1.02,0.326456092329186,0.5883139633780102,0.20092739730564457,0.948918565266253,0.280032366192573,0.7183443192851137
483,27.539,27.35,1.4,0.3256042860234895,0.5879973106659936,0.20079607924138143,0.9490015347684554,0.2793969454325767,0.7194861300443925
484,27.58,27.4,1.42,0.32475262915630854,0.5876295807564551,0.2006698350080891,0.9490741574002061,0.2787587924213284,0.7206194973803584
485,27.643,27.46,1.19,0.3239016485532647,0.5872111588030138,0.200548557735574,0.949136658807916,0.2781180065788168,0.7217433173139218
486,27.725,27.51,1.08,0.3230518619227248,0.5867424799889109,0.20043213532753823,0.9491892771493435,0.2774746876327394,0.722856486947835
487,27.746,27.57,1.47,0.32220377735273587,0.5862240291980153,0.2003204505578956,0.9492322629967309,0.2768289355630075,0.7239579055086889
488,27.788,27.62,1.25,0.3213578928299798,0.5856563405978908,0.2002133811796135,0.949265879218191,0.27618085055295166,0.7250464753817915
489,27.889,27.68,0.93,0.32051469578142266,0.5850399971346154,0.2001108000460488,0.9492904008369429,0.2755305329474464,0.7261211031374626
490,27.91,27.73,1.55,0.31967466263933403,0.5843756299392853,0.20001257524472735,0.9493061148677433,0.2748780832181363,0.7271807005473132
491,27.95,27.79,1.34,0.31883825843035823,0.5836639176464281,0.1999185702435138,0.9493133201296943,0.274223601935933,0.7282241855891016
492,28.013,27.84,0.95,0.318005936389336,0.5829055856248095,0.1998286440490898,0.9493123270346738,0.27356718975094374,0.7292504834388484
493,28.095,27.9,1.32,0.31717813759857955,0.5821014051213804,0.19974265137756683,0.9493034573510993,0.2729089473800087,0.7302585274489927
494,28.115,27.95,1.39,0.31635529065331786,0.5812521923193159,0.19966044283698967,0.9492870439433673,0.27224897560205963,0.73124726011143
495,28.177,28.01,1.2,0.31553781135402276,0.5803588073112752,0.19958186512149828,0.9492634304877451,0.27158737526150584,0.7322156340043809
496,28.258,28.06,1.06,0.3147261024262672,0.579422152989261,0.19950676121692543,0.9492329711657029,0.27092424727982667,0.7331626127221886
497,28.278,28.12,1.41,0.31392055326867047,0.5784431738527488,0.19943497061756582,0.9491960303357339,0.2702596926755629,0.7340871717871034
498,28.36,28.17,1.16,0.3131215397293825,0.5774228547369182,0.1993663295538188,0.9491529821846021,0.26959381259292176,0.7349882995419393
499,28.463,28.23,0.82,0.3123294239114414,0.5763622194629117,0.19930067123038772,0.9491042103586923,0.2689267083391938,0.7358649980223703
500,28.483,28.28,1.43,0.3115445540072011,0.5752623294121733,0.1992378260747027,0.9490501075758501,0.2682584814311286,0.7367162838075725
501,28.525,28.34,1.21,0.310767264161907,0.5741242820270235,0.1991776219952268,0.9489910752178807,0.26758923365035875,0.7375411888479212
502,28.566,28.39,0.84,0.309997874366418,0.5729492092396612,0.1991198846492673,0.9489275229038704,0.26691906710788366,0.7383387612685265
503,28.608,28.45,1.2,0.3092366903790361,0.5717382758318471,0.19906443771981966,0.9488598680448567,0.26624808431758346,0.7391080661474966
504,28.669,28.5,1.29,0.308484003676408,0.5704926777275764,0.1990111032008946,0.9487885353809196,0.2655763882787285,0.7398481862678582
505,28.731,28.56,1.1,0.3077400914334885,0.5692136402211287,0.19895970169078867,0.9487139565020951,0.2649040825674211,0.7405582228421939
506,28.834,28.61,0.97,0.3070052165325471,0.5679024161431246,0.19891005269276876,0.9486365693546701,0.26423127143687547,0.7412372962092356
507,28.855,28.67,1.37,0.3062796276011697,0.5665602839675458,0.19886197492261493,0.9485568177344263,0.26355805992645265,0.7418845465017175
508,28.896,28.72,1.13,0.30556355907919325,0.5651885458629241,0.1988152866224486,0.9484751507682736,0.26288455397940447,0.7424991342847675
509,28.958,28.78,0.77,0.3048572313144849,0.5637885256911043,0.19876980588027818,0.9483920223854632,0.2622108605692813,0.7430802411641677
510,28.999,28.83,1.36,0.3041608506874218,0.5623615669572245,0.19872535095469274,0.9483078907793219,0.2615370878349481,0.7436270703638971
511,29.06,28.89,1.13,0.30347460976386004,0.5609090307147481,0.19868174060415061,0.9482232178602524,0.26086334522413096,0.7441388472724498
512,29.121,28.94,0.75,0.3027986874762985,0.5594322934294826,0.19863879442029944,0.9481384687007374,0.26018974364536446,0.7446148199575758
513,29.224,29.0,1.05,0.30213324933284336,0.5579327448066026,0.19859633316469727,0.9480541109733707,0.25951639562816203,0.7450542596492264
514,29.244,29.05,1.14,0.3014784476534637,0.5564117855847447,0.19855417910824358,0.9479706143833616,0.25884341549118706,0.7454564611905606
515,29.264,29.11,0.94,0.30083442183290765,0.5548708253012784,0.19851215637264386,0.9478884500971977,0.25817091951812604,0.7458207434569576
516,29.327,29.16,0.8,0.30020129862949846,0.5533112800330043,0.19847009127324686,0.9478080901691639,0.25749902614086434,0.7461464497431213
517,29.389,29.22,1.26,0.2995791924789107,0.5517345701167563,0.19842781266257664,0.9477300069673197,0.25682785612951714,0.7464329481183949
518,29.43,29.27,1.03,0.2989682058319646,0.5501421178545004,0.19838515227386985,0.9476546726002959,0.2561575327888493,0.7466796317503784
519,29.493,29.33,0.69,0.2983684295154773,0.5485353452075661,0.1983419450639465,0.9475825583459494,0.25548818216059815,0.7468859191969828
520,29.553,29.38,1.32,0.29777994311521255,0.5469156714847287,0.19829802955476225,0.9475141340825736,0.2548199332312122,0.7470512546671254
521,29.656,29.44,1.12,0.29720281537998794,0.5452845110289435,0.1982532481730419,0.9474498677231159,0.2541529181445294,0.7471751082503367
522,29.677,29.49,0.77,0.29663710464601556,0.5436432709075861,0.19820744758743067,0.9473902246527686,0.25348727241892177,0.7472569761156809
523,29.719,29.55,1.04,0.2960828592805501,0.5419933486111332,0.1981604790425847,0.947335667170542,0.2528231351684428,0.7472963806805407
524,29.801,29.6,1.14,0.2955401181439152,0.5403361297652609,0.19811219868962707,0.9472866539357704,0.2521606493275466,0.7472928707498743
525,29.822,29.66,0.92,0.29500891106894933,0.5386729858613776,0.19806246791248183,0.9472436394206476,0.25149996187893225,0.7472460216266161
526,29.924,29.71,0.74,0.2944892593568199,0.5370052720107369,0.19801115364968444,0.9472070733697863,0.2508412240840132,0.7471554351940332
527,29.945,29.77,1.18,0.2939811762880228,0.5353343247274621,0.19795812871130378,0.9471774002675841,0.25018459171547097,0.747020739970876
528,29.986,29.82,0.95,0.29348466764725567,0.533661459745835,0.19790327209064137,0.9471550588138414,0.24953022529131774,0.7468415911401375
529,30.047,29.88,0.57,0.29299973226074205,0.5319879698770188,0.19784646927040955,0.9471404814076742,0.24887829030982883,0.7466176705522529
530,30.108,29.93,1.2,0.29252636254448733,0.5303151229101116,0.19778761252312357,0.947134093639381,0.24822895748464688,0.7463486867036152
531,30.168,29.99,1.03,0.29206454506190144,0.5286441595620716,0.19772660120548932,0.9471363137896495,0.24758240297931974,0.7460343746913085
532,30.209,30.04,0.71,0.29161426108920513,0.5269762914807258,0.19766334204658068,0.9471475523354413,0.2469388086404864,0.7456744961450968
533,30.293,30.1,0.98,0.2911754871870584,0.5253126993048651,0.19759774942953345,0.9471682114622405,0.24629836222890905,0.7452688391378428
534,30.313,30.15,1.12,0.29074819577689126,0.5236545307852759,0.19752974566641715,0.9471986845828473,0.2456612576475771,0.7448172180755804
535,30.374,30.21,0.94,0.2903323557204803,0.5220028989704074,0.19745926126598012,0.9472393558631222,0.24502769516611753,0.7443194735685158
536,30.456,30.26,0.78,0.28992793290133556,0.5203588804603203,0.19738623519404314,0.9472905997549691,0.24439788164073648,0.7437754722843243
537,30.476,30.32,1.26,0.2895348908064581,0.5187235137326088,0.19731061512638173,0.9473527805365272,0.2437720307289395,0.7431851067851192
538,30.538,30.37,1.02,0.2891531911070278,0.5170977975439219,0.19723235769400563,0.9474262518591257,0.24315036309831567,0.7425482953493949
539,30.601,30.43,0.64,0.28878279423659214,0.5154826894105125,0.1971514287208097,0.9475113563000944,0.24253310662869196,0.7418649817802138
540,30.661,30.48,1.23,0.28842365996532054,0.5138791041710008,0.1970678034536251,0.9476084249201483,0.24192049660698253,0.7411351352008692
541,30.724,30.54,1.06,0.28807574796886665,0.5122879126342771,0.19698146678473924,0.9477177768238463,0.24131277591407171,0.7403587498392212
542,30.764,30.59,0.75,0.28773901839033605,0.5107099403152257,0.19689241346691747,0.9478397187218056,0.2407101952030475,0.739535844801954
543,30.826,30.65,0.98,0.287413432393791,0.509145966260785,0.19680064832076136,0.9479745444941048,0.2401130130680797,0.7386664638400788
544,30.867,30.7,1.15,0.2870989527076868,0.5075967219686126,0.19670618643399937,0.9481225347553218,0.23952149620324623,0.7377506751069743
545,30.95,30.76,1.0,0.2867955441566562,0.506062890400237,0.19660905335218365,0.948283956422275,0.23893591955060348,0.7367885709102194
546,31.011,30.81,0.81,0.28650317418011284,0.5045451050901772,0.1965092852602669,0.948459062285577,0.23835656643678146,0.7357802674584936
547,31.031,30.87,1.33,0.2862218133362226,0.5030439493522006,0.1964069291545798,0.9486480905858117,0.23778372869741565,0.7347259046047577
548,31.093,30.92,1.1,0.2859514357899154,0.5015599555835434,0.1963020430048175,0.9488512645946912,0.23721770678879053,0.7336256455867837
549,31.157,30.98,0.73,0.28569201978374675,0.5000936046675779,0.19619469590573851,0.9490687922010836,0.23665880988612872,0.7324796767659879
550,31.198,31.03,1.32,0.2854435480905395,0.49864532547515517,0.19608496821836285,0.9493008655014579,0.2361073559680223,0.731288207365426
551,31.259,31.09,1.18,0.28520600844682825,0.49721549446466085,0.1959729517005274,0.9495476603941272,0.23556367188656716,0.7300514692077326
552,31.32,31.14,0.87,0.2849793939661818,0.4958044353807305,0.19585874962664662,0.949809336176911,0.23502809342278583,0.7287697164538366
553,31.401,31.2,1.03,0.2847637035314974,0.494412419051584,0.19574247689634688,0.9500860351486538,0.234500965326949,0.7274432253433589
554,31.421,31.25,1.18,0.2845589421653739,0.49303966328490023,0.19562426013140582,0.9503778822161234,0.23398264134345348,0.726072293937545
555,31.485,31.31,1.01,0.2843651213777063,0.4916863328619229,0.1955042377603119,0.9506849845084779,0.23347348421992614,0.7246572418655236
556,31.525,31.36,0.81,0.2841822594896501,0.4903525396292116,0.19538256008976365,0.9510074310015532,0.23297386570019446,0.7231984100746874
557,31.586,31.42,1.34,0.28401038193309747,0.4890383426872102,0.1952593893624859,0.951345292153912,0.2324841665007491,0.7216961605859379
558,31.648,31.47,1.12,0.2838495215248191,0.48774374867454157,0.19513489980082133,0.9516986195561562,0.23200477627033445,0.7201508762543922
559,31.79,31.53,0.72,0.2836997187144767,0.4864687121466585,0.19500927763564518,0.9520674455945637,0.2315360935323217,0.7185629605360064
560,31.81,31.58,1.32,0.283561021805786,0.48521313604726807,0.19488272112022825,0.9524517831298052,0.23107852560956252,0.7169328372604303
561,31.831,31.64,1.21,0.28343348715021677,0.48397687227079755,0.1947554405287689,0.952851625191329,0.2306324885314803,0.7152609504103036
562,31.871,31.69,0.96,0.2833171793127292,0.4827597223141095,0.19462765813938515,0.9532669446880592,0.23019840692318522,0.7135477639072587
563,31.912,31.75,1.12,0.2832121712091564,0.48156143801574736,0.1944996082013096,0.9536976941365137,0.2297767138764361,0.7117937614049878
564,31.974,31.8,1.32,0.283118544214968,0.480381722381007,0.19437153688593853,0.9541438054080554,0.22936785080236158,0.7099994460896614
565,32.037,31.86,1.15,0.28303638824531074,0.47922023049094065,0.19424370222137785,0.9546051894972916,0.22897226726593758,0.7081653404878299
566,32.141,31.91,0.91,0.2829658018063581,0.47807657049315405,0.19411637401019874,0.9550817363135181,0.22859042080228062,0.7062919862818215
567,32.161,31.97,1.42,0.2829068920180954,0.4769503046721347,0.19398983373020676,0.9555733144967418,0.2282227767148832,0.7043799441324938
568,32.201,32.02,1.16,0.28285977460874506,0.475840950596748,0.1938643744181349,0.9560797712593717,0.22786980785598462,0.7024297935090156
569,32.262,32.08,0.73,0.28282457388109183,0.47474798234241844,0.19374030053628205,0.956600932254258,0.22753199438930424,0.7004421325252158
570,32.303,32.13,1.28,0.2828014226510003,0.47367083178537683,0.19361792782220974,0.9571366014694713,0.22720982353538577,0.6984175777819283
571,32.364,32.19,1.21,0.28279046215843956,0.47260888996617856,0.19349758312171414,0.9576865611500415,0.22690378929980967,0.6963567642147108
572,32.426,32.24,0.97,0.282791841951349,0.4715615085195406,0.19337960420536657,0.9582505717469061,0.22661439218449533,0.6942603449464262
573,32.488,32.3,1.08,0.2828057197427032,0.4705280011675022,0.19326433956887318,0.9588283718936733,0.22634213888229412,0.6921289911443208
574,32.508,32.35,1.36,0.2828322612412088,0.4695076452728548,0.19315214821739707,0.9594196784123175,0.22608754195511732,0.6899633918812093
575,32.57,32.41,1.17,0.28287163995619896,0.46849968344956255,0.19304339943395116,0.9600241863491621,0.2258511194959165,0.6877642540002161
576,32.631,32.46,0.91,0.28292403697744056,0.46750332522663735,0.1929384725320102,0.9606415690423575,0.2256333947748958,0.6855323019824058
577,32.692,32.52,1.45,0.2829896407307118,0.466517748761753,0.19283775659256308,0.9612714782217059,0.22543489587042523,0.6832682778164842
578,32.753,32.57,1.21,0.2830686467101557,0.4655421026007118,0.19274165018592607,0.9619135441412525,0.22525615528521567,0.6809729408696079
579,32.794,32.63,0.79,0.2831612571885593,0.46457550747869847,0.19265056107874318,0.9625673757446835,0.22509770954837643,0.6786470677582641
580,32.875,32.68,1.29,0.2832676809068214,0.46361705815911486,0.192564905926689,0.96323256086333,0.22496009880402354,0.6762914522181703
581,32.896,32.74,1.23,0.2833881327439601,0.46266582530565914,0.19248510995350238,0.9639086664464777,0.22484386638713955,0.6739069049721341
582,32.957,32.79,0.97,0.28352283336905587,0.4617208573832331,0.1924116066170774,0.9645952388237192,0.2247495583873715,0.6714942535949202
583,33.018,32.85,1.01,0.2836720088765181,0.46078118258331713,0.19234483726331922,0.9652918039994132,0.22467772320143212,0.6690543423742957
584,33.08,32.9,1.31,0.2838358904060284,0.4598458107695039,0.19228525076836928,0.9659978679797616,0.22462891107479419,0.6665880321673591
585,33.122,32.96,1.13,0.28401471374851517,0.45891373543874053,0.19223330316975057,0.9667129171332196,0.22460367363339834,0.6640962002510997
586,33.245,33.01,0.85,0.28420871893951494,0.4579839356936166,0.19218945728698758,0.9674364185847965,0.22460256340610654,0.6615797401660222
587,33.265,33.07,1.43,0.28441814984129676,0.45705537822090875,0.19215418233227538,0.9681678206444888,0.22462613333867035,0.6590395615515453
588,33.306,33.12,1.21,0.28464325371517196,0.45612701927149546,0.19212795351181397,0.9689065532697156,0.22467493630004365,0.6564765899717435
589,33.347,33.18,0.79,0.2848842807854917,0.45519780663665654,0.19211125161847803,0.9696520285612937,0.22474952458192549,0.6538917667299226
590,33.407,33.23,1.24,0.28514148379692783,0.45426668161567835,0.19210456261654538,0.9704036412923231,0.2248504493924786,0.6512860486704858
591,33.468,33.29,1.23,0.2854151175667355,0.4533325809695806,0.19210837721930252,0.9711607694692311,0.22497826034522694,0.64866040796654
592,33.53,33.34,0.98,0.28570543853378144,0.45239443885572944,0.1921231904604526,0.9719227749241797,0.22513350494413684,0.6460158318918198
593,33.655,33.4,0.96,0.2860127043061472,0.4514511887382751,0.1921495012602604,0.9726890039381487,0.22531672806586903,0.6433533225757
594,33.675,33.45,1.26,0.28633717320910945,0.4505017652696443,0.19218781198729096,0.9734587878942048,0.22552847144020877,0.6406738967400973
595,33.696,33.51,1.04,0.28667910383527745,0.44954510613853355,0.1922386280165387,0.9742314439605045,0.2257692731297066,0.6379785854169936
596,33.716,33.56,0.71,0.2870387545986134,0.4485801538800541,0.19230245728471868,0.9750062758023922,0.22603966700955427,0.6352684336452813
597,33.778,33.62,1.27,0.2874163832939401,0.4476058576439946,0.19237980984346945,0.9757825743226891,0.22634018224871302,0.6325445001456032
598,33.84,33.67,1.04,0.2878122466633832,0.4466211749175134,0.19247119741120602,0.9765596184290006,0.2266713427932956,0.62980785697181
599,33.901,33.73,0.66,0.28822659997102673,0.4456250731988827,0.19257713292434883,0.9773366758266759,0.2270336668531654,0.6270595891376951
600,33.962,33.78,1.06,0.28865969658691515,0.44461653161916104,0.1926981300886255,0.9781130038360408,0.2274276663926815,0.624300794217722
601,34.023,33.84,1.11,0.28911178758143774,0.4435945425088631,0.19283470293114643,0.9788878502325756,0.22785384662650557,0.6215325819204965
602,34.064,33.89,0.89,0.2895831213310783,0.4425581129068708,0.19298736535399388,0.9796604541087591,0.22831270552134414,0.6187560736338851
603,34.125,33.95,0.81,0.29007394313644325,0.4415062660091831,0.1931566306900495,0.9804300467563405,0.22880473330446466,0.6159724019408596
604,34.187,34.0,1.17,0.2905844948534222,0.44043804255552754,0.19334301126170592,0.9811958525678808,0.22933041197984183,0.6131827101052132
605,34.249,34.06,0.94,0.29111501453830896,0.43935250215216354,0.1935470179430515,0.9819570899563026,0.22989021485282288,0.6103881515262726
606,34.332,34.11,0.61,0.29166573610769153,0.43824872452947783,0.1937691597260988,0.9827129722909258,0.2304846060642042,0.6075898891617982
607,34.354,34.17,1.17,0.29223688901387596,0.43712581073332624,0.1940099432916176,0.9834627088481754,0.2311140401346022,0.6047890949183566
608,34.395,34.22,0.94,0.29282869793655225,0.43598288424943776,0.19426987258514794,0.9842055057748765,0.23177896151998875,0.6019869490085368
609,34.457,34.28,0.56,0.2934413824913416,0.43481909206046904,0.19454944839876676,0.9849405670619521,0.23247980417922043,0.5991846392745297
610,34.498,34.33,0.84,0.29407515695578074,0.43363360563550574,0.19484916795913257,0.9856670955264761,0.2332169911543465,0.5963833604777474
611,34.56,34.39,0.9,0.2947302300131962,0.43242562185193867,0.1951695245222918,0.9863842938002902,0.23399093416443809,0.5935843135542435
612,34.62,34.44,0.7,0.2954068045148022,0.4311943638497511,0.19551100697574192,0.9870913653234881,0.23480203321358942,0.5907887048358618
613,34.704,34.5,0.58,0.2961050772601844,0.4299390818184561,0.1958740994482422,0.9877875153409916,0.2356506762136202,0.5879977452372499
614,34.723,34.55,0.98,0.2968252387961724,0.4286590537172104,0.19625928092780953,0.9884719519003021,0.2365372386219239,0.5852126494090119
615,34.763,34.61,0.76,0.29756747323399196,0.4273535859288697,0.19666702488829893,0.9891438868482201,0.23746208309485084,0.5824346348573491
616,34.845,34.66,0.45,0.2983319580845301,0.4260220138489928,0.19709779892495363,0.9898025368239763,0.23842555915695157,0.5796649210306883
617,34.885,34.72,1.04,0.29911886411149685,0.42466370241115436,0.19755206439930548,0.9904471242458509,0.23942800288636987,0.5769047283739579
618,34.945,34.77,0.85,0.2999283552022426,0.4232780465502655,0.19803027609382734,0.9910768782880721,0.240469736616649,0.5741552773513178
619,35.008,34.83,0.52,0.300760588255962,0.4218644716059221,0.19853288187675286,0.9916910358446149,0.2415510686551876,0.571417787438323
620,35.069,34.88,0.79,0.30161571308898444,0.420422433668108,0.19906032237745616,0.9922888424766106,0.242672293018567,0.5686934760846727
621,35.13,34.94,0.89,0.3024938723568249,0.4189514198678151,0.19961303067279212,0.9928695533402684,0.2438336891849791,0.5659835576487875
622,35.171,34.99,0.7,0.3033952014926363,0.41745094861529386,0.20019143198487405,0.9934324340922148,0.24503552186394922,0.5632892423056196
623,35.213,35.05,0.52,0.304319828661631,0.4159205697888729,0.20079594339083154,0.9939767617690161,0.24627804078348267,0.5606117349293358
624,35.276,35.1,0.97,0.3052678747309265,0.41435986487758236,0.201426973545108,0.9945018256374194,0.24756148049472249,0.5579522339526988
625,35.317,35.16,0.76,0.3062394532541708,0.41276844708103905,0.20208492241487755,0.9950069280115139,0.24888606019417353,0.5553119302050977
626,35.379,35.21,0.38,0.3072346704702029,0.4111459613701466,0.202770181029193,0.9954913850326017,0.2502519835634897,0.5526920057313942
627,35.44,35.27,1.04,0.30825362531491546,0.40949208451221963,0.20348313124250905,0.995954527407179,0.2516594386267702,0.5500936325939786
628,35.503,35.32,0.86,0.30929640944543496,0.40780652506411375,0.20422414551323548,0.9963957010982817,0.25310859762527,0.547517971660684
629,35.564,35.38,0.53,0.31036310727571637,0.40608902333692276,0.2049935866978544,0.9968142679658986,0.2545996169093842,0.5449661713815603
630,35.605,35.43,0.75,0.31145379602266615,0.40433935133584564,0.20579180786079773,0.9972096063535567,0.256132636847746,0.5424393665578638
631,35.667,35.49,0.88,0.31256854576196547,0.40255731267881123,0.2066191520999082,0.9975811116199597,0.2577077817532873,0.539938677106809
632,35.728,35.54,0.71,0.3137074194928454,0.40074274249726854,0.2074759523871302,0.9979281966158152,0.25932515982608423,0.5374652068257163
633,35.811,35.6,0.52,0.31487047321111217,0.39889550732233303,0.2083625314241012,0.9982502921063712,0.2609848631127297,0.5350200421592249
634,35.831,35.65,0.98,0.31605775598972446,0.3970155049592875,0.20927920151241264,0.9985468471400188,0.26268696748191606,0.5326042509731124
635,35.872,35.71,0.73,0.31726931006621883,0.39510266435319236,0.21022626443844344,0.9988173293629374,0.2644315326158623,0.530218881337989
636,35.934,35.76,0.33,0.31850517093625363,0.39315694544803903,0.2112040113727953,0.9990612252793276,0.2662186020171568,0.527864960325859
637,35.975,35.82,0.91,0.319765367452493,0.39117833904154786,0.21221272278444953,0.9992780404564763,0.26804820303051596,0.5255434928222559
638,36.035,35.87,0.76,0.3210499219279804,0.3891668666373187,0.2132526683698216,0.9994672996738012,0.26992034687887995,0.5232554603564084
639,36.097,35.93,0.47,0.3223588502430602,0.38712258029563174,0.21432410699682874,0.9996285470153683,0.27183502871315135,0.5210018199517861
640,36.159,35.98,0.69,0.32369216195480505,0.3850455624838327,0.21542728666382363,0.9997613459064015,0.2737922276747756,0.5187835029993655
641,36.241,36.04,0.9,0.3250498604078498,0.3829359259268287,0.2165624444729037,0.9998652790956084,0.2757919069703016,0.5166014141558783
642,36.262,36.09,0.78,0.32643194284554444,0.38079381345772956,0.21772980661689323,0.9999399485859944,0.2778340139569997,0.5144564302692676
643,36.303,36.15,0.61,0.32783840052038243,0.3786193978682804,0.21892958837924573,0.9999849755169429,0.2799184802385633,0.5123493993336137
644,36.365,36.2,1.19,0.3292692188027428,0.3764128817584866,0.22016199414614593,1.0,0.2820452217699167,0.5102811394757988
645,36.426,36.26,0.99,0.33072437728711435,0.37417449738461955,0.22142721743017033,0.9999846809102835,0.2842141389702056,0.5082524379760919
646,36.488,36.31,0.63,0.3322038498951238,0.37190450650458506,0.22272544090496094,0.9999386956349238,0.2864251168431074,0.5062640503247927
647,36.551,36.37,1.25,0.33370760497482543,0.3696032002195095,0.22405683645044974,0.9998617397795652,0.288678025103674,0.504316699317022
648,36.592,36.42,1.16,0.3352356053958236,0.36727089881034586,0.2254215652082703,0.9997535268337137,0.29097271831100635,0.5024110741877317
649,36.653,36.48,0.91,0.33678780863988406,0.364907951568328,0.22681977764705064,0.9996137877957695,0.29330903600610025,0.5005478297891243
650,36.714,36.53,1.08,0.33836416688674825,0.36251473661823636,0.2282516136372097,0.9994422707590225,0.2956868028542544,0.498727585812815
651,36.775,36.59,1.33,0.3399646270949182,0.3600916607335144,0.22971720253474506,0.999238740460534,0.29810582879150677,0.49695092605905866
652,36.856,36.64,1.19,0.34158913107725664,0.35763915914214567,0.231216663273444,0.9990029777951387,0.3005659091746383,0.4952183977552844
653,36.898,36.7,0.97,0.34323761557128846,0.3551576953220123,0.23275010446497194,0.9987347792966661,0.303066824934318,0.49353051092612626
654,36.918,36.75,1.53,0.3449100123041105,0.35264776078436794,0.23431762450633642,0.998433956588085,0.30560834273102183,0.49188773781702594
655,36.98,36.81,1.33,0.3466062480518404,0.35010987484399464,0.23591931169428407,0.9981003358017884,0.3081902151134303,0.4902905123733233
656,37.041,36.86,0.94,0.34832624469359463,0.34754458437458435,0.23755524434625966,0.9977337569707809,0.3108121806790651,0.48873922977664525
657,37.082,36.92,1.55,0.35006991926006314,0.34495246354792036,0.23922549092761963,0.997334073391221,0.31347396423698126,0.4872342460403664
658,37.143,36.97,1.52,0.3518371839768538,0.3423341135555059,0.24093011018488475,0.9969011509565725,0.3161752769723872,0.48577587766594704
659,37.205,37.03,1.29,0.3536279463028817,0.3396901623114793,0.2426691512848853,0.9964348674636611,0.31891581661309176,0.4843644013621713
660,37.288,37.08,1.48,0.3554421089641559,0.33702126413607775,0.2444426539595897,0.9959351118913212,0.3216952675977262,0.4830000538295549
661,37.309,37.14,1.67,0.3572795699833867,0.3343280994193964,0.246250648656276,0.9954017836528897,0.3245133012458018,0.48168303161222004
662,37.349,37.19,1.47,0.35914022270592905,0.3316113742654554,0.2480931566926397,0.9948347918240943,0.3273695759297906,0.4804134910193132
663,37.412,37.25,1.21,0.3610239558226533,0.3288718201166576,0.24997019041645827,0.9942340543477564,0.33026373724951,0.4791915481176571
664,37.516,37.3,1.75,0.36293065339037367,0.3261101933586998,0.2518817533694959,0.9935994972163741,0.33319541820915816,0.4780172787967894
665,37.536,37.36,1.5,0.3648601948504778,0.32332727490585356,0.253827840455435,0.9929310536332414,0.33616423939737355,0.4768907189069887
666,37.578,37.41,1.08,0.366812455046399,0.32052386976628894,0.25580843811171655,0.9922286631524702,0.3391698091706652,0.47581186447044554
667,37.639,37.47,1.57,0.3687873042405327,0.31770080658685423,0.25782352448524837,0.9914922707982705,0.342211723840516,0.4747806719653706
668,37.699,37.52,1.56,0.3707846081311579,0.314858937176464,0.25987306961204737,0.9907218261639992,0.34528956786441795,0.47379705868248095
669,37.76,37.58,1.36,0.37280422786987016,0.3119991360070348,0.26195703560098643,0.9899172824918138,0.3484029140410084,0.4728609031531015
670,37.823,37.63,1.41,0.37484602007998996,0.3091222996908681,0.26407537682177323,0.9890785957343852,0.3515513237093943,0.4719720456479755
671,37.864,37.69,1.76,0.37690983687641466,0.3062293464333894,0.2662280400971309,0.9882057236008825,0.3547343469527394,0.4711302887455915
672,37.926,37.74,1.57,0.37899552588746127,0.30332121546007473,0.268414964899038,0.9872986245899177,0.35795152280622466,0.47033539796846735
673,38.007,37.8,1.28,0.3811029302793376,0.3003988664163574,0.2706360835488567,0.9863572570121427,0.36120237946951683,0.46958710248554364
674,38.028,37.85,1.9,0.38323188878394676,0.29746327873945505,0.2728913214211789,0.9853815780050055,0.3644864345239317,0.46888509587856636
675,38.068,37.91,1.69,0.38538223573076436,0.29451545100126414,0.27518059715123416,0.9843715425419172,0.36780319515453247,0.4682290369701029
676,38.129,37.96,1.3,0.38755380108354115,0.29155640022163504,0.27750382284571434,0.983327102437927,0.371152158377421,0.46761855071069225
677,38.189,38.02,1.72,0.3897464104825582,0.28858716115147237,0.27986090429686206,0.9822482053540551,0.37453281127250415,0.46705322912251046
678,38.23,38.07,1.73,0.39195988529311915,0.28560878552517743,0.28225174119971486,0.9811347938025571,0.3779446312220356,0.4665326322967675
679,38.292,38.13,1.49,0.39419404266088154,0.2826223412820118,0.28467622737248094,0.9799868041554706,0.38138708615520883,0.46605628944194644
680,38.375,38.18,1.44,0.39644869557447954,0.27962891175614224,0.28713425098001516,0.9788041656588972,0.384859634799012,0.46562369997991415
681,38.396,38.24,1.82,0.3987236529357143,0.2766295948353055,0.2896256947602415,0.9775867994556112,0.38836172693551696,0.4652343346867394
682,38.458,38.29,1.61,0.40101871963744756,0.27362550208806186,0.2921504362532408,0.9763346176185467,0.39189280366573404,0.4648876368747888
683,38.52,38.35,1.32,0.40333369664922347,0.270617757859598,0.29470834803263274,0.9750475221974934,0.3954522976800899,0.4645830236125268
684,38.561,38.4,1.98,0.4056683811105583,0.2676074983362001,0.29729929793882665,0.9737254042810258,0.3990396335355369,0.4643198869783429
685,38.623,38.46,1.78,0.40802256643179424,0.2645958705787646,0.29992314931369285,0.9723681430754466,0.4026542279392738,0.46409759534466954
686,38.686,38.51,1.44,0.4103960424024036,0.2615840315260079,0.3025797612361817,0.9709756050024998,0.4062954900390369,0.4639154946886862
687,38.789,38.57,1.82,0.4127885953066333,0.2585731469683336,0.30526898875834124,0.9695476428179566,0.40996282171993814,0.46377290992598047
688,38.81,38.62,1.92,0.4152000080464042,0.2555643904935635,0.3079906831411691,0.9680840947536743,0.4136556179078692,0.46366914626357353
689,38.852,38.68,1.72,0.41763006027139704,0.2525589424059063,0.31074469208981015,0.9665847836860098,0.4173732668794902,0.46360349056885536
690,38.914,38.73,1.6,0.42007852851623745,0.24955798861976008,0.3135308599876747,0.9650495163335209,0.4211151505787962,0.463575212751165
691,38.975,38.79,2.03,0.42254518634464444,0.24656271953019088,0.3163490281290317,0.9634780824868576,0.424880644940261,0.46358356715281257
692,39.038,38.84,1.78,0.42502980450036365,0.2435743288620702,0.31919903494959523,0.9618702542735463,0.42866912021856013,0.4636277939463004
693,39.12,38.9,1.43,0.42753215106463066,0.24059401249994788,0.3220807162545977,0.9602257854600735,0.43247994132484535,0.46370712053450747
694,39.14,38.95,2.06,0.43005199161979607,0.2376229673008954,0.32499390544381834,0.9585444107933707,0.4363124681694866,0.4638207629506123
695,39.182,39.01,1.87,0.4325890894186054,0.23466238989269267,0.32793843373302695,0.9568258453835554,0.44016605601113806,0.46396792725452213
696,39.224,39.06,1.54,0.4351432055585042,0.23171347545979076,0.33091413037126566,0.9550697841297768,0.44404005581189715,0.4641478109226522
697,39.287,39.12,1.86,0.4377140991602543,0.22877741651950897,0.3339208228532866,0.953275901191363,0.4479338145982534,0.46435960422800254
698,39.349,39.17,2.02,0.4403015275501286,0.22585540169090806,0.3369583371263837,0.9514438495069506,0.45184667582748594,0.46460249160754824
699,39.411,39.23,1.86,0.4429052464449735,0.22294861445879366,0.34002649779090477,0.9495732603644471,0.45577797975911283,0.46487565301411843
700,39.472,39.28,1.72,0.4455250101394444,0.22005823193550234,0.34312512829381836,0.947663743024455,0.45972706383092965,0.4651782652501789
701,39.492,39.34,2.22,0.44816057169472895,0.21718542362346527,0.34625405111477237,0.9457148843993843,0.46369326303916886,0.4655095032810866
702,39.574,39.39,2.0,0.45081168312811637,0.21433135018178914,0.3494130879441321,0.9437262487899658,0.4676759103223264,0.4658685415254526
703,39.614,39.45,1.63,0.45347809560283237,0.21149716220018197,0.3526020598525254,0.9416973776803765,0.4716743369482046,0.4662545551203925
704,39.676,39.5,2.27,0.45615955961760696,0.20868399898356005,0.35582078745143664,0.939627789592762,0.4756878729037218,0.46666672115961516
705,39.737,39.56,2.09,0.45885582519548324,0.2058929873505882,0.3590690910444106,0.9375169800016713,0.4797158472870275,0.4671042199025044
706,39.799,39.61,1.76,0.4615666420713853,0.2031252404492784,0.36234679076837945,0.9353644213089805,0.4837575887014142,0.4675662359526577
707,39.84,39.67,2.0,0.46429175987794086,0.20038185659268026,0.3656537067244488,0.933169562880471,0.48781242565046323,0.46805195940465966
708,39.902,39.72,2.17,0.4670309283290165,0.1976639181175496,0.3689896590972776,0.9309318311460326,0.4918796869338198,0.46856058695804154
709,39.965,39.78,2.01,0.4697838974003913,0.19497249026860974,0.37235446826210106,0.9286506297659,0.49595870204292186,0.4690913229975351
710,40.046,39.83,1.87,0.47255041750695304,0.19230862011077665,0.37574795487844176,0.9263253398652607,0.50004880155589,0.46964338063892336
711,40.066,39.89,2.43,0.4753302396757745,0.18967333547157916,0.37916993996956033,0.9239553203392024,0.5041493175307183,0.47021598273990917
712,40.107,39.94,2.22,0.4781231157144564,0.18706764391587064,0.38262024498671265,0.9215399082294659,0.5082595838958759,0.47080836287544314
713,40.21,40.0,1.86,0.4809287983741842,0.18449253175479197,0.38609869185729834,0.9190784191740069,0.51237893683741,0.4714197662769882
714,40.23,40.05,2.55,0.48374704150700626,0.18194896309083963,0.3896051030159954,0.9165701479300348,0.5165067151816615,0.4720494507352333
715,40.271,40.11,2.42,0.4865776002169087,0.17943787890078466,0.39313930141800196,0.9140143689710682,0.5206422607727251,0.4726966874658185
716,40.333,40.16,2.14,0.48942023100430976,0.17696019615808886,0.39670111053346585,0.9114103371588387,0.5247849188438057,0.47336076193780885
717,40.395,40.22,2.36,0.4922746919036334,0.17451680699641128,0.40029035432197957,0.9087572884917499,0.5289340383816247,0.4740409746648483
718,40.435,40.27,2.56,0.4951407426136575,0.17210857791564185,0.40390685718577474,0.906054440932754,0.533088972483091,0.4747366419589824
719,40.496,40.33,2.42,0.4980181446203777,0.16973634903154522,0.4075504439001345,0.9033009953201742,0.5372490787034591,0.47544709664714896
720,40.577,40.38,2.24,0.500906661312139,0.16740093336971518,0.41122093951953864,0.900496136365067,0.5414137193951797,0.47617168875040045
721,40.598,40.44,2.85,0.5038060580867626,0.16510311620425214,0.4149181692580732,0.8976390337383745,0.5455822620366383,0.4769097861259204
722,40.682,40.49,2.66,0.5067161024503721,0.1628436544413354,0.41864195834266743,0.8947288432506486,0.5497540795499966,0.4776607750718198
723,40.701,40.55,2.28,0.5096365641076344,0.16062327604767443,0.42239213183776264,0.8917647081266634,0.5539285506073778,0.4784240608946569
724,40.764,40.6,3.0,0.5125672150431603,0.15844267952372948,0.42616851444007187,0.8887457603768825,0.5581050599246848,0.47919906843960514
725,40.823,40.66,2.91,0.5155078295938846,0.15630253342152658,0.4299709302422584,0.8856711222673558,0.5622829985424144,0.4799852425832059
726,40.865,40.71,2.68,0.5184581845123339,0.15420347590687153,0.4337992024646801,0.8825399078889768,0.5664617640928883,0.4807820486888099
727,40.947,40.77,2.9,0.5214180590207791,0.15214611436585052,0.4376531531547938,0.8793512248260786,0.5706407610533979,0.4815889730250013
728,41.008,40.82,3.15,0.5243872348563733,0.15013102505555376,0.4415326028543355,0.8761041759232151,0.5748194009848826,0.48240552314730695
729,41.049,40.88,2.99,0.5273654963074883,0.14815875279884336,0.4454373702348873,0.8727978611478419,0.5789971027558956,0.48323122824340886
730,41.112,40.93,2.75,0.5303526302415446,0.14622981072284674,0.44936727170275526,0.8694313795457885,0.5831732927516825,0.4840656394420283
731,41.174,40.99,3.33,0.5333484261246513,0.14434468004079873,0.45332212097420715,0.866003831285838,0.5873474050682927,0.48490833008557016
732,41.234,41.04,3.06,0.5363526760333895,0.1425038098767813,0.45730172862217083,0.8625143197892893,0.591518881691705,0.4857588959665126
733,41.378,41.1,2.62,0.5393651746590499,0.14070761713281027,0.4613059015955325,0.8589619539400049,0.595687172661979,0.4866169555274932
734,41.399,41.15,3.28,0.5423857193045781,0.1389564863976646,0.4653344427121994,0.8553458503702047,0.5998517362224418,0.48748215002504847
735,41.419,41.21,3.21,0.5454141098743902,0.1372507698968427,0.46938715012722637,0.851665135816987,0.6040120389538886,0.48835414365700186
736,41.439,41.26,2.98,0.5484501488571025,0.13559078748307712,0.4734638167775809,0.8479189495439876,0.6081675558937203,0.4892326236536491
737,41.5,41.32,3.17,0.551493641301132,0.13397682666697655,0.4775642298055108,0.8441064458217037,0.612317770639891,0.49011730033305195
738,41.563,41.37,3.48,0.5545443947831067,0.13240914268744614,0.4816881699629096,0.8402267964589197,0.6164621754395839,0.4910079071207051
739,41.603,41.43,3.33,0.5576022193690915,0.13088795862143998,0.48583541099946226,0.8362791933766502,0.6206002712626019,0.49190420053370243
740,41.683,41.48,3.09,0.5606669275687369,0.1294134655324763,0.49000571903757717,0.8322628512152526,0.6247315678595383,0.49280596012943956
741,41.703,41.54,3.72,0.5637383342825542,0.1279858226573187,0.4941988519371717,0.8281770099648825,0.6288555838048846,0.493712988418806
742,41.765,41.59,3.48,0.5668162567426162,0.12660515763020344,0.4984145586534052,0.8240209376090982,0.6329718465253574,0.49462511074374244
743,41.806,41.65,3.03,0.569900514447089,0.12527156674392692,0.5026525785904803,0.819793932771107,0.6370798923137917,0.4955421751190756
744,41.869,41.7,3.64,0.5729909290890672,0.12398511524703827,0.5069126409546797,0.8154953273520458,0.6411792663290182,0.4964640520386238
745,41.93,41.76,3.55,0.5760873244802294,0.12274583767629249,0.5111944641099155,0.8111244891507295,0.6452695225821781,0.49739063424567265
746,41.971,41.81,3.29,0.5791895264698119,0.12155373822347289,0.5154977549391141,0.8066808244547655,0.6493502239099043,0.4983218364681471
747,42.053,41.87,3.37,0.5822973628593027,0.12040879113578859,0.5198222082145656,0.8021637805940616,0.6534209419347561,0.49925759511903806
748,42.114,41.92,3.69,0.5854106633131156,0.1193109411491476,0.5241675059799769,0.7975728484492247,0.6574812570132851,0.5001978679626868
749,42.176,41.98,3.5,0.5885292592653925,0.11826010395353281,0.5285333169466524,0.7929075649083981,0.6615307581720989,0.5011426337474533
750,42.197,42.03,3.27,0.5916529838229898,0.11725616668956948,0.5329192959060518,0.7881675152663615,0.6655690430322576,0.5020918918052839
751,42.257,42.09,3.91,0.5947816716646551,0.11629898847528544,0.5373250831608782,0.7833523355595696,0.6695957177223203,0.503045661618694
752,42.298,42.14,3.69,0.5979151589364223,0.11538840096196462,0.5417503039768081,0.7784617148304671,0.6736103967803823,0.5040039823556519
753,42.36,42.2,3.27,0.6010532831433383,0.1145242089178705,0.5461945680569573,0.7734953973141275,0.6776127030454643,0.5049669123729146
754,42.421,42.25,3.88,0.6041958830377393,0.11370619083852695,0.5506574690412162,0.7684531845401109,0.6816022675386572,0.505934528688448
755,42.464,42.31,3.84,0.6073427985044172,0.11293409958216206,0.5551385840327143,0.7633349373424368,0.6855787293344765,0.5069069264236954
756,42.524,42.36,3.59,0.6104938704431107,0.1122076630288979,0.5596374731537843,0.7581405777709131,0.6895417354228831,0.5078842182166929
757,42.627,42.42,3.67,0.6136489406487925,0.11152658476239473,0.5641536791336493,0.7528700908980152,0.6934909405624279,0.5088665336072887
758,42.647,42.47,3.98,0.6168078516902473,0.11089054477277978,0.5686867269297384,0.7475235265168021,0.6974260071250231,0.5098540183957422
759,42.688,42.53,3.77,0.6199704467874472,0.11029920017961845,0.5732361233842306,0.7421010007262774,0.7013466049328759,0.510846833975886
760,42.79,42.58,3.49,0.6231365696882221,0.10975218597353265,0.5778013569172518,0.73660269740088,0.7052524110881225,0.5118451566439506
761,42.81,42.64,4.14,0.6263060645446465,0.10924911577497017,0.5823818972580032,0.7310288695407073,0.7091431097956901,0.5128491768840364
762,42.852,42.69,3.9,0.6294787757894788,0.10878958260849247,0.5869771952149849,0.7253798404988556,0.7130183921799089,0.5138590986310682
763,42.913,42.75,3.49,0.6326545480129069,0.10837315969074555,0.5915866824863788,0.7196560050821141,0.7168779560953696,0.5148751385119583
764,42.974,42.8,4.09,0.6358332258398047,0.10799940123008407,0.5962097715115707,0.7138578305212608,0.7207215059325054,0.5158975250656349
765,43.015,42.86,4.07,0.6390146538076905,0.10766784323565577,0.6008458553647948,0.7079858573073918,0.7245487524183827,0.5169264979425578
766,43.076,42.91,3.84,0.6421986762456106,0.107378004333691,0.6054943076918573,0.7020406998912158,0.7283594124131643,0.5179623070844751
767,43.159,42.97,3.93,0.6453851371541919,0.10712938658886506,0.6101544826906655,0.6960230472433014,0.7321532087026896,0.5190052118853729
768,43.18,43.02,4.27,0.6485738800871608,0.10692147632874452,0.6148257151358995,0.6899336632746316,0.7359298697876758,0.5200554803346064
769,43.244,43.08,4.06,0.6517647480347072,0.10675374496929993,0.6195073204478329,0.6837733871177945,0.7396891296700963,0.521113388143142
770,43.303,43.13,3.77,0.6549575833091523,0.10662564983938301,0.6241985948050955,0.6775431332695004,0.7434307276373247,0.5221792178538254
771,43.365,43.19,4.38,0.6581522274333972,0.10653663500209168,0.6288988153010204,0.6712438915951039,0.7471544080446682,0.5232532579365639
772,43.426,43.24,4.11,0.6613485210326095,0.10648613207103277,0.6336072401431062,0.6648767271956642,0.7508599200969271,0.5243358018692594
773,43.53,43.3,3.65,0.6645463037295429,0.10647356101957928,0.6383231088950486,0.6584427801379564,0.7545470176296024,0.52542714720533
774,43.549,43.35,4.21,0.6677454140437683,0.10649833098129599,0.6430456427607477,0.6519432650478033,0.7582154588903169,0.5265275946286917
775,43.59,43.41,4.18,0.6709456892949828,0.1065598410397168,0.6477740449097417,0.6453794705671648,0.7618650063209648,0.5276374469970845
776,43.631,43.46,3.94,0.6741469655104219,0.10665748100566214,0.6525075008435429,0.6387527586756614,0.7654954263409773,0.5287570083747783
777,43.692,43.52,4.04,0.6773490773362673,0.10679063218043455,0.6572451788022092,0.6320645638778676,0.769106489131986,0.5298865830558541
778,43.754,43.57,4.42,0.6805518579528438,0.10695866810345174,0.6619862302101543,0.625316392258625,0.772697968424112,0.5310264745792647
779,43.795,43.63,4.23,0.683755138993385,0.10716095528300072,0.6667297901599123,0.6185098204092755,0.7762696412841056,0.53217698473676
780,43.96,43.68,3.96,0.6869587504661719,0.10739685390890157,0.6714749779323562,0.6116464942279488,0.7798212879055585,0.5333384125747178
781,43.979,43.74,4.64,0.6901625206798974,0.1076657185460297,0.67622089755169,0.6047281275970482,0.7833526914014491,0.534511053390861
782,43.999,43.79,4.38,0.6933662761721573,0.10796689880777552,0.6809666383734023,0.5977565009410044,0.7868636375993384,0.5356951977267677
783,44.019,43.85,3.92,0.6965698416410224,0.10829974000859274,0.685711275703273,0.5907334596673707,0.790353914839571,0.5368911303570986
784,44.061,43.9,4.48,0.6997730398796576,0.10866358379487037,0.6904538714455084,0.583660912494459,0.7938233137768579,0.5380991292765239
785,44.122,43.96,4.42,0.702975691713942,0.10905776875342182,0.6951934747782161,0.5765408296689356,0.797271627185629,0.5393194646854124
786,44.183,44.01,4.14,0.7061776159430111,0.10948163099695123,0.6999291228546018,0.569375241077169,0.800698649769472,0.5405523979755763
787,44.245,44.07,4.21,0.7093786292825393,0.10993450472601278,0.704659841528215,0.5621662342549428,0.8041041779748842,0.5417981807176308
788,44.306,44.12,4.56,0.7125785463104882,0.1104157227671187,0.7093846461002515,0.5549159523012495,0.807488009809495,0.5430570536516002
789,44.347,44.18,4.37,0.7157771794149508,0.11092461708662776,0.714102542086591,0.5476265917027129,0.8108499446648539,0.544329245682313
790,44.388,44.23,4.1,0.7189743387436391,0.11146051927998374,0.7188125260019529,0.5403004000755345,0.8141897831438097,0.5456149728810367
791,44.449,44.29,4.81,0.722169832154489,0.11202276103589233,0.7235135861583404,0.5329396738319042,0.8175073268924592,0.5469144374946755
792,44.533,44.34,4.57,0.7253634651668273,0.11261067457505233,0.7282047034747453,0.5255467557777789,0.8208023784366428,0.5482278269637141
793,44.553,44.4,4.14,0.7285550409125761,0.11322359306307447,0.7328848522949885,0.518124032648923,0.8240747410229655,0.5495553129500326
794,44.636,44.45,4.76,0.7317443600870183,0.11386085099729036,0.7375530012105953,0.5106739325921817,0.827324218464353,0.5508970503757208
795,44.717,44.51,4.71,0.7349312208987312,0.11452178456724747,0.7422081138859601,0.5031989225988596,0.830550614990191,0.5522531764740631
796,44.738,44.56,4.48,0.7381154190183754,0.11520573198884314,0.7468491498836438,0.4957015058965898,0.8337537351010968,0.5536238098540761
797,44.779,44.62,4.56,0.7412967475260627,0.11591203381235479,0.751475065488251,0.48818421930529143,0.8369333834283492,0.555009049580261
798,44.843,44.67,4.88,0.7444749968570664,0.11664003320490654,0.7560848145277508,0.4806496305619872,0.8400893645980309,0.5564089742693189
799,44.884,44.73,4.66,0.7476499547456833,0.11738907620797104,0.7606773491913098,0.4731003356185809,0.8432214830999611,0.5578236412055086
800,44.988,44.78,4.34,0.750821406167072,0.11815851197045003,0.7652516208427109,0.4655389559163183,0.8463295431614901,0.5592530854762868
801,45.01,44.84,4.96,0.7539891332768641,0.11894769295787644,0.7698065808282697,0.4579681356405503,0.8494133486262083,0.5606973191297978
802,45.07,44.89,4.7,0.7571529153482635,0.11975597513830238,0.7743411812779663,0.4503905389594033,0.8524727028375956,0.5621563303556982
803,45.111,44.95,4.37,0.7603125287062634,0.1205827181454515,0.7788543758983525,0.44280884725000835,0.8555074085275516,0.5636300826907822
804,45.172,45.0,5.02,0.7634677466585158,0.12142728541973237,0.7833451207557333,0.4352257563160847,0.8585172677096754,0.565118514250867
805,45.255,45.06,4.98,0.7666183394223574,0.1222890443276681,0.787812375048292,0.4276439736007587,0.8615020815771172,0.5666215369903185
806,45.277,45.11,4.75,0.769764074047531,0.12316736626021554,0.7922551018661725,0.420066215398425,0.864461650404801,0.5681390359905074
807,45.358,45.17,4.89,0.7729047143342197,0.12406162671042775,0.796672268938811,0.41249520406939155,0.8673957734558512,0.5696708687783634
808,45.379,45.22,5.25,0.7760400207461462,0.12497120533088413,0.8010628493689377,0.4049336652610706,0.8703042488921524,0.571216864675929
809,45.441,45.28,5.05,0.7791697503186559,0.12589548597119474,0.8054258223526839,0.39738432513947364,0.8731868736890799,0.5727768241815825
810,45.504,45.33,4.77,0.7822936565618536,0.12683385669581396,0.8097601738851521,0.38984990763475397,0.8760434435544987,0.5743505183835035
811,45.566,45.39,5.42,0.785411489358967,0.12778570978245424,0.8140648974506128,0.3823331317045989,0.878873752852218,0.575937688405876
812,45.608,45.44,5.13,0.7885229948601981,0.12875044170144218,0.8183389946962782,0.3748367086193731,0.8816775945301626,0.5775380448882277
813,45.669,45.5,4.64,0.7916279153723829,0.12972745307636271,0.8225814760884033,0.36736333927307124,0.8844547600535495,0.5791512674982794
814,45.732,45.55,5.25,0.794725989244793,0.13071614862634676,0.826791361549381,0.35991571152439666,0.8872050393433621,0.5807770044786897
815,45.814,45.61,5.16,0.7978169507513945,0.13171593709035434,0.8309676810746398,0.35249649757239854,0.8899282207203729,0.5824148722281154
816,45.835,45.66,4.91,0.8009005299698094,0.13272623113383739,0.8351094753285363,0.3451083513708308,0.8926240908548756,0.5840644549171774
817,45.874,45.72,5.07,0.8039764526571257,0.1337464472383167,0.8392157962188322,0.3377539060848064,0.8952924347221685,0.5857253041401211
818,45.935,45.77,5.43,0.8070444401226152,0.13477600557453687,0.843285707449627,0.33043577159264514,0.8979330355637906,0.5873969386029437
819,45.997,45.83,5.25,0.8101042090974095,0.13581432985980493,0.847318285052731,0.3231565320353053,0.9005456748545061,0.5890788438486051
820,46.1,45.88,4.99,0.8131554716012415,0.13686084719999841,0.8513126178973818,0.31591874341562737,0.9031301322750429,0.5907704720197926
821,46.121,45.94,5.67,0.8161979348064439,0.13791498791667217,0.8552678081779738,0.3087249312497581,0.9056861856906662,0.5924712416595286
822,46.162,45.99,5.41,0.8192313008995354,0.13897618535964792,0.8591829718792348,0.3015775882733161,0.908213611135759,0.5941805375497476
823,46.224,46.05,4.93,0.8222552669408594,0.14004387570544632,0.8630572392181258,0.2944791722050745,0.9107121828046528,0.5958977105879277
824,46.264,46.1,5.59,0.8252695247228629,0.1411174977419766,0.8668897550617115,0.28743210357119836,0.9131816730490074,0.5976220777019035
825,46.325,46.16,5.48,0.8282737606276757,0.14219649263999645,0.8706796793205256,0.2804387635931634,0.9156218523820777,0.5993529218030865
826,46.385,46.21,5.18,0.831267655484697,0.1432803037120065,0.8744261873174952,0.273501492142162,0.9180324894901777,0.6010894917785761
827,46.488,46.27,5.3,0.8342508844288723,0.14436837615952353,0.8781284701330512,0.2666225857621439,0.9204133512516098,0.6028310025229393
828,46.509,46.32,5.56,0.8372231167603034,0.14546015680990174,0.8817857349274606,0.2598042957629043,0.9227642027633123,0.60457663501052
829,46.549,46.38,5.35,0.8401840158058119,0.14655509384385373,0.8853972052416527,0.25304882638402476,0.9250848073754678,0.6063255364090534
830,46.609,46.43,5.08,0.8431332387830062,0.14765263651468974,0.8889621212777823,0.24635833303017918,0.9273749267342573,0.6080768202352673
831,46.67,46.49,5.74,0.8460704366673196,0.14875223486021072,0.8924797401605662,0.23973492057832343,0.9296343208328977,0.6098295665529901
832,46.732,46.54,5.47,0.8489952540624073,0.14985333940810103,0.8959493361801458,0.23318064175740794,0.9318627480710723,0.6115828222140853
833,46.833,46.6,5.02,0.8519073290742587,0.1509554008755434,0.8993702010169691,0.22669749560144511,0.934059965322819,0.6133356011423928
834,46.853,46.65,5.74,0.8548062931894004,0.1520578698636772,0.9027416439490111,0.22028742597706433,0.9362257280129175,0.6150868846607879
835,46.874,46.71,5.63,0.8576917711576322,0.15316019654744223,0.9060629920417079,0.21395232018687937,0.9383597902018234,0.616835621861464
836,46.936,46.76,5.36,0.8605633808798183,0.15426183036137636,0.9093335903212737,0.20769400764982707,0.9404619046791577,0.6185807300197211
837,46.978,46.82,5.53,0.8634207333013217,0.15536221968215802,0.9125528019324626,0.2015142586591276,0.9425318230657569,0.6203210950517524
838,47.039,46.87,5.79,0.8662634323117042,0.15646081150893343,0.9157200082822117,0.19541478321785477,0.9445692959243336,0.6220555720169342
839,47.1,46.93,5.58,0.8690910746513841,0.1575570511425485,0.9188346091708728,0.18939722995152963,0.9465740728788592,0.6237829856650082
840,47.18,46.98,5.29,0.8719032498259452,0.15865038186482613,0.9218960229127783,0.18346318509690931,0.9485459027427852,0.6255021310284443
841,47.2,47.04,5.88,0.8746995400287878,0.159740244619106,0.9249036864476907,0.17761417156624154,0.9504845336562407,0.6272117740601206
842,47.263,47.09,5.57,0.877479520072773,0.1608260776932987,0.927857055444414,0.17185164808647382,0.9523897132323418,0.6289106523162793
843,47.303,47.15,5.1,0.880242757331473,0.16190731640667322,0.9307556043975479,0.16617700841318514,0.9542611887126942,0.6305974756846056
844,47.365,47.2,5.83,0.8829888116905514,0.16298339280157073,0.9335988267180777,0.16059158061939605,0.956098707132101,0.632270927157224
845,47.427,47.26,5.68,0.8857172355096667,0.16405373534122594,0.9363862348182989,0.15509662645974043,0.957902015492393,0.6339296636483671
846,47.487,47.31,5.41,0.8884275735951633,0.16511776861489633,0.9391173601915538,0.14969334081049954,0.9596708609451925,0.6355723168565423
847,47.568,47.37,5.65,0.8911193631836973,0.1661749130515932,0.941791753487358,0.14438285118566047,0.9614049909833409,0.637197494171069
848,47.589,47.42,5.9,0.893792133936911,0.1672245846437256,0.944408984582693,0.1391662173286027,0.9631041536407292,0.6388037796227052
849,47.63,47.48,5.74,0.8964454079473206,0.16826619468181556,0.9469686426504094,0.13404443087848364,0.9647680977003003,0.640389734877854
850,47.713,47.53,5.53,0.8990786997556628,0.16929914950130387,0.949470336225689,0.12901841511014767,0.9663965729100126,0.641953900275692
851,47.754,47.59,6.16,0.901691516380009,0.17032285024245306,0.9519136932713066,0.12408902474644153,0.9679893302066249,0.6434947959073742
852,47.817,47.64,5.86,0.9042833573570492,0.17133669262437326,0.9542983612421763,0.11925704584199363,0.9695461219472444,0.6450109227362387
853,47.88,47.7,5.38,0.906853714796002,0.17234006673421895,0.9566240071493722,0.1145231957377653,0.9710667021486405,0.6465007637577559
854,47.923,47.75,6.06,0.9094020734456288,0.1733323568326813,0.9588903176235392,0.10988812308605911,0.9725508267343688,0.6479627851978518
855,47.982,47.81,5.86,0.9119279107747911,0.17431294117700494,0.9610969989774336,0.10535240794598442,0.9739982537897696,0.6493954377481697
856,48.044,47.86,5.52,0.9144306970669052,0.17528119186290056,0.9632437772673508,0.10091656194939129,0.9754087438248367,0.6507971578369894
857,48.107,47.92,5.74,0.9169098955285414,0.1762364746869279,0.9653303983533266,0.09658102853695505,0.9767820600448663,0.6521663689347126
858,48.148,47.97,5.95,0.9193649624122876,0.1771781490310167,0.9673566279582223,0.09234618326355318,0.9781179686287369,0.653501482892842
859,48.209,48.03,5.78,0.9217953471539286,0.17810556777063505,0.9693222517259851,0.08821233417156071,0.9794162390145974,0.6548009013152934
860,48.293,48.08,5.58,0.9242004925239008,0.1790180772078763,0.9712270752793526,0.08417972223047511,0.9806766441926527,0.6560630169608012
861,48.313,48.14,6.23,0.9265798347929514,0.17991501703054658,0.9730709242770376,0.08024852184137703,0.9818989610046912,0.6572862151750404
862,48.374,48.19,5.97,0.9289328039119435,0.18079572029815472,0.9748536444701067,0.07641884140493431,0.9830829704500229,0.6584688753508846
863,48.416,48.25,5.48,0.9312588237058298,0.18165951345553957,0.9765751017569754,0.07269072395190065,0.9842284579975147,0.6596093724150685
864,48.477,48.3,6.24,0.9335573120818879,0.18250571637477894,0.9782351822361841,0.06906414783538616,0.9853352139034703,0.6607060783394156
865,48.541,48.36,6.06,0.9358276812524069,0.18333364242597786,0.9798337922560473,0.06553902748441803,0.9864030335351561,0.6617573636747585
866,48.581,48.41,5.71,0.9380693379720418,0.18414259857754844,0.9813708584603956,0.06211521421823863,0.9874317176997629,0.6627615991058344
867,48.664,48.47,5.93,0.9402816837900841,0.18493188552671844,0.9828463278299513,0.05879249712034694,0.9884210729785825,0.663717157025662
868,48.684,48.52,6.1,0.942464115317889,0.18570079786107235,0.9842601677193534,0.055570603970580855,0.9893709120661938,0.6646224131279694
869,48.744,48.58,5.86,0.9446160245117047,0.1864486242518243,0.9856123658903282,0.052449202232838284,0.9902810541144423,0.6654757480162288
870,48.807,48.63,5.62,0.9467367989710974,0.18717464767938619,0.9869029305417062,0.04942790009570849,0.9911513250809332,0.6662755488278826
871,48.847,48.69,6.19,0.9488258222530441,0.18787814569173478,0.9881318903368332,0.04650624756338158,0.9919815580816914,0.6670202108722899
872,48.908,48.74,5.9,0.9508824742016395,0.18855839069597677,0.989299294428607,0.04368373759447857,0.99277159374758,0.6677081392807672
873,48.97,48.8,5.45,0.952906131293224,0.1892146502833654,0.9904052124819926,0.04095980728678034,0.9935212805839759,0.6683377506669816
874,49.051,48.85,6.24,0.9548961669966083,0.18984618758790814,0.9914497346935107,0.03833383910624637,0.9942304753331279,0.6689074747958288
875,49.071,48.91,6.07,0.9568519521479598,0.19045226167864138,0.9924329718069632,0.03580516215904542,0.9948990433385537,0.6694157562588746
876,49.133,48.96,5.74,0.958772855339866,0.19103212798566693,0.9933550551246482,0.033373053505333,0.9955268589107762,0.6698610561545562
877,49.194,49.02,6.03,0.9606582433240742,0.191585038760169,0.9942161365135324,0.031036739513126712,0.9961138056936737,0.6702418537715152
