,Time_Host,Time_Arduino,easingdata,CH1_Oxy,CH1_Deoxy,CH2_Oxy,CH2_Deoxy,CH3_Oxy,CH3_Deoxy
0,1.232,0.04,0.0,1.0,0.0,0.6371639915235185,0.0,0.30122154004934215,0.0
1,1.252,0.1,0.0,0.9867049524957399,0.01739676668138687,0.6265133332635194,0.013388241339758078,0.2992779143186658,0.005662768844774893
2,1.272,0.15,0.0,0.9734879878387318,0.034706687973198626,0.6159345586241995,0.026706306704692966,0.29732307572471517,0.011332637745921892
3,1.293,0.21,0.0,0.9603539371982558,0.05192332360781519,0.6054315038090575,0.03994928273061751,0.2953577516193554,0.017007576785587113
4,1.315,0.26,0.0,0.9473075500465309,0.06904032420493009,0.595007931121677,0.05311232965149242,0.2933826780725452,0.022685556901739214
5,1.335,1.05,0.0,0.934353490190817,0.0860514366626586,0.5846675258850593,0.06619068537505036,0.2913985992173735,0.028364551717435085
6,1.419,1.11,0.0,0.9214963319461738,0.10295050938997234,0.5744138934864462,0.07917966943041439,0.2894062665860431,0.03404253935842447
7,1.44,1.16,0.0,0.9087405564521961,0.11973149737532265,0.5642505565498108,0.09207468678398936,0.2874064384379599,0.039717504256360586
8,1.461,1.22,0.0,0.8960905481366718,0.13638846708672597,0.5541809522378562,0.104871231520229,0.2853998790811111,0.04538743893490976
9,1.503,1.27,0.0,0.883550591328761,0.15291560119897543,0.5442084296850493,0.11756489038419597,0.28338735818794697,0.05105034577607318
10,1.566,1.33,-0.05,0.8711248670239569,0.16930720314401806,0.534336247562912,0.13015134618312807,0.2813696501070062,0.05670423876404882
11,1.628,1.38,-0.21,0.858817449802798,0.18555770148086148,0.524567571778535,0.14262638104447467,0.2793475331715517,0.062347145203974386
12,1.689,1.44,-0.13,0.8466323049051107,0.2016616540816086,0.5149054733071337,0.15498587952801735,0.2773217890064826,0.06797710741292816
13,1.752,1.49,-0.09,0.8345732854614792,0.2176137521303483,0.5053529261594522,0.16722583158972185,0.2752932018347368,0.07359218438067651
14,1.773,1.55,-0.26,0.8226441298836006,0.2334088239317625,0.4959128054848445,0.1793423353950099,0.2732625577842962,0.07919045339787055
15,1.855,1.6,-0.26,0.8108484594150525,0.24904183852657005,0.48658788581080015,0.19133159997934213,0.2712306441968034,0.08477001164964702
16,1.896,1.66,-0.13,0.7991897758438298,0.2645079091113207,0.47738083941955134,0.20318994775434984,0.2691982489387281,0.09032897777281802
17,1.958,1.71,-0.24,0.7876714593777571,0.279802296260525,0.4682942348622491,0.21491381685812408,0.2671661597159492,0.09586549337505013
18,2.021,1.77,-0.33,0.7762967666835552,0.29492041094963284,0.45933053561098897,0.22649976334863536,0.2651351633925571,0.10137772451464261
19,2.064,1.82,-0.14,0.7650688290899305,0.30985781737790297,0.45049209884867464,0.23794446323961438,0.2631060453146343,0.10686386313964114
20,2.126,1.88,-0.14,0.7539906509546821,0.3246102355906106,0.4417811743963793,0.24924471437852933,0.2610795886397531,0.11232212848506018
21,2.166,1.93,-0.29,0.7430651081954951,0.33917354390032817,0.4331999037775279,0.2603974381665486,0.2590565736729278,0.11775076842699764
22,2.228,1.99,-0.18,0.7322949469838042,0.3535437811072429,0.42475031941789165,0.2713996811206459,0.25703777720977744,0.12314806079243049
23,2.29,2.04,-0.15,0.7216827826009045,0.3677171485186897,0.4164343439801362,0.28224861627827985,0.2550239718877144,0.12851231462348164
24,2.35,2.1,-0.31,0.7112310984553304,0.38169001176830636,0.40825378983153815,0.29294154444532267,0.2530159255460195,0.13384187139500187
25,2.412,2.15,-0.35,0.7009422452603954,0.39545890243550025,0.40021035864342147,0.30347589528814556,0.25101440059568436,0.13913510618443728
26,2.472,2.21,-0.24,0.69081844037064,0.40902051946626283,0.392305641120813,0.313849228271015,0.24902015339990216,0.14439042879309993
27,2.492,2.26,-0.38,0.6808617672757877,0.42237173039670767,0.3845411168607694,0.324059233440152,0.24703393366604107,0.14960628481810265
28,2.554,2.32,-0.5,0.6710741752505885,0.4355095723810433,0.3769181543376944,0.3341037320559923,0.24505648384985879,0.15478115667435524
29,2.615,2.37,-0.34,0.6614574791586363,0.4484312530260081,0.3694380110137237,0.3439806770753726,0.24308853857261883,0.15991356456610586
30,2.656,2.43,-0.34,0.6520133594079474,0.46113415103401534,0.3621018335719794,0.3536881534855164,0.24113082405167208,0.16500206740754947
31,2.717,2.48,-0.5,0.6427433620558132,0.4736158166574054,0.35491065827024254,0.3632243784918093,0.23918405754496572,0.17004526369207365
32,2.78,2.54,-0.38,0.633648899060175,0.48587397196635057,0.34786541141235355,0.37258770156151244,0.23724894680986958,0.17504179230976946
33,2.841,2.59,-0.31,0.6247312486745299,0.4979065109331594,0.34096690993447104,0.38177660432579436,0.2353261895766864,0.17999033331288652
34,2.881,2.65,-0.47,0.6159915559832079,0.5097114993359635,0.3342158621032241,0.39078970034269794,0.2334164730372147,0.18488960862900683
35,2.943,2.7,-0.5,0.6074308335737126,0.5212871744850495,0.32761286832272885,0.3996257347239166,0.2315204733487369,0.1897383827218577
36,2.985,2.76,-0.37,0.5990499623427465,0.5326319447753702,0.32115842204739015,0.40828358362848644,0.2296388551538226,0.1945354631998176
37,3.048,2.81,-0.47,0.5908496924325091,0.5437443890689589,0.3148529107973862,0.4167622536266473,0.22777227111632925,0.19927970137228007
38,3.109,2.87,-0.58,0.5828306442938239,0.5546232559110522,0.308696617273685,0.42506088093717326,0.22592136147394604,0.20396999275414465
39,3.233,2.92,-0.47,0.5749933098725692,0.5652674625837469,0.30268972056933585,0.43317873054148637,0.22408675360757818,0.2086052775187597
40,3.253,2.98,-0.46,0.5673380539157793,0.5756760940009849,0.2968322974736555,0.4411151951778551,0.22226906162782445,0.21318454089964897
41,3.313,3.03,-0.63,0.5598651153936542,0.5858484014486538,0.2911243238658165,0.44886979421897955,0.2204688859787457,0.21770681354138166
42,3.334,3.09,-0.55,0.5525746090335201,0.5957838011737147,0.28556567619421525,0.45644217243634444,0.21868681305906135,0.2221711718000135
43,3.375,3.14,-0.48,0.545466526961582,0.6054818728264829,0.2801561330379155,0.463832098654877,0.21692341486086644,0.2265767379936074
44,3.437,3.2,-0.61,0.5385407404481535,0.6149423577604678,0.27489537674644127,0.47103946430160964,0.2151792486259134,0.23092268060344473
45,3.499,3.25,-0.65,0.531797001751912,0.6241651571944653,0.2697829951541877,0.4780642818522067,0.21345485651945498,0.23520821442665488
46,3.582,3.31,-0.49,0.5252349460586648,0.6331503302418642,0.2648184833656945,0.48490668317935937,0.21175076532161244,0.23943260068105188
47,3.602,3.36,-0.56,0.518854093510123,0.6418980918122451,0.2600012456080193,0.4915669178071058,0.21006748613620344,0.24359514706296598
48,3.664,3.42,-0.67,0.5126538513182186,0.6504088103903393,0.25533059714641987,0.4980453510750899,0.2084055141169359,0.24769520775882636
49,3.705,3.47,-0.54,0.5066335159605319,0.6586830056972928,0.250805766259498,0.5043424622167151,0.20676532821085739,0.25173218341119186
50,3.766,3.53,-0.52,0.5007922754524096,0.6667213462390073,0.24642589626992084,0.5104588423550596,0.20514739091895484,0.25570552103986616
51,3.829,3.58,-0.68,0.49512921169137714,0.6745246467461734,0.24219004762684412,0.5163951924203405,0.2035521480737978,0.2596147139187514
52,3.87,3.64,-0.6,0.4896433028693908,0.6820938655105673,0.2380972000361661,0.5221523209927008,0.2019800286341129,0.2634593014092092
53,3.972,3.69,-0.51,0.4843334259484326,0.6894301016222596,0.23414625463476862,0.5277311420741582,0.20043144449618236,0.26723886875084724
54,3.992,3.75,-0.63,0.4791983591949272,0.6965345921125375,0.23033603620496926,0.5331326727936436,0.19890679032195785,0.2709530468108256
55,4.054,3.8,-0.7,0.47423678476845266,0.7034087090075248,0.22666529542547958,0.5383580310491594,0.19740644338377697,0.27460151179293035
56,4.096,3.86,-0.56,0.46944729136024427,0.7100539562976493,0.22313271115523522,0.543408433091174,0.1959307634255743,0.27818398490773005
57,4.158,3.91,-0.64,0.46482837687709283,0.7164719668281241,0.2197368927465805,0.5482851910513342,0.19448009254047802,0.281700232005095
58,4.221,3.97,-0.77,0.4603784511663603,0.7226644991154656,0.21647638238441808,0.5529897104204088,0.19305475506465586,0.2851500631702766
59,4.262,4.02,-0.65,0.45609583877793575,0.7286334340948767,0.21334965744799952,0.5575234874791897,0.1916550574872316,0.2885333322846432
60,4.326,4.08,-0.61,0.4519787817590406,0.7343807718030847,0.21035513289207033,0.5618881066858922,0.19028128837605654,0.2918499365520643
61,4.389,4.13,-0.78,0.44802544247786547,0.7399086280010274,0.20749116364412007,0.5660852380234652,0.18893371831907244,0.29509981599192037
62,4.429,4.19,-0.69,0.4442339064720579,0.7452192307406842,0.20475604701452288,0.5701166343101775,0.18761259988096335,0.29828295289979057
63,4.471,4.24,-0.57,0.44060218531811296,0.7503149168803689,0.20214802511641708,0.5739841284769012,0.186318167574779,0.301399371277009
64,4.533,4.3,-0.68,0.4371282195177798,0.7551981285528917,0.1996652872922906,0.5776896308145641,0.18505063784820702,0.3044491362304335
65,4.615,4.35,-0.73,0.43380988139765025,0.7598714095911456,0.1973059725443497,0.5812351261953107,0.18381020908418333,0.3074323533439185
66,4.679,4.41,-0.56,0.43064497801816853,0.7643374019158072,0.19506817196582146,0.5846226712709656,0.18259706161556774,0.3103491680230129
67,4.7,4.46,-0.62,0.42763125408843927,0.7685988418898403,0.19294993117041614,0.587854391652362,0.18141135775366402,0.31319976481432515
68,4.742,4.52,-0.75,0.4247663948833875,0.7726585566443291,0.1909492527172505,0.59093247907297,0.18025324183040403,0.31598436670086694
69,4.804,4.57,-0.64,0.42204802915999917,0.7765194603799421,0.18906409852859082,0.5938591885401023,0.17912284025404895,0.3187032343745488
70,4.866,4.63,-0.63,0.4194737320695765,0.7801845506480345,0.18729239229787747,0.5966368354768183,0.17802026157829284,0.3213566654868715
71,4.929,4.68,-0.82,0.41704102806317056,0.7836569046151521,0.18563202188565647,0.599267792857475,0.17694559658465617,0.32394499387881476
72,4.99,4.74,-0.79,0.41474739378753733,0.7869396753145422,0.1840808417012025,0.6017544883397977,0.17589891837803245,0.3264685887909773
73,5.072,4.79,-0.66,0.4125902609690987,0.7900360878882504,0.18263667506775194,0.604099401396335,0.17488028249521126,0.32892785405512137
74,5.092,4.85,-0.76,0.41056701928348094,0.7929494358234406,0.18129731656938317,0.6063050604481847,0.17388972702614053,0.3313232272683969
75,5.132,4.9,-0.78,0.4086750192082001,0.7956830771866984,0.1800605343776262,0.6083740400038984,0.1729272727476222,0.3336551789516236
76,5.216,4.96,-0.6,0.4069115748559778,0.7982404308602424,0.1789240725558423,0.6103089578065206,0.1719929232691086,0.3359242116930103
77,5.236,5.01,-0.63,0.40527396678611743,0.8006249727840137,0.17788565333936543,0.6121124719916959,0.1710866651902888,0.33813085927857595
78,5.299,5.07,-0.77,0.40375944479137815,0.802840232207505,0.17694297938938794,0.6137872782596783,0.17020846827020877,0.3402756858103766
79,5.362,5.12,-0.66,0.4023652306578668,0.8048897879550012,0.17609373601860423,0.6153361070639345,0.16935828560774907,0.3423592848134788
80,5.423,5.18,-0.62,0.40108852089563957,0.8067772647076379,0.17533559338674648,0.6167617208188773,0.16853605383337347,0.34438227833248103
81,5.486,5.23,-0.79,0.39992648943794,0.8085063293054441,0.174666208664355,0.6180669111291062,0.1677416933121169,0.34634531601833424
82,5.547,5.29,-0.8,0.39887629030723254,0.81008068707236,0.17408322816334462,0.6192544960424136,0.1669751083578014,0.3482490742062741
83,5.588,5.34,-0.68,0.3979350602463963,0.8115040781671549,0.17358428943312595,0.6203273173287767,0.16623618745847396,0.3500942549857627
84,5.651,5.4,-0.8,0.39709992131360017,0.8127802739631773,0.17316702332121708,0.621288237787499,0.16552480351303636,0.3518815852634341
85,5.712,5.45,-0.91,0.3963679834394141,0.8139130734599591,0.17282905599737577,0.6221401385846144,0.16484081407897955,0.35361181582011764
86,5.753,5.51,-0.75,0.3957363469446346,0.814906299729793,0.17256801094026783,0.622885916622623,0.16418406163107788,0.3552857203630075
87,5.815,5.56,-0.75,0.39520210501721137,0.8157637964024171,0.1723815108856361,0.6235284819445447,0.16355437383084526,0.35690409457395916
88,5.861,5.62,-0.89,0.39476234614660394,0.8164894241908114,0.17226717973488614,0.6240707551741415,0.1629515638065038,0.3584677551547815
89,5.924,5.67,-0.78,0.3944141565138726,0.8170870574609465,0.1722226444229581,0.624515664994067,0.16237543044318334,0.35997753887029676
90,5.964,5.73,-0.7,0.3941546223358331,0.8175605808481609,0.17224553674436469,0.6248661456636444,0.1618257586830782,0.3614343015898436
91,6.028,5.78,-0.86,0.39398083216171464,0.8179138859227043,0.17233349513636886,0.6251251345779179,0.16130231983531398,0.3628389173278622
92,6.068,5.84,-0.89,0.39388987912091566,0.818150867906911,0.17248416641840472,0.6252955698696168,0.1608048718953019,0.36419227728423154
93,6.151,5.89,-0.74,0.3938788631206922,0.8182754224464122,0.1726952074869855,0.6253803880556866,0.16033315987338642,0.3654952888850813
94,6.171,5.95,-0.85,0.3939448929929203,0.8182914424376801,0.1729642869655047,0.625382521729987,0.15988691613259776,0.36674887482486046
95,6.232,6.0,-0.95,0.39408508858932845,0.818202814914019,0.17328908680845573,0.6253048973036384,0.15946586073529082,0.36795397211050046
96,6.293,6.06,-0.81,0.3942965828247353,0.8180134179919017,0.173667303859635,0.6251504327943567,0.15906970179842067,0.3691115311085101
97,6.355,6.11,-0.8,0.39457652366788015,0.817727117879333,0.17409665136392416,0.6249220356659303,0.15869813585718184,0.3702225145957712
98,6.416,6.17,-0.96,0.3949220760794351,0.8173477659477144,0.1745748604322971,0.624622600718816,0.15835084823670872,0.3712878968147516
99,6.539,6.22,-0.87,0.39533042389673484,0.8168791958685986,0.17509968145974447,0.624255008032721,0.15802751343151272,0.3723086625338278
100,6.559,6.28,-0.81,0.39579877166471017,0.8163252208167243,0.17566888549586793,0.6238221209620136,0.15772779549232832,0.3732858061133865
101,6.58,6.33,-0.96,0.39632434641248065,0.8156896307408052,0.17628026556798562,0.6233267841848321,0.15745134842003253,0.37422033057837306
102,6.62,6.39,-1.01,0.3969043993750329,0.8149761897036724,0.17693163795667244,0.6227718218067935,0.15719781656628168,0.3751132466979834
103,6.684,6.44,-0.85,0.3975362076594112,0.814188633293495,0.177620843423737,0.6221600355202459,0.15696683504047929,0.3759655720731929
104,6.746,6.5,-0.94,0.3982170758549263,0.8133306661077898,0.17834574839273287,0.6214942028199482,0.1567580301226425,0.37677833023278984
105,6.786,6.55,-1.05,0.39894433758699743,0.8124059593117954,0.17910424608216774,0.6207770752759098,0.15657101968166484,0.3775525497385417
106,6.889,6.61,-0.91,0.39971535701435074,0.8114181482725437,0.1798942575915682,0.6200113768639545,0.15640541359841892,0.37828926330006934
107,6.91,6.66,-0.88,0.4005275302694097,0.8103708302696702,0.18071373294054258,0.6191998023543908,0.1562608141931116,0.37898950689992267
108,6.952,6.72,-1.02,0.40137828684181726,0.8092675622837192,0.18156065206098643,0.6183450157590112,0.15613681665627502,0.3796543189293403
109,7.014,6.77,-0.92,0.402265090905079,0.8081118588625128,0.18243302574258205,0.6174496488365602,0.15603300948275797,0.3802847393352457
110,7.096,6.83,-0.82,0.40318544258635125,0.8069071900660784,0.18332889653178477,0.6165162996568112,0.1559489749080909,0.3808818087791312
111,7.136,6.88,-0.93,0.40413687917944724,0.8056569794906311,0.18424633958458206,0.6155475312234175,0.15588428934661602,0.38144656780859404
112,7.176,6.94,-0.98,0.40511697630116134,0.8043646023721868,0.18518346347338666,0.6145458701557551,0.15583852383080052,0.3819800560423755
113,7.258,6.99,-0.81,0.4061233489910443,0.8030333837704628,0.18613841094846378,0.6135138054300444,0.15581124445119063,0.3824833113697559
114,7.278,7.05,-0.9,0.407153652754861,0.8016665968336976,0.18710935965433265,0.6124537871800146,0.15580201279650202,0.3829573691650558
115,7.341,7.1,-1.03,0.40820558455207545,0.8002674611448513,0.18809452280161076,0.6113682255572479,0.15581038639335548,0.3834032615178429
116,7.403,7.16,-0.92,0.4092768837278073,0.7988391411493858,0.18909214979475802,0.6102594896511793,0.1558359191451675,0.3838220164792638
117,7.445,7.21,-0.88,0.41036533288980104,0.797384744664518,0.1901005268161723,0.6091299064685644,0.1558781617696976,0.3842146573247515
118,7.506,7.27,-1.04,0.4114687587310067,0.7959073214695545,0.19111797736712066,0.6079817599720473,0.15593666223471567,0.3845822018332806
119,7.566,7.32,-0.97,0.4125850327983555,0.7944098619767981,0.1921428627660094,0.6068172901773669,0.1560109661912006,0.3849256615833655
120,7.627,7.38,-0.84,0.4137120722082578,0.7928952959825207,0.19317358260452028,0.6056386923087212,0.15610061740344686,0.3852460412660715
121,7.709,7.43,-0.93,0.41484784030930716,0.7913664914975777,0.19420857516218756,0.6044481160118239,0.15620515817543237,0.3855443380154131
122,7.729,7.49,-0.97,0.41599034729262485,0.78982625365737,0.1952463177800081,0.6032476646242316,0.1563241297727923,0.3858215407566292
123,7.771,7.54,-0.79,0.4171376507502373,0.7882773237109595,0.1962853271936513,0.6020393945025992,0.15645707283976915,0.38607862957284067
124,7.832,7.6,-0.83,0.4182878561819007,0.786722378089124,0.1973241598268234,0.6008253144065008,0.15660352781056228,0.386316575090511
125,7.894,7.65,-0.96,0.4194391174508621,0.7851640275509876,0.19836141204534796,0.599607384938357,0.15676303531455033,0.3865363378840056
126,7.995,7.71,-0.84,0.4205896371891366,0.7836048164086229,0.19939572037253736,0.5983875180388659,0.1569351365749162,0.3867388678994195
127,8.016,7.76,-0.79,0.4217376671530088,0.7820472218287842,0.20042576166649426,0.5971675765371804,0.15711937380026436,0.38692510389775064
128,8.057,7.82,-0.94,0.4228815085296355,0.7804936532106945,0.20145025326012303,0.5959493737549139,0.15731529056885704,0.3870959729174855
129,8.119,7.87,-0.93,0.4240195121957559,0.7789464516387005,0.20246795306477128,0.5947346731629531,0.15752243220510959,0.38725238975674814
130,8.181,7.93,-0.81,0.4251500789295991,0.7774078894086055,0.2034776596385399,0.5935251880900491,0.15774034614799587,0.38739525647524725
131,8.243,7.98,-0.93,0.42627165957711544,0.7758801696265527,0.2044782122203902,0.5923225814821509,0.157968582311007,0.38752546191634013
132,8.262,8.04,-1.01,0.4273827551736002,0.7743654258794411,0.20546849073118295,0.5911284657114969,0.15820669343327257,0.38764388124959437
133,8.366,8.09,-0.83,0.4284819170216511,0.772865721975968,0.20644741574267358,0.5899444024345181,0.15845423542142026,0.38775137553421657
134,8.386,8.15,-0.82,0.42956774672627773,0.7713830517574024,0.20741394841531785,0.5887719024976362,0.15871076768172018,0.3878487913036193
135,8.447,8.2,-0.95,0.43063889618790346,0.7699193389770808,0.2083670904055595,0.5876124258900056,0.15897585344203502,0.38793696017127705
136,8.53,8.26,-0.82,0.4316940675539569,0.7684764372474658,0.20930588374309447,0.5864673817422233,0.15924906006310313,0.38801669845791453
137,8.551,8.31,-0.75,0.43273201312976917,0.7670561300534526,0.21022941067851572,0.5853381283700312,0.15952995933873101,0.3880888068399776
138,8.612,8.37,-0.88,0.433751535249579,0.765660130830481,0.2111367935017673,0.5842259733620008,0.15981812778453813,0.38815407001931523
139,8.653,8.42,-0.88,0.4347514861085329,0.764290083105986,0.21202719433191944,0.5831321737101918,0.1601131469149561,0.3882132564140556
140,8.734,8.48,-0.74,0.4357307675566613,0.7629475607027423,0.2128998148788946,0.5820579359827851,0.16041460350824674,0.38826711787073065
141,8.776,8.53,-0.83,0.436688330855916,0.7616340680026933,0.21375389617792404,0.5810044165376627,0.1607220898593463,0.3883163893977619
142,8.816,8.59,-0.92,0.4376231764014072,0.7603510402698429,0.21458871829760692,0.5799727217758344,0.16103520402036178,0.38836178892046663
143,8.878,8.64,-0.76,0.438534353407967,0.7590998440307425,0.21540360002244166,0.5789639084335434,0.16135355002856225,0.3884040170577325
144,8.941,8.7,-0.75,0.4394209595631322,0.7578817775110084,0.2161978985106476,0.5779789839117989,0.16167673812172817,0.3884437569204415
145,9.001,8.75,-0.91,0.4402821406475828,0.7566980711261692,0.21697100892802942,0.5770189066420036,0.16200438494073108,0.38848167393166655
146,9.103,8.81,-0.81,0.44111709012398664,0.7555498880250932,0.21772236405853987,0.5760845864863514,0.16233611371922851,0.38851841566863493
147,9.123,8.86,-0.74,0.44192504869512145,0.7544383246842762,0.21845143389213084,0.5751768851717675,0.1626715544603907,0.3885546117264301
148,9.164,8.92,-0.85,0.4427053038320889,0.7533644115513636,0.21915772519047674,0.57429661675627,0.16301034410059348,0.3885908736034133
149,9.226,8.97,-0.88,0.4434571892733986,0.7523291137364219,0.21984078103116791,0.5734445481267514,0.16335212666002222,0.3886277946083966
150,9.266,9.03,-0.72,0.4441800844956788,0.7513333317496229,0.2205001803309805,0.5726213995272837,0.1636965533801456,0.3886659497895893
151,9.328,9.08,-0.79,0.4448734141568033,0.7503779022840498,0.22113553734885777,0.571827845117054,0.16404328284803743,0.3887058958852777
152,9.369,9.14,-0.9,0.4455366475122678,0.749463599042271,0.2217465011692508,0.5710645135569663,0.16439198110753417,0.38874817129608563
153,9.473,9.19,-0.75,0.44616929780567394,0.7485911336051888,0.22233275516643902,0.5703319886238198,0.1647423217572346,0.3887932960785347
154,9.493,9.25,-0.72,0.4467709216342093,0.7477611563414642,0.22289401645044737,0.5696308098508357,0.165093986035378,0.38884177195949743
155,9.533,9.3,-0.86,0.44734111829003836,0.7469742573556364,0.22343003529520486,0.5689614731931782,0.16544666289165413,0.3888940823710988
156,9.595,9.36,-0.76,0.4478795290785211,0.7462309674729554,0.22394059454960194,0.5683244317170927,0.16580004904602055,0.38895069250567454
157,9.655,9.41,-0.66,0.4483858366141883,0.7455317592589431,0.2244255090321235,0.567720096311358,0.1661538490346432,0.3890120493904801
158,9.736,9.47,-0.77,0.44885976409543676,0.744877048071784,0.22488462490978853,0.5671488364198631,0.1665077752431241,0.38907858198194506
159,9.758,9.52,-0.83,0.44930107455890017,0.7442671931458131,0.2253178190621625,0.5666109807942502,0.16686154792722643,0.3891507012793651
160,9.842,9.58,-0.66,0.4497095701144402,0.7437024987045749,0.2257249984312143,0.5661068182656983,0.16721489522136318,0.38922880045793634
161,9.882,9.63,-0.74,0.4500850911617259,0.743183215101998,0.2261060993578068,0.5656365985349557,0.16756755313516664,0.3893132550209518
162,9.923,9.69,-0.88,0.4504275155894323,0.7427095399901505,0.22646108690563074,0.5652005329796389,0.16791926553847655,0.3894044229708521
163,9.984,9.74,-0.77,0.4507367579581298,0.7422816195118633,0.2267899541733764,0.5647987954777172,0.16826978413509533,0.38950264499866544
164,10.025,9.8,-0.74,0.45101276866799417,0.7418995495162801,0.22709272159593427,0.5644315232459871,0.16861886842565885,0.3896082446912291
165,10.087,9.85,-0.9,0.45125553311251276,0.7415633767952052,0.22736943623544228,0.564098817692244,0.16896628565994362,0.3897215287555243
166,10.189,9.91,-0.83,0.4514650708193694,0.7412731003380436,0.2276201710630058,0.5638007452798482,0.16931181077888552,0.38984278725951443
167,10.208,9.96,-0.67,0.4516414345796714,0.7410286726031841,0.22784502423192896,0.5635373384034515,0.16965522634655494,0.3899722938889756
168,10.269,10.02,-0.76,0.4517847095666634,0.7408300008038181,0.2280441183433332,0.5633085962747386,0.16999632247231836,0.3901103062199297
169,10.332,10.07,-0.82,0.45189501244498614,0.7406769482064155,0.22821759970503977,0.5631144858171415,0.17033489672342647,0.39025706600638166
170,10.373,10.13,-0.63,0.4519724904714074,0.740569335440319,0.22836563758451003,0.5629549425686087,0.17067075402832693,0.3904127994830143
171,10.436,10.18,-0.66,0.45201732058785277,0.7405069418170377,0.22848842345654366,0.5628298715915648,0.17100370657108566,0.39057771768233607
172,10.477,10.24,-0.8,0.45202970850752433,0.7404895066577866,0.22858617024635502,0.5627391483891593,0.1713335736773796,0.390752016765582
173,10.56,10.29,-0.69,0.45200988779489687,0.7405167306277144,0.22865911156860377,0.5626826198268343,0.17166018169259925,0.39093587836651256
174,10.581,10.35,-0.65,0.45195811894044224,0.7405882770751369,0.2287075009629884,0.5626601050581778,0.17198336385267343,0.39112946994712794
175,10.644,10.4,-0.82,0.45187468843104683,0.7407037733739783,0.22873161112713394,0.5626713964539389,0.17230296014827495,0.39133294516430367
176,10.707,10.46,-0.85,0.45175990781719294,0.7408628122676016,0.22873173314763579,0.5627162605330842,0.1726188171830739,0.3915464442464291
177,10.748,10.51,-0.73,0.45161411277806834,0.7410649532122598,0.22870817573022897,0.5627944388948137,0.1729307880266976,0.3917700943792411
178,10.81,10.57,-0.84,0.45143766218583103,0.7413097237185181,0.22866126443014329,0.5629056491505154,0.17323873206301132,0.39200401010014796
179,10.871,10.62,-0.93,0.4512309371702139,0.7415966206891569,0.22859134088371255,0.5630495858546758,0.1735425148342555,0.39224829370043923
180,10.933,10.68,-0.76,0.45099434018451695,0.7419251117522649,0.22849876204220199,0.5632259214338355,0.17384200788149398,0.39250303563479766
181,11.015,10.73,-0.75,0.4507282940738779,0.7422946365883261,0.2283838994086728,0.5634343071127,0.1741370885817679,0.39276831493746356
182,11.035,10.79,-0.89,0.4504332411465815,0.7427046082501402,0.22824713827856583,0.5636743738365032,0.17442763998230343,0.39304419964434156
183,11.077,10.84,-0.76,0.45010964224903505,0.7431544144744451,0.22808887698455166,0.5639457331887335,0.17471355063210703,0.3933307472202967
184,11.139,10.9,-0.68,0.44975797584496774,0.7436434189841783,0.22790952614612506,0.564247978303386,0.17499471441131056,0.3936280049908699
185,11.201,10.95,-0.82,0.44937873709941833,0.7441709627803843,0.22770950792443076,0.5645806847709722,0.17527103035866576,0.39393601057767597
186,11.243,11.01,-0.85,0.4489724369681234,0.7447363654228807,0.22748925528285047,0.5649434115376265,0.17554240249763156,0.3942547923368411
187,11.305,11.06,-0.7,0.44853960129297993,0.7453389262989071,0.22724921125393435,0.56533570179677,0.17580873966154362,0.39458436979991446
188,11.367,11.12,-0.8,0.44808076990433093,0.7459779258790374,0.22698982821334132,0.5657570838728528,0.17606995531838493,0.39492475411673056
189,11.43,11.17,-0.91,0.44759649573083554,0.7466526269596213,0.22671156716149693,0.5662070720966591,0.17632596739567208,0.39527594849972975
190,11.472,11.23,-0.79,0.4470873439176398,0.74736227589096,0.22641489701364126,0.5666851676716017,0.1765766981059524,0.39563794866921664
191,11.535,11.28,-0.79,0.44655389095350273,0.7481061037903107,0.22610029389887767,0.5671908595303554,0.17682207377338588,0.39601074329896685
192,11.576,11.34,-0.95,0.4459967238074557,0.7488833277387166,0.2257682404687692,0.5677236251810984,0.1770620246618394,0.3963943144615702
193,11.677,11.39,-0.87,0.44541643907545864,0.7496931519606681,0.22541922521594618,0.5682829315426358,0.17729648480486726,0.3967886380729392
194,11.697,11.45,-0.78,0.44481364213740354,0.7505347689857031,0.2250537418031274,0.5688682357677628,0.17752539183790592,0.3971936843354734
195,11.739,11.5,-0.88,0.4441889463247211,0.7514073607912358,0.2246722884029472,0.5694789860543269,0.17774868683296371,0.3976094181794665
196,11.802,11.56,-0.91,0.44354297209874866,0.7523100999261645,0.2242753670489761,0.5701146224435736,0.1779663141360401,0.3980357997024208
197,11.864,11.61,-0.74,0.4428763462399461,0.753242150615064,0.2238634829983161,0.5707745776054777,0.17817822120749333,0.39847278460595187
198,11.905,11.67,-0.82,0.442189701048062,0.7542026698428926,0.22343714410617369,0.5714582776108037,0.17838435846558126,0.3989203246298841
199,11.964,11.72,-0.94,0.4414836735534207,0.7551908084201004,0.2229968602128288,0.5721651426895799,0.17858467913340786,0.39937836798302173
200,12.047,11.78,-0.8,0.4407589047395649,0.756205712027871,0.22254314254338517,0.5728945879755972,0.1787791390895219,0.3998468597699473
201,12.067,11.83,-0.78,0.4400160387775667,0.7572465222430221,0.22207650312066374,0.5736460242364477,0.17896769672242813,0.4003257424130913
202,12.129,11.89,-0.93,0.4392557222723812,0.7583123775418888,0.22159745419160123,0.5744188585885357,0.17915031278926027,0.40081495606931294
203,12.19,11.94,-0.85,0.4384786035216154,0.7594024142824525,0.22110650766749937,0.5752124951965072,0.1793269502788412,0.40131443904034014
204,12.291,12.0,-0.75,0.43768533178703545,0.7605157676640449,0.22060417457845663,0.5760263359566471,0.17949757427934515,0.4018241281765521
205,12.312,12.05,-0.87,0.43687655657908664,0.761651572664134,0.22009096454232946,0.5768597811639221,0.17966215185076473,0.4023439592737386
206,12.375,12.11,-0.95,0.436052926954609,0.7628089649519342,0.21956738524856356,0.5777122301624817,0.1798206519023715,0.40287386746258813
207,12.416,12.16,-0.79,0.43521509082786497,0.763987081778826,0.21903394195718842,0.5785830819795694,0.179973045075351,0.40341378759068963
208,12.477,12.22,-0.86,0.43436369429499216,0.7651850628456447,0.2184911370132279,0.5794717359428373,0.18011930363078327,0.403963654596769
209,12.538,12.27,-0.98,0.4334993809720608,0.7664020511468163,0.21793946937674116,0.580377592280987,0.1802594013430955,0.4045234038767913
210,12.559,12.33,-0.85,0.4326227913470137,0.7676371937911126,0.2173794341686529,0.5813000527075528,0.18039331339906853,0.4050929716414625
211,12.621,12.38,-0.8,0.4317345621459371,0.7688896427985581,0.21681152223251188,0.582238520987524,0.18052101630243678,0.4056722952645628
212,12.683,12.44,-0.95,0.43083532571430116,0.7701585558728199,0.21623621971235626,0.5831924034863931,0.1806424877840852,0.40626131362152607
213,12.765,12.49,-0.9,0.42992570941392694,0.7714430971483571,0.21565400764690779,0.5841611097011946,0.18075770671781444,0.40685996741774805
214,12.785,12.55,-0.75,0.4290063350364591,0.7727424379117102,0.21506536158036269,0.5851440527731673,0.18086665304163732,0.4074681995062056
215,12.848,12.6,-0.84,0.42807781823408697,0.7740557572964898,0.21447075119010658,0.5861406499817652,0.18096930768456906,0.40808595519408863
216,12.909,12.66,-0.9,0.4271407679681229,0.7753822429518981,0.21387063993167435,0.5871503232198619,0.181065652498873,0.4087131825382434
217,12.951,12.71,-0.71,0.42619578597585617,0.7767210916848785,0.21326548470117837,0.5881724994501325,0.18115567019775047,0.40934983262922003
218,13.033,12.77,-0.75,0.42524346625596393,0.7780715100761302,0.21265573551530337,0.5892066111426729,0.1812393442985103,0.4099958598636088
219,13.074,12.82,-0.89,0.4242843945727193,0.7794327150701805,0.2120418352088564,0.5902520966939035,0.18131665907129035,0.4106512222042161
220,13.136,12.88,-0.78,0.4233191479792791,0.7808039345395705,0.2114242191497624,0.5913084008267653,0.18138759949344482,0.41131588142750697
221,13.157,12.93,-0.74,0.4223482943604489,0.7821844078230219,0.2108033149713652,0.5923749749721854,0.1814521512097481,0.4119898033576477
222,13.218,12.99,-0.92,0.4213723919954754,0.7835733862372951,0.21017954232195185,0.5934512776317331,0.18151030049857694,0.4126729580864748
223,13.281,13.04,-0.93,0.4203919891415191,0.7849701335623961,0.20955331263150231,0.594536774721372,0.18156203424421008,0.41336532017879934
224,13.342,13.1,-0.8,0.41940762363851375,0.786373926499835,0.20892502889574738,0.5956309398962479,0.18160733991534433,0.41406686886256533
225,13.402,13.15,-0.88,0.41841982253611737,0.7877840551037624,0.20829508547769243,0.5967332548564788,0.18164620554985875,0.414777588203499
226,13.463,13.21,-0.97,0.4174291017433625,0.7891998231849661,0.20766386792676078,0.5978432096339332,0.1816786197457698,0.41549746726398934
227,13.504,13.26,-0.78,0.41643596570143865,0.7906205486878987,0.2070317528155986,0.598960302860043,0.1817045716582479,0.4162265002459839
228,13.544,13.32,-0.77,0.41544090707987263,0.7920455640409857,0.20639910759443816,0.6000840420147152,0.1817240510025278,0.4169646866176553
229,13.607,13.37,-0.91,0.4144444064962349,0.7934742164804771,0.2057662904627779,0.6012139436564066,0.18173704806252855,0.4177120312235588
230,13.668,13.43,-0.78,0.41344693225936974,0.7949058683480956,0.205133650258016,0.6023495336334359,0.18174355370501408,0.41846854437799424
231,13.729,13.48,-0.71,0.4124489401360742,0.7963398973627718,0.20450152636061603,0.6034903472766645,0.1817435593991748,0.4192342419412728
232,13.77,13.54,-0.86,0.41145087314114953,0.7977756968667706,0.20387024861541614,0.6046359295737245,0.18173705724156206,0.42000914537863704
233,13.873,13.59,-0.86,0.4104531613507947,0.7992126760465753,0.20324013726875842,0.6057858353250618,0.18172403998634382,0.42079328180168174
234,13.894,13.65,-0.73,0.4094562217393647,0.8006502601289749,0.20261150292119964,0.6069396292821686,0.18170450108087985,0.42158668399222243
235,13.955,13.7,-0.83,0.40846045803959163,0.8020878905528445,0.20198464649566475,0.6080968862684265,0.18167843470662326,0.42238939040863377
236,13.996,13.76,-0.94,0.40746626062637703,0.8035250251171163,0.20135985922094787,0.6092571912829705,0.1816458358253356,0.42320144517472913
237,14.059,13.81,-0.8,0.4064740064242013,0.8049611381054051,0.2007374226304027,0.6104201395879553,0.18160670023057507,0.424022898051245
238,14.12,13.87,-0.8,0.40548405883809374,0.8063957203876718,0.2001176085755574,0.6115853367795606,0.18156102460438495,0.4248538043899369
239,14.18,13.92,-0.95,0.404496767707978,0.8078282794992198,0.19950067925426854,0.61275239884304,0.18150880657905788,0.42569422507026666
240,14.242,13.98,-0.84,0.4035124692860445,0.8092583396973242,0.19888688725289203,0.6139209521921554,0.18145004480379573,0.42654422641868117
241,14.262,14.03,-0.75,0.4025314862366603,0.8106854419958691,0.19827647560183503,0.6150906336934753,0.18138473901605068,0.427403880110521
242,14.323,14.09,-0.88,0.40155412765822895,0.8121091441785228,0.19766967784381873,0.6162610906761371,0.18131289011730967,0.42827326305467145
243,14.384,14.14,-0.9,0.4005806891263457,0.8135290207911624,0.1970667181141888,0.6174319809277993,0.1812345002530711,0.4291524572611726
244,14.447,14.2,-0.74,0.39961145275755827,0.8149446631144505,0.19646781123265503,0.6186029726776044,0.18114957289677294,0.4300415496920815
245,14.509,14.25,-0.81,0.3986466872930897,0.8163556791175312,0.1958731628059162,0.619773744566973,0.18105811293744373,0.4309406320958997
246,14.55,14.31,-0.93,0.39768664820195093,0.8177616933937487,0.19528296934067904,0.6209439856089509,0.18096012677084516,0.4318498008258791
247,14.612,14.36,-0.79,0.3967315778029146,0.819162347079134,0.19469741836655458,0.6221133951367126,0.1808556223938746,0.43276915664248394
248,14.673,14.42,-0.77,0.39578170540484847,0.8205572977542024,0.1941166885682748,0.6232816827416862,0.18074460950200444,0.43369880450023424
249,14.735,14.47,-0.92,0.3948372474648923,0.8219462193294365,0.19354094992663315,0.6244485682016385,0.18062709958952133,0.4346388533191783
250,14.757,14.53,-0.84,0.3938984077639065,0.8233288019147675,0.19297036386750965,0.6256137813990408,0.1805031060523121,0.43558941574135746
251,14.818,14.58,-0.75,0.39296537759855654,0.8247047516734153,0.19240508341832768,0.6267770622300868,0.18037264429292943,0.43655060787276284
252,14.901,14.64,-0.88,0.39203833598935617,0.8260737906605836,0.1918452533713305,0.6279381605048239,0.18023573182766284,0.4375225490114462
253,14.922,14.69,-0.93,0.3911174499039069,0.8274356566477344,0.19129101045310115,0.6290968358389654,0.18009238839531688,0.43850536136258733
254,14.984,14.75,-0.77,0.3902028744944926,0.8287901029334062,0.19074248349976097,0.6302528575380572,0.17994263606739194,0.43949916974138337
255,15.046,14.8,-0.84,0.38929475334917035,0.8301368981416273,0.19019979363730863,0.6314060044746798,0.1797864993593433,0.4405041012645814
256,15.108,14.86,-0.95,0.38839321875553634,0.8314758260088864,0.18966305446658285,0.6325560649592596,0.179624005342558,0.44152028503139257
257,15.15,14.91,-0.81,0.3874983919763694,0.8328066851604126,0.18913237225230592,0.6337028366049111,0.17945518375666214,0.442547851794411
258,15.213,14.97,-0.76,0.3866103835363836,0.8341292888762845,0.18860784611564255,0.6348461261865824,0.1792800671217535,0.4435869336210548
259,15.275,15.02,-0.92,0.3857292935193442,0.8354434648476748,0.18808956822971054,0.6359857494946469,0.1790986908501442,0.4446376635460217
260,15.356,15.08,-0.82,0.3848552118747856,0.8367490549234591,0.18757762401748573,0.6371215311830464,0.1789110933571856,0.4457001752153224
261,15.377,15.13,-0.7,0.38398821873354455,0.8380459148474456,0.1870720923515725,0.6382533046121505,0.17871731617076575,0.44677460252257056
262,15.418,15.19,-0.8,0.38312838473128874,0.8393339139866315,0.1865730457553852,0.6393809116865713,0.17851740403909278,0.44786107923835555
263,15.479,15.24,-0.85,0.38227577133915547,0.8406129350511214,0.18608055060533737,0.6405042026882785,0.17831140503640944,0.44895973863365835
264,15.54,15.3,-0.68,0.38143043120053616,0.8418828738066134,0.1855946673336506,0.6416230361054582,0.17809937066633558,0.4500707130983154
265,15.58,15.35,-0.74,0.38059240847305786,0.8431436387804423,0.18511545063142415,0.6427372784575683,0.17788135596259075,0.4511941337554625
266,15.747,15.41,-0.87,0.3797617391748899,0.8443951509620714,0.18464294965164307,0.6438468041169433,0.17765741958688186,0.4523301300727829
267,15.767,15.46,-0.75,0.3789384515346089,0.8456373434986922,0.18417720821181954,0.6449514951271783,0.1774276239237604,0.453478829471261
268,15.788,15.52,-0.72,0.37812256634398805,0.8468701613863281,0.18371826499600985,0.6460512410184047,0.17719203517227144,0.4546403569320213
269,15.829,15.57,-0.9,0.37731409731321175,0.848093561156615,0.18326615375604285,0.6471459386194516,0.1769507234342115,0.45581483460177913
270,15.87,15.63,-0.85,0.3765130514281056,0.849307510559346,0.18282090351187036,0.6482354918668745,0.17670376279879157,0.45700238139746396
271,15.911,15.68,-0.71,0.3757194293090047,0.8505119882409011,0.18238253875099994,0.649319811610897,0.1764512314234771,0.45820311261064606
272,15.973,15.74,-0.8,0.3749332255708939,0.8517069834188077,0.18195107962700563,0.650398815418409,0.1761932116107402,0.459417139512505
273,16.097,15.79,-0.85,0.37415442918438213,0.8528924955528485,0.18152654215708422,0.6514724273732768,0.175929789880424,0.4606445689601793
274,16.118,15.85,-0.66,0.3733830238369458,0.8540685340133324,0.18110893841851486,0.652540577874349,0.1756610570374194,0.4618855030053483
275,16.139,15.9,-0.69,0.37261898829377965,0.8552351177471991,0.1806982767437594,0.6536032034315991,0.17538710823439518,0.46314003850579843
276,16.18,15.96,-0.83,0.37186229675757004,0.8563922749425393,0.18029456191385007,0.65466024646081,0.1751080430293727,0.464408266740591
277,16.242,16.01,-0.7,0.3711129192265461,0.8575400426919361,0.1798977953496497,0.6557116550771597,0.1748239654380012,0.46569027302932214
278,16.304,16.07,-0.64,0.37037082185028214,0.8586784666548335,0.1795079753005958,0.6567573828879915,0.17453498398045914,0.466986136355871
279,16.367,16.12,-0.8,0.3696359672828981,0.8598076007189515,0.17912509703067056,0.6577973887849701,0.17424121172295515,0.4682959289970326
280,16.47,16.18,-0.78,0.36890831503344523,0.8609275066607068,0.17874915300150046,0.6588316367357795,0.17394276631382827,0.4696197161565227
281,16.49,16.23,-0.65,0.3681878218133508,0.862038253804652,0.17838013305264164,0.6598600955755384,0.17363977001427436,0.4709575556049419
282,16.53,16.29,-0.76,0.3674744418808339,0.8631399186820832,0.17801802457924865,0.660882738798139,0.1733323497237397,0.4723094973263786
283,16.572,16.34,-0.86,0.3667681273821422,0.8642325846891632,0.17766281270738074,0.6618995443477406,0.17302063700001732,0.47367558317239805
284,16.634,16.4,-0.7,0.3660688286893142,0.8653163417450968,0.17731448046714737,0.6629104944106978,0.17270476807407767,0.4750558465241581
285,16.696,16.45,-0.7,0.36537649473404227,0.866391285950968,0.17697300896379606,0.6639155752081952,0.17238488385966033,0.47645031196329246
286,16.738,16.51,-0.85,0.3646910733371408,0.8674575192497711,0.1766383775467478,0.6649147767898039,0.17206112995763628,0.4778589949520826
287,16.819,16.56,-0.72,0.3640125115331038,0.8685151490880093,0.17631056397648523,0.6659080928281261,0.17173365665514248,0.4792819015233184
288,16.88,16.62,-0.65,0.3633407558893112,0.869564288079059,0.17598954458916263,0.6668955204146635,0.17140261891950817,0.4807190279801325
289,16.9,16.67,-0.8,0.3626757528195628,0.8706050536683407,0.17567529445886007,0.6678770598570147,0.1710681763870192,0.48217036060603985
290,16.985,16.73,-0.81,0.36201744889174053,0.8716375678002957,0.17536778755749868,0.6688527144775096,0.17073049334659282,0.48363587538543346
291,17.027,16.78,-0.67,0.3613657911294894,0.8726619565872245,0.17506699691255145,0.669822490413427,0.1703897387184704,0.4851155377348173
292,17.069,16.84,-0.76,0.36072072730787563,0.8736783499801554,0.17477289476280222,0.670786396418977,0.17004608602805718,0.4866093022450931
293,17.132,16.89,-0.86,0.3600822062429576,0.8746868814420414,0.17448545271244234,0.6717444436692437,0.16969971337503212,0.488117112435252
294,17.192,16.95,-0.69,0.35945017807509155,0.8756876876237212,0.17420464188370466,0.6726966455663287,0.16935080339784744,0.4896389005178007
295,17.233,17.0,-0.69,0.3588245945456796,0.8766809080431243,0.1739304330681058,0.6736430175479413,0.16899954323374036,0.4911745871761708
296,17.295,17.06,-0.85,0.3582054092669643,0.877666684768156,0.1736627968762489,0.674583576898649,0.1686461244743822,0.4927240813542846
297,17.378,17.11,-0.75,0.357592577984388,0.878645162103665,0.17340170388601828,0.6755183425640268,0.1682907431173004,0.494287280058397
298,17.4,17.17,-0.7,0.3569860588309632,0.8796164862829149,0.17314712478892283,0.6764473349680156,0.16793359951324136,0.49586406817128587
299,17.482,17.22,-0.86,0.3563858125730884,0.8805808051640455,0.1728990305343436,0.677370575833873,0.16757489830966016,0.497454318278865
300,17.543,17.28,-0.89,0.35579180284724077,0.8815382679321191,0.1726573924714675,0.6782880880091835,0.16721484839052264,0.49905789050934335
301,17.564,17.33,-0.75,0.35520399638700334,0.8824890248074663,0.17242218248872299,0.6791998952954653,0.1668536628125901,0.5006746323851
302,17.625,17.39,-0.84,0.3546223632399311,0.8834332267610905,0.17219337315058225,0.680106022282909,0.16649155873832086,0.5023043786874677
303,17.686,17.44,-0.94,0.3540468769738008,0.8843710252378452,0.1719709378315983,0.681006494190708,0.16612875736545984,0.5039469513346282
304,17.747,17.5,-0.8,0.35347751487178114,0.8853025718879759,0.17175485084747114,0.6819013367133427,0.16576548385333412,0.5056021592727814
305,17.811,17.55,-0.78,0.35291425811607086,0.8862280183074331,0.17154508758285786,0.6827905758730581,0.16540196724584086,0.5072697983806743
306,17.831,17.61,-0.92,0.352357091959547,0.8871475157871651,0.17134162461558747,0.6836742378786491,0.16503844039108595,0.5089496513875339
307,17.912,17.66,-0.81,0.3518060058849387,0.8880612150715108,0.17114443983690242,0.6845523489906054,0.16467513985761895,0.5106414878044592
308,17.953,17.72,-0.73,0.351260993751002,0.8889692661258264,0.1709535125673468,0.6854249353927013,0.1643123058472245,0.5123450638693482
309,18.015,17.77,-0.88,0.35072205392517125,0.8898718179135732,0.17076882366798163,0.6862920230701857,0.16395018210425832,0.5140601225054819
310,18.076,17.83,-0.92,0.3501891894021549,0.890769018183264,0.1705903556466744,0.6871536376948183,0.1635890158215404,0.515786393293961
311,18.136,17.88,-0.78,0.34966240790797315,0.8916610132658226,0.17041809275927117,0.6880098045170971,0.16322905754284706,0.517523592460223
312,18.198,17.94,-0.88,0.34914172198903104,0.8925479478829562,0.1702520211055322,0.6888605482660073,0.16287056106204734,0.5192714228748605
313,18.218,17.99,-1.01,0.3486271490859241,0.8934299649670518,0.1700921287197579,0.6897058930565165,0.1625137833188915,0.5210295740689269
314,18.281,18.05,-0.88,0.34811871159175106,0.8943072054929292,0.16993840565601043,0.6905458623048847,0.16215898429141432,0.5227977222638484
315,18.362,18.1,-0.85,0.34761643689475646,0.8951798083215461,0.169790844067814,0.6913804786516791,0.1618064268848653,0.5245755304159795
316,18.403,18.16,-1.0,0.34712035740516933,0.8960479100555111,0.16964943828221166,0.6922097638922211,0.16145637681701722,0.5263626482758114
317,18.465,18.21,-0.89,0.3466305105661134,0.8969116449060995,0.1695141848680428,0.6930337389141185,0.16110910249964933,0.5281587124619006
318,18.507,18.27,-0.78,0.3461469388484949,0.8977711445713886,0.16938508269831476,0.6938524236415526,0.16076487491598124,0.5299633465496687
319,18.568,18.32,-0.89,0.3456696897298126,0.8986265381251682,0.16926213300659143,0.6946658369860613,0.1604239674938361,0.5317761611753115
320,18.672,18.38,-0.93,0.345198815656842,0.899477951916436,0.16914533943736218,0.6954739968036654,0.16008665597433144,0.533596754155132
321,18.693,18.43,-0.76,0.3447343739921475,0.9003255094794846,0.16903470809037346,0.6962769198583155,0.1597532182759436,0.5354247106205966
322,18.714,18.49,-0.83,0.3442764269444466,0.9011693314546632,0.16893024755894373,0.6970746217916642,0.15942393435384486,0.5372596031693165
323,18.775,18.54,-0.95,0.34382504148295884,0.9020095355197965,0.16883196896231242,0.6978671170990975,0.1590990860544443,0.5391009920320378
324,18.836,18.6,-0.82,0.3433802892359755,0.902846236332046,0.16873988597205333,0.6986544191118401,0.15877895696509411,0.5409484252555821
325,18.897,18.65,-0.8,0.34294224637398657,0.9036795454797254,0.16865401483254888,0.6994365399848331,0.1584638322589514,0.5428014389015406
326,18.959,18.71,-0.98,0.3425109934777735,0.9045095714433677,0.1685743743754884,0.7002134906899992,0.15815399853498727,0.5446595572604597
327,19.019,18.76,-0.91,0.3420866153918715,0.9053364195652799,0.168500986028291,0.7009852810145342,0.15784974365312052,0.5465222930812864
328,19.061,18.82,-0.8,0.3416692010637536,0.9061601920269078,0.16843387381629651,0.7017519195640015,0.15755135656443342,0.5483891478159173
329,19.103,18.87,-0.91,0.34125884336903095,0.9069809878335398,0.1683730643585486,0.7025134137701523,0.15725912713640294,0.5502596118787912
330,19.166,18.93,-0.97,0.340855638922889,0.9077989028061264,0.16831858685697298,0.7032697699035421,0.1569733459730494,0.55213316492155
331,19.23,18.98,-0.78,0.34045968787792374,0.9086140295802264,0.16827047307871526,0.7040209930911211,0.15669430422989905,0.5540092761227721
332,19.311,19.04,-0.84,0.3400710937085809,0.9094264576121524,0.1682287573313908,0.7047670873389591,0.1564222934236697,0.5558874044926732
333,19.332,19.09,-0.97,0.3396899629825098,0.9102362731922478,0.16819347643101662,0.7055080555601333,0.15615760523659805,0.5577669991925072
334,19.394,19.15,-0.83,0.3393164051192712,0.9110435594650055,0.1681646696623995,0.7062438996076299,0.15590053131535034,0.5596474998682468
335,19.455,19.2,-0.78,0.3389505321369916,0.9118483964554643,0.1681423787317946,0.7069746203119565,0.1556513630644911,0.5615283369979869
336,19.496,19.26,-0.95,0.33859245838770824,0.9126508611011107,0.16812664771172176,0.7077002175230245,0.1554103914345023,0.5634089322524839
337,19.559,19.31,-0.9,0.3382423002822312,0.913451027288444,0.1681175229778935,0.7084206901558081,0.15517790670435191,0.5652886988683249
338,19.621,19.37,-0.77,0.33790017600537336,0.914248965893432,0.16811505313827765,0.7091360362393404,0.1549541982586242,0.5671670420333365
339,19.725,19.42,-0.87,0.3375662052223878,0.9150447448252441,0.16811928895440617,0.7098462529686619,0.15473955435923467,0.5690433592839783
340,19.767,19.48,-0.95,0.33724050877735906,0.9158384290728954,0.1681302832550781,0.7105513367594347,0.15453426191175257,0.5709170409145872
341,19.787,19.53,-0.79,0.3369232083841459,0.9166300807546807,0.16814809084254212,0.7112512833050504,0.15433860622636872,0.5727874703983531
342,19.828,19.59,-0.85,0.33661442631036514,0.9174197591703931,0.1681727683911547,0.7119460876361211,0.1541528707735711,0.574654024819807
343,19.89,19.64,-0.99,0.33631428505486943,0.9182075208562364,0.16820437433842725,0.7126357441821846,0.15397733693459764,0.5765160753184475
344,19.951,19.7,-0.85,0.33602290701920257,0.9189934196421481,0.16824296876831413,0.7133202468353785,0.15381228374673347,0.5783729875429833
345,19.993,19.75,-0.79,0.3357404141736239,0.9197775067110207,0.16828861328660596,0.7139995890157238,0.1536579876435162,0.5802241221155373
346,20.137,19.81,-0.95,0.3354669277184505,0.9205598306591024,0.16834137088839488,0.7146737637375592,0.15351472218990042,0.5820688351051245
347,20.158,19.86,-0.91,0.33520256774158413,0.9213404375568097,0.16840130581768983,0.7153427636766418,0.15338275781242677,0.5839064785097751
348,20.178,19.92,-0.77,0.3349474528731389,0.9221193710092761,0.1684684834193592,0.7160065812375027,0.15326236152446063,0.5857364007467667
349,20.199,19.97,-0.86,0.33470169993808757,0.9228966722161477,0.1685429699836579,0.7166652086207326,0.15315379664659012,0.5875579471505364
350,20.26,20.03,-0.92,0.33446542360777015,0.9236723800303727,0.16862483258361174,0.7173186378899615,0.15305732252228757,0.5893704604779457
351,20.322,20.08,-0.74,0.3342387360509689,0.9244465310159408,0.1687141389054554,0.7179668610384025,0.15297319422897124,0.5911732814205776
352,20.404,20.14,-0.75,0.3340217465851525,0.9252191595046109,0.16881095707223212,0.7186098700548491,0.15290166228465207,0.5929657491236555
353,20.507,20.19,-0.89,0.3338145613284369,0.925990297651613,0.16891535546059605,0.7192476569889847,0.15284297235040148,0.5947472017110426
354,20.529,20.25,-0.79,0.33361728285280157,0.9267599754901729,0.16902740251080728,0.7198802140158103,0.1527973649289386,0.596516976815647
355,20.549,20.3,-0.74,0.3334300098391848,0.9275282209845324,0.1691471665299258,0.7205075334989623,0.15276507505970915,0.5982744121144437
356,20.591,20.36,-0.92,0.33325283673524325,0.9282950600809389,0.16927471548830658,0.7211296080526391,0.15274633201087726,0.6000188458672889
357,20.652,20.41,-0.94,0.33308585341672564,0.929060516755937,0.1694101168096083,0.7217464306018612,0.15274135896866986,0.6017496174587592
358,20.714,20.47,-0.81,0.33292914485351527,0.9298246130613128,0.16955343715463178,0.7223579944408427,0.15275037272450445,0.603466067942329
359,20.755,20.52,-0.9,0.33278279078141876,0.9305873691651411,0.1697047421994072,0.7229642932892819,0.15277358336029517,0.6051675405862885
360,20.859,20.58,-0.97,0.33264686538066496,0.9313488033886235,0.1698640964079892,0.7235653213463875,0.15281119393226464,0.606853381420869
361,20.879,20.63,-0.79,0.33252143696186226,0.9321089322386451,0.1700315628003642,0.7241610733424585,0.1528634001535376,0.6085229397860581
362,20.921,20.69,-0.77,0.33240656765997195,0.9328677704361017,0.17020720271578763,0.7247515445878151,0.15293039007577788,0.6101755688795083
363,20.982,20.74,-0.9,0.3323023131367233,0.9336253309400353,0.17039107557179775,0.7253367310188091,0.15301234377013762,0.6118106263038566
364,21.043,20.8,-0.78,0.33220872229181014,0.9343816249675434,0.1705832386190931,0.725916629240626,0.15310943300783847,0.6134274746126851
365,21.105,20.85,-0.71,0.33212583698318554,0.9351366620093576,0.17078374669247948,0.7264912365665891,0.1532218209407901,0.6150254818542695
366,21.146,20.91,-0.87,0.3320536917568154,0.9358904498409394,0.17099265195820443,0.7270605510536747,0.15334966178273615,0.6166040221122338
367,21.249,20.96,-0.9,0.3319923135863089,0.936642994528959,0.17121000365813716,0.7276245715339749,0.15349310049148862,0.6181624760422689
368,21.269,21.02,-0.76,0.33194172162290836,0.9373943004331201,0.17143584785138827,0.728183297641894,0.1536522724528614,0.6197002314041388
369,21.31,21.07,-0.86,0.3319019269563987,0.9381443702033501,0.1716702271541028,0.7287367298368922,0.15382730316693197,0.6212166835882617
370,21.371,21.13,-0.98,0.3318729323875321,0.9388932047724184,0.1719131804782267,0.7292848694215687,0.1540183079372325,0.6227112361362419
371,21.432,21.18,-0.83,0.33185473221252954,0.9396408033440394,0.17216474277000535,0.7298277185548823,0.15422539156343484,0.6241833012547314
372,21.494,21.24,-0.83,0.3318473120201524,0.9403871633764599,0.17242494474887698,0.7303652802602775,0.15444864803806252,0.6256323003219584
373,21.535,21.29,-0.98,0.33185064850173707,0.9411322805614826,0.17269381264732253,0.7308975584284553,0.1546881602477227,0.6270576643862006
374,21.597,21.35,-0.87,0.3318647092744265,0.941876148798901,0.17297136795211743,0.7314245578145624,0.1549439996793186,0.62845883465546
375,21.659,21.4,-0.79,0.33188945271768905,0.942618760166426,0.1732576271473581,0.7319462840296733,0.1552162261316997,0.6298352629775786
376,21.72,21.46,-0.93,0.33192482782311755,0.9433601048853275,0.1735526014596388,0.7324627435265579,0.15550488743320945,0.6311864123100571
377,21.781,21.51,-0.96,0.33197077405744296,0.9441001712821856,0.17385629660579063,0.7329739435798582,0.15581001916560044,0.6325117571789202
378,21.801,21.57,-0.8,0.33202722123868134,0.9448389457473172,0.17416871254364655,0.7334798922609195,0.15613164439480642,0.6338107841260358
379,21.864,21.62,-0.9,0.3320940894253707,0.945576412690531,0.17448984322638678,0.7339805984075559,0.15646977340907062,0.6350829921443408
380,21.967,21.68,-1.01,0.3321712888189024,0.9463125544948324,0.17481967636107865,0.7344760715889634,0.15682440346491558,0.6363278931004637
381,21.988,21.73,-0.85,0.33225871967895093,0.9470473514685969,0.1751581931720106,0.7349663220659005,0.1571955185414227,0.6375450121442153
382,22.029,21.79,-0.84,0.33235627225200903,0.947780781796558,0.17550536816937262,0.7354513607461676,0.15758308910328023,0.6387338881043639
383,22.069,21.84,-1.0,0.332463826713003,0.9485128214897907,0.17586116892377995,0.7359311991353368,0.15798707187304,0.6398940738700682
384,22.131,21.9,-0.9,0.33258125311988496,0.949243444334819,0.17622555584706054,0.7364058492827122,0.15840740961300992,0.6410251367573497
385,22.193,21.95,-0.83,0.3327084113810059,0.9499726218420269,0.17659848197967568,0.736875323722624,0.15884403091721702,0.6421266588599914
386,22.256,22.01,-0.98,0.332845151235007,0.9507003231936698,0.17697989278515056,0.7373396354112943,0.15929685001388041,0.6431982373842902
387,22.336,22.06,-1.02,0.3329913122429032,0.9514265151919569,0.17736972595190384,0.7377987976596723,0.15976576657882266,0.6442394849671619
388,22.377,22.12,-0.86,0.33314672379200805,0.9521511622078395,0.17776791120286908,0.7382528240627665,0.16025066556023582,0.6452500299771504
389,22.397,22.17,-0.95,0.33331120511140333,0.9528742261311752,0.17817437011332227,0.7387017284260295,0.16075141701518603,0.6462295167979055
390,22.459,22.23,-1.07,0.33348456529872544,0.9535956663228413,0.17858901593730792,0.7391455246892806,0.16126787595818845,0.6471776060937037
391,22.522,22.28,-0.93,0.33366660335809734,0.9543154395691822,0.17901175344294037,0.7395842268485671,0.16179988222213915,0.6480939750565582
392,22.583,22.34,-0.9,0.3338571082490612,0.9550335000389503,0.1794424787567072,0.7400178488762932,0.16234726033185778,0.6489783176344307
393,22.624,22.39,-1.05,0.33405585894638135,0.9557497992426817,0.17988107921677873,0.7404464046398711,0.16290981939045418,0.6498303447401009
394,22.726,22.45,-0.95,0.33426262451054506,0.9564642859943471,0.18032743323523803,0.7408699078191494,0.16348735297869194,0.6506497844403866
395,22.747,22.5,-0.86,0.3344771641687519,0.9571769063751137,0.1807814101691172,0.7412883718229146,0.16407963906750697,0.6514363821255679
396,22.788,22.56,-0.98,0.33469922740614244,0.9578876036991711,0.18124287020016805,0.7417018097048343,0.16468643994383653,0.6521899006590379
397,22.85,22.61,-1.02,0.33492855406695304,0.9585963184817764,0.18171166422334015,0.742110234079307,0.16530750214991363,0.6529101205073436
398,22.912,22.67,-0.87,0.3351648744652267,0.9593029884099035,0.18218763374397173,0.7425136570377878,0.1659425564361957,0.6535968398508478
399,22.974,22.72,-0.97,0.3354079095047223,0.9600075483159829,0.18267061078374927,0.7429120900661759,0.16659131772809804,0.6542498746752208
400,23.095,22.78,-1.08,0.33565737080770747,0.9607099301551347,0.18316041779551853,0.7433055439637524,0.1672534851066802,0.6548690588438905
401,23.135,22.83,-0.94,0.3359129608523414,0.9614100629861322,0.183656867586989,0.7436940287640487,0.16792874180339631,0.6554542441514731
402,23.156,22.89,-0.9,0.33617437311835685,0.9621078729561078,0.184159763253316,0.7440775536578834,0.1686167552089857,0.6560053003580824
403,23.178,22.94,-1.05,0.33644129224074115,0.9628032832888046,0.18466889811850135,0.7444561269186972,0.1693171768965249,0.6565221152043939
404,23.238,23.0,-0.94,0.33671339417107543,0.9634962142760713,0.1851840556854993,0.7448297558302899,0.17002964265862197,0.657004594407415
405,23.278,23.05,-0.84,0.3369903463461549,0.964186583272311,0.18570500959488198,0.7451984466171468,0.1707537725587208,0.6574526616370322
406,23.343,23.11,-0.95,0.3372718078634992,0.964874304691705,0.18623152359192396,0.7455622043776743,0.1714891709964902,0.6578662584735545
407,23.423,23.16,-0.98,0.33755742966331426,0.9655592900082698,0.18676335150196385,0.7459210330208266,0.1722354267872871,0.6582453443465985
408,23.443,23.22,-0.82,0.337846854716428,0.9662414477590668,0.18730023721388347,0.7462749352067838,0.1729921132557173,0.6585898964557175
409,23.503,23.27,-0.91,0.3381397182177462,0.9669206835510293,0.18784191467156836,0.7466239122923723,0.17375878834334949,0.6588999096731303
410,23.565,23.33,-1.02,0.3384356477848438,0.9675969000718176,0.1883881078732597,0.7469679642817845,0.17453499473064765,0.659175396428826
411,23.627,23.38,-0.91,0.33873426366138054,0.9682699971049543,0.1889385308787443,0.7473070897829027,0.17532025997318285,0.6594163865782164
412,23.687,23.44,-0.89,0.3390351789251216,0.9689398715492384,0.1894928878243767,0.747641285969255,0.176114096652169,0.659622927252423
413,23.729,23.49,-1.05,0.33933799970042355,0.9696064174422204,0.19005087294597373,0.7479705485473847,0.17691600253932535,0.6597950826912856
414,23.833,23.55,-0.95,0.33964232537504735,0.9702695259874224,0.1906121706096019,0.7482948717293537,0.17772546077600687,0.659932934059272
415,23.853,23.6,-0.84,0.3399477488211192,0.9709290855850439,0.19117645535023828,0.7486142482101706,0.17854194006649537,0.6600365792446011
416,23.894,23.66,-0.94,0.34025385662,0.9715849818660548,0.19174339191826434,0.7489286691500532,0.17936489488530316,0.6601061326420394
417,23.975,23.71,-0.98,0.3405602292907374,0.9722370977298341,0.19231263533373483,0.7492381241615854,0.18019376569831688,0.660141724919956
418,23.995,23.77,-0.79,0.3408664415217059,0.9728853133857567,0.19288383094833927,0.7495426013019539,0.18102797919761873,0.6601435027722681
419,24.056,23.82,-0.87,0.34117206240506576,0.9735295063992188,0.1934566145149829,0.7498420870704752,0.18186694854984728,0.6601116286558664
420,24.119,23.88,-0.98,0.3414766556737609,0.9741695517424768,0.19403061226492435,0.750136566411533,0.18271007365797437,0.6600462805140345
421,24.16,23.93,-0.83,0.34177977994085407,0.9748053218504561,0.19460544099238655,0.7504260227229125,0.1835567414363895,0.659947651486282
422,24.222,23.99,-0.8,0.34208098894107836,0.9754366866814344,0.19518070814655714,0.7507104378693861,0.1844063260992,0.6598159496049264
423,24.284,24.04,-0.97,0.3423798317745376,0.9760635137822868,0.19575601193093276,0.750989792201278,0.1852581894616511,0.6596513974787725
424,24.346,24.1,-0.88,0.34267585315248406,0.9766856683578868,0.19633094140998897,0.7512640645776997,0.18611168125456426,0.6594542319643244
425,24.447,24.15,-0.79,0.34296859364505927,0.977303013344307,0.1969050766231892,0.7515332323941999,0.18696613945168625,0.6592247038251174
426,24.467,24.21,-0.91,0.34325758993081773,0.9779154094856227,0.19747798870640482,0.751797271614657,0.18782089060983106,0.658963077379911
427,24.529,24.26,-0.95,0.3435423750477453,0.9785227154143826,0.19804924002086052,0.7520561568073371,0.18867525022166887,0.6586696301406474
428,24.55,24.32,-0.76,0.34382247864538196,0.9791247877360745,0.19861838428972092,0.7523098611851383,0.1895285230809983,0.658344652441146
429,24.612,24.37,-0.83,0.34409742723764725,0.9797214811180143,0.19918496674244102,0.7525583566500393,0.1903800036603258,0.6579884470574531
430,24.674,24.43,-0.94,0.3443667444560212,0.9803126483829983,0.19974852426700085,0.7528016138416685,0.19122897650055734,0.6576013288206523
431,24.716,24.48,-0.79,0.3446299513027931,0.9808981406078512,0.20030858557011338,0.7530396021897741,0.1920747166126026,0.6571836242227859
432,24.777,24.54,-0.75,0.344886566404169,0.981477807226769,0.2008646713454826,0.7532722899702349,0.19291648989070592,0.6567356710163991
433,24.838,24.59,-0.9,0.34513610626308605,0.9820514961391502,0.20141629445021375,0.7534996443641465,0.19375355353731982,0.6562578178081759
434,24.898,24.65,-0.81,0.3453780855115865,0.9826190538215435,0.20196296008949718,0.7537216315194877,0.19458515649933997,0.6557504236472085
435,24.96,24.7,-0.69,0.3456120171625686,0.9831803254433992,0.20250416600971952,0.7539382166149491,0.19541053991553375,0.6552138576085508
436,25.02,24.76,-0.78,0.34583741286071024,0.9837351549864486,0.20303940270021736,0.7541493639256155,0.19622893757501125,0.6546484983728574
437,25.081,24.81,-0.83,0.34605378313231044,0.9842833853677554,0.20356815360392438,0.7543550368903158,0.1970395763866019,0.654054733803036
438,25.101,24.87,-0.66,0.3462606376337555,0.9848248585666798,0.20408989533715133,0.7545551981805987,0.19784167685903317,0.6534329605188766
439,25.162,24.92,-0.74,0.34645748539835375,0.9853594157560494,0.20460409791873554,0.7547498097713212,0.19863445359185156,0.6527835834705361
440,25.203,24.98,-0.87,0.3466438350813771,0.9858868974377003,0.20511022500878964,0.7549388330127615,0.199417115777048,0.652107015511622
441,25.304,25.03,-0.76,0.3468191952032411,0.9864071435823262,0.20560773415723652,0.7551222287040665,0.20018886771136093,0.6514036769724628
442,25.324,25.09,-0.73,0.346983074390858,0.9869199937733083,0.2060960770622837,0.7552999571677513,0.2009489093192257,0.6506739952340362
443,25.386,25.14,-0.9,0.34713498161727185,0.987425287354002,0.20657469983898646,0.7554719783248728,0.20169643668629716,0.6499184043029885
444,25.427,25.2,-0.81,0.34727442643967993,0.9879228635778817,0.2070430432980388,0.75563825177048,0.20243064260341254,0.6491373443882591
445,25.488,25.25,-0.69,0.347400919235893,0.9884125617610293,0.2075005432349212,0.7557987368490133,0.20315071712081,0.6483312614799288
446,25.549,25.31,-0.79,0.34751397143923757,0.9888942214365986,0.20794663072955422,0.7559533927293907,0.2038558481123709,0.6475006069310459
447,25.632,25.36,-0.84,0.3476130957718477,0.9893676825111049,0.20838073245658795,0.7561021784796547,0.20454522184961857,0.6466458370433104
448,25.652,25.42,-0.65,0.34769780647627097,0.9898327854225587,0.20880227100639548,0.7562450531411881,0.20521802358520655,0.6457674126575192
449,25.714,25.47,-0.71,0.34776761954537055,0.9902893713005003,0.20921066521678564,0.7563819758025645,0.2058734381456528,0.6448657987496015
450,25.794,25.53,-0.83,0.34782205295060115,0.990737282127858,0.20960533051541586,0.7565129056730637,0.20651065053309303,0.6439414640329315
451,25.814,25.58,-0.7,0.34786062686882174,0.9911763609043497,0.20998567927284312,0.7566378021558166,0.20712884653585265,0.6429948805674783
452,25.876,25.64,-0.68,0.3478828639078948,0.9916064518109341,0.2103511211661385,0.756756624920463,0.20772721334765568,0.6420265233762229
453,25.937,25.69,-0.86,0.34788828933140076,0.9920274003746365,0.21070106355301307,0.7568693339751567,0.20830494019529056,0.6410368700692507
454,25.997,25.75,-0.78,0.3478764312828162,0.9924390536330101,0.21103491185640352,0.7569758897377915,0.20886121897452503,0.6400264004760022
455,26.039,25.8,-0.67,0.34784682100948255,0.9928412602975718,0.21135206995945877,0.75707625310645,0.209395244894029,0.6389955962862769
456,26.102,25.86,-0.78,0.34779899308665163,0.9932338709157179,0.21165194061087808,0.757170385529216,0.20990621712701943,0.6379449407007152
457,26.143,25.91,-0.85,0.3477324856418286,0.9936167380308649,0.21193392584053133,0.7572582490736066,0.21039333947028724,0.6368749180915912
458,26.205,25.97,-0.68,0.34764684057956213,0.9939897163408172,0.21219742738522707,0.7573398064959806,0.21085582101024158,0.6357860136747514
459,26.266,26.02,-0.75,0.3475416038068349,0.9943526628544398,0.21244184712444522,0.7574150213112731,0.21129287679558387,0.6346787131934223
460,26.37,26.08,-0.87,0.34741632545924317,0.994705437046618,0.2126665875258168,0.7574838578632604,0.21170372851619415,0.6335535026144572
461,26.412,26.13,-0.73,0.3472705601281919,0.9950479010112944,0.21287105210009186,0.7575462813954159,0.21208760518777367,0.632410867837416
462,26.454,26.19,-0.68,0.34710386708938584,0.9953799196121353,0.21305464586532583,0.7576022581222458,0.2124437438417603,0.6312512944167115
463,26.475,26.24,-0.85,0.3469158105329468,0.9957013606302038,0.2132167758200571,0.757651755300878,0.2127713902199951,0.6300752672969901
464,26.537,26.3,-0.76,0.3467059597954768,0.9960120949079531,0.21335685142529023,0.7576947413026319,0.2130697994735889,0.6288832705619369
465,26.579,26.35,-0.64,0.34647388959432296,0.9963119964889637,0.21347428509514055,0.7577311856843572,0.21333823686542255,0.6276757871967831
466,26.661,26.41,-0.73,0.34621918026422016,0.9966009427530245,0.21356849269604458,0.7577610592594102,0.21357597847571358,0.6264532988648915
467,26.742,26.46,-0.78,0.3459414179963893,0.9968788145464262,0.21363889405445138,0.7577843341682347,0.2137823119100732,0.6252162856988999
468,26.762,26.52,-0.6,0.34564019508007837,0.9971454963075815,0.21368491347287033,0.7578009839486062,0.21395653700949957,0.6239652261069037
469,26.822,26.57,-0.67,0.3453151101465327,0.9974008761881636,0.2137059802541196,0.7578109836056056,0.21409796656178195,0.622700596594058
470,26.863,26.63,-0.8,0.3449657684154143,0.9976448461698868,0.21370152923359562,0.7578143096812878,0.2142059270138087,0.6214228715998186
471,26.925,26.68,-0.69,0.34459178194372286,0.9978773021768796,0.21367100131934483,0.7578109403238824,0.2142797591842846,0.6201325233508782
472,26.987,26.74,-0.65,0.3441927698773091,0.9980981441834197,0.2136138440397066,0.7578008553562472,0.21431881897636967,0.6188300217297005
473,27.028,26.79,-0.83,0.34376835870511135,0.9983072763166578,0.2135295120983121,0.7577840363432032,0.2143224780897236,0.6175158341585034
474,27.11,26.85,-0.77,0.3433181825162406,0.9985046069539029,0.21341746793621763,0.7577604666573796,0.21429012473139003,0.6161904254985867
475,27.13,26.9,-0.65,0.3428418832599904,0.9986900488141427,0.21327718230092044,0.7577301315433076,0.21422116432490287,0.6148542579649746
476,27.191,26.96,-0.75,0.3423391110087795,0.9988635190436251,0.21310813482198818,0.7576930181796012,0.21411502021693812,0.6135077910564445
477,27.252,27.01,-0.81,0.34180952422391914,0.9990249392955599,0.212909814592993,0.7576491157391653,0.21397113438077858,0.6121514815010881
478,27.314,27.07,-0.63,0.34125279002396747,0.9991742358042203,0.2126817207593699,0.7575984154474377,0.2137889681158225,0.6107857832175432
479,27.356,27.12,-0.69,0.3406685844553744,0.9993113394537844,0.21242336311176796,0.7575409106386548,0.213568002742358,0.6094111472919217
480,27.42,27.18,-0.81,0.34005659276512573,0.9994361858421628,0.21213426268442956,0.7574765968100021,0.213307740290814,0.6080280219703239
481,27.483,27.23,-0.67,0.33941650967512255,0.9995487153398755,0.21181395235809006,0.7574054716733729,0.21300770418469395,0.6066368526666867
482,27.525,27.29,-0.62,0.33874803965809486,0.9996488731438197,0.21146197746687917,0.7573275352043202,0.21266743991640583,0.6052380819855985
483,27.607,27.34,-0.78,0.33805089721491843,0.9997366093256098,0.2110778964087163,0.7572427896877207,0.21228651571519327,0.6038321497596871
484,27.628,27.4,-0.7,0.3373248071532308,0.9998118788740995,0.21066128125867176,0.7571512397597426,0.21186452320636645,0.6024194931012389
485,27.71,27.45,-0.59,0.33656950486723425,0.9998746417317876,0.21021171838472005,0.7570528924459078,0.21140107806103528,0.6010005464677944
486,27.772,27.51,-0.7,0.33578473661853986,0.9999248628249513,0.20972880906528912,0.756947757195238,0.21089582063555404,0.5995757417415598
487,27.833,27.56,-0.76,0.33497025981781836,0.9999625120876221,0.20921217010797494,0.7568358459106618,0.2103484165998849,0.5981455083225429
488,27.874,27.62,-0.6,0.33412584330690775,0.9999875644797487,0.2086614344687245,0.7567171729759924,0.209758557554096,0.5967102732353099
489,27.914,27.67,-0.68,0.33325126764097496,1.0,0.20807625187073508,0.7565917552798179,0.20912596163222102,0.5952704612491295
490,27.955,27.73,-0.82,0.3323463253703379,0.9999998036935609,0.20745628942226807,0.756459612236565,0.20845037409269093,0.5938264950111115
491,28.015,27.78,-0.69,0.33141082132157346,0.999986965655078,0.20680123223250238,0.7563207658048734,0.20773156789452243,0.5923787951917776
492,28.076,27.84,-0.64,0.33044457287757995,0.9999614810266804,0.20611078402450478,0.7561752405033187,0.20696934425841462,0.5909277806423539
493,28.14,27.89,-0.82,0.3294474102562972,0.9999233499908005,0.20538466774438463,0.7560230634234266,0.20616353321185565,0.5894738685630164
494,28.221,27.95,-0.74,0.328419176787775,0.9998725777574539,0.20462262616568783,0.7558642642399158,0.20531399411728568,0.5880174746813711
495,28.262,28.0,-0.61,0.327359729189247,0.9998091745456772,0.20382442248807614,0.755698875218184,0.20442061618233093,0.5865590134405533
496,28.282,28.06,-0.7,0.32626893783783734,0.99973315555894,0.20298984092935188,0.7555269312191487,0.20348331895109767,0.5850988981964773
497,28.343,28.11,-0.75,0.32514668704046773,0.9996445409545418,0.2021186873098794,0.7553484697016561,0.20250205277550207,0.5836375414239011
498,28.403,28.17,-0.55,0.32399287530046783,0.9995433558071889,0.2012107896284007,0.7551635307227947,0.20147679926563286,0.5821753549310117
499,28.466,28.22,-0.61,0.3228074155803788,0.9994296300670182,0.20026599862819547,0.7549721569364699,0.2004075717181885,0.5807127500821508
500,28.568,28.28,-0.71,0.3215902355604743,0.9993033985122313,0.19928418835249928,0.7547743935905218,0.19929441552208202,0.5792501380281705
501,28.589,28.33,-0.59,0.32034127789256234,0.999164700696339,0.19826525668805325,0.7545702885225589,0.1981374085403561,0.5777879299437593
502,28.651,28.39,-0.55,0.31906050044869627,0.9990135808897903,0.19720912589566755,0.754359892154542,0.19693666146761482,0.5763265372709475
503,28.671,28.44,-0.73,0.31774787656448467,0.9988500880156018,0.19611574312674346,0.7541432574860254,0.19569231816221963,0.5748663719679289
504,28.732,28.5,-0.67,0.31640339527668637,0.998674275578563,0.1949850809247542,0.7539204400859224,0.19440455595252293,0.5734078467623721
505,28.795,28.55,-0.57,0.3150270615547211,0.9984862015876831,0.19381713771072367,0.7536914980827036,0.1930735859164297,0.5719513754084734
506,28.836,28.61,-0.69,0.31361889652562114,0.9982859284717612,0.19261193825178563,0.7534564921530302,0.1916996531335674,0.5704973729471222
507,28.939,28.66,-0.74,0.3121789376918021,0.9980735229882493,0.1913695341119009,0.7532154855089047,0.19028303690931966,0.5690462559686694
508,28.959,28.72,-0.56,0.3107072391408776,0.9978490561258628,0.19009000408375337,0.7529685438835358,0.18882405096996122,0.5675984428778076
509,29.02,28.77,-0.62,0.3092038717466955,0.9976126030015354,0.18877345460079004,0.7527157355161238,0.18732304362812932,0.5661543541599795
510,29.102,28.83,-0.73,0.3076689233608058,0.9973642427522083,0.1874200201283395,0.7524571311356848,0.18578039791786596,0.5647144126486068
511,29.123,28.88,-0.59,0.30610249899363207,0.9971040584217719,0.1860298635327188,0.7521928039439154,0.1841965316984833,0.5632790437922969
512,29.164,28.94,-0.54,0.30450472098471315,0.9968321368432149,0.1846031764272712,0.7519228295969801,0.1825718977265461,0.5618486759210916
513,29.226,28.99,-0.71,0.30287572916146666,0.9965485685158543,0.18314017949436304,0.7516472861859969,0.1809069836952994,0.5604237405108059
514,29.31,29.05,-0.63,0.30121568098595225,0.9962534474774611,0.18164112278244335,0.7513662542159922,0.17920231224090927,0.5590046724445974
515,29.331,29.1,-0.51,0.29952475168908715,0.9959468711711744,0.18010628597733286,0.7510798165831757,0.17745844091493324,0.5575919102710218
516,29.392,29.16,-0.61,0.2978031343917285,0.9956289403072839,0.1785359786469859,0.7507880585505052,0.1756759621224841,0.5561858964579742
517,29.456,29.21,-0.67,0.29605104021196793,0.9952997587202101,0.17693054045900955,0.7504910677216441,0.17385550302559444,0.5547870776420416
518,29.497,29.27,-0.49,0.29426869835792085,0.9949594332212646,0.1752903413702189,0.7501889340135435,0.17199772541134667,0.5533959048728297
519,29.559,29.32,-0.57,0.29245635620530935,0.9946080734478526,0.17361578178751222,0.7498817496279016,0.17010332552440358,0.5520128338517557
520,29.622,29.38,-0.7,0.2906142793592121,0.9942457917096743,0.17190729269936364,0.7495696090216587,0.1681730338636288,0.5506383251646735
521,29.725,29.43,-0.58,0.28874275169943125,0.993872702832275,0.17016533577723605,0.7492526088765369,0.1662076149425359,0.5492728445075651
522,29.747,29.49,-0.54,0.28684207540900086,0.9934889239980593,0.168390403446251,0.7489308480674889,0.1642078670133509,0.5479168629043994
523,29.768,29.54,-0.7,0.28491257098543116,0.9930945745846608,0.16658301892451732,0.7486044276297886,0.1621746217544926,0.5465708569162306
524,29.83,29.6,-0.62,0.28295457723431294,0.9926897760004684,0.16474373623056252,0.7482734507244744,0.16010874392128502,0.5452353088406674
525,29.892,29.65,-0.5,0.28096845124491293,0.9922746515171068,0.16287314015833837,0.7479380226019231,0.15801113095974453,0.5439107069009651
526,29.955,29.71,-0.6,0.27895456834738414,0.9918493260988165,0.1609718462193215,0.7475982505634493,0.15588271258332445,0.5425975454241211
527,30.036,29.76,-0.66,0.2769133220511596,0.9914139262289029,0.15904050055126512,0.7472542439209354,0.15372445031255302,0.5412963250074856
528,30.057,29.82,-0.47,0.2748451239640368,0.9909685797336785,0.1570797797931648,0.7469061139546275,0.1515373369775794,0.5400075526734323
529,30.119,29.87,-0.53,0.2727504036914781,0.9905134156044093,0.15509039092603166,0.7465539738692413,0.14932239618373383,0.53873174201157
530,30.181,29.93,-0.67,0.27062960871573855,0.9900485638176861,0.15307307107911,0.7461979387484516,0.14708068174028865,0.537469413307868
531,30.223,29.98,-0.55,0.26848320425454425,0.9895741551544325,0.15102858730119922,0.7458381255077251,0.14481327705268954,0.5362210936599416
532,30.264,30.04,-0.52,0.26631167309918746,0.9890903210175152,0.148957736296794,0.7454746528453561,0.14252129447861378,0.5349873170776397
533,30.326,30.09,-0.7,0.2641155154320443,0.9885971932477124,0.14686134412684115,0.7451076411914871,0.14020587464827333,0.5337686245680737
534,30.428,30.15,-0.64,0.261895248623598,0.9880949039377135,0.14474026587397926,0.7447372126549041,0.13786818574942045,0.5325655642043415
535,30.448,30.2,-0.54,0.25965140700907635,0.9875835852438826,0.1425953852721873,0.7443634909675118,0.13550942277755199,0.5313786911773554
536,30.489,30.26,-0.66,0.2573845416447994,0.9870633691956877,0.14042761430084233,0.7439866014264992,0.13313080675183742,0.5302085678303463
537,30.55,30.31,-0.71,0.2550952200442598,0.9865343875029343,0.13823789274323053,0.7436066708343397,0.13073358389731607,0.5290557636757508
538,30.612,30.37,-0.55,0.25278402589387455,0.9859967713612097,0.13602718770954617,0.743223827436878,0.12831902479394863,0.5279208553942082
539,30.674,30.42,-0.61,0.2504515587483313,0.9854506512560331,0.13379649312440964,0.7428382008598009,0.12588842349316345,0.5268044268153158
540,30.734,30.48,-0.75,0.24809843370550508,0.9848961567661441,0.13154682917894972,0.7424499220437121,0.1234430966025904,0.5257070688796501
541,30.776,30.53,-0.63,0.24572528106100516,0.9843334163661521,0.12927924174751135,0.7420591231779291,0.12098438233973824,0.524629379581441
542,30.817,30.59,-0.59,0.24333274594252496,0.9837625572285664,0.1269948017691205,0.741665937633015,0.11851363955544217,0.5235719638911835
543,30.878,30.64,-0.77,0.24092148792428947,0.9831837050250288,0.12469460459395586,0.7412704998919509,0.11603224672795959,0.5225354336574762
544,30.94,30.7,-0.7,0.238492180621951,0.9825969837265388,0.12237976929518564,0.7408729454798746,0.11354160092863783,0.521520407487483
545,30.982,30.75,-0.59,0.23604551126829618,0.9820025154025722,0.1200514379466225,0.7404734108924181,0.11104311676012911,0.5205275106055809
546,31.065,30.81,-0.71,0.2335821802701218,0.9814004200191832,0.1177107748667574,0.740072033522805,0.10853822526818009,0.5195573746899342
547,31.085,30.86,-0.78,0.2311029007465942,0.9807908152364615,0.11535896582981538,0.7396689515880057,0.10602837282807367,0.51861063768691
548,31.148,30.92,-0.63,0.2286083980493661,0.9801738162059697,0.11299721724452064,0.7392643040543514,0.10351502000686937,0.5176879436033129
549,31.21,30.97,-0.72,0.2260994092647581,0.9795495353688957,0.1106267553013219,0.7388582305630258,0.10099964040266377,0.5167899422763743
550,31.271,31.03,-0.86,0.22357668269841127,0.9789180822555807,0.10824882508890368,0.738450871355755,0.09848371946214365,0.5159172891213383
551,31.332,31.08,-0.76,0.2210409773429307,0.9782795632868905,0.10586468968086146,0.7380423672008951,0.09596875327774435,0.5150706448563979
552,31.373,31.14,-0.75,0.21849306232916765,0.9776340815776818,0.10347562919348478,0.737632859320008,0.09345624736575826,0.5142506752046445
553,31.456,31.19,-0.93,0.21593371636189385,0.9769817367424547,0.10108293981568121,0.7372224893149214,0.09094771542674727,0.513458050572711
554,31.518,31.25,-0.87,0.21336372714064653,0.9763226247032798,0.09868793281213627,0.73681139909527,0.08844467808960561,0.5126934457058919
555,31.538,31.3,-0.77,0.21078389076649218,0.9756568375002449,0.09629193350084123,0.7363997308066034,0.08594866164062025,0.5119575393197002
556,31.6,31.36,-0.89,0.20819501113540526,0.9749844631048941,0.09389628020616639,0.7359876267592678,0.083461196738878,0.5112510137080061
557,31.642,31.41,-0.96,0.20559789931887273,0.9743055852374206,0.09150232318866906,0.7355752293583789,0.08098381711937501,0.5105745543280953
558,31.723,31.47,-0.8,0.20299337293225142,0.9736202831886219,0.08911142355279546,0.735162681035311,0.07851805828521806,0.5099288493630706
559,31.807,31.52,-0.87,0.20038225549140937,0.9729286316476959,0.08672495213361547,0.7347501241811464,0.07606545619035784,0.5093145892619938
560,31.828,31.58,-1.01,0.19776537575825978,0.9722307005368173,0.08434428836371355,0.7343377010824361,0.07362754591433694,0.5087324662580985
561,31.891,31.63,-0.91,0.19514356707589908,0.9715265548531844,0.08197081912131939,0.7339255538595204,0.07120586033058304,0.5081831738653181
562,31.932,31.69,-0.9,0.1925176666941815,0.970816254518938,0.07960593756074374,0.733513824407551,0.06880192876982699,0.5076674063532938
563,31.993,31.74,-1.09,0.18988851508666682,0.9700998542391391,0.07725104192620524,0.7331026543402823,0.06641727568025436,0.5071858582010368
564,32.035,31.8,-1.05,0.1872569552599071,0.9693774033679149,0.07490753435015943,0.7326921849366897,0.06405341928600512,0.5067392235295352
565,32.097,31.85,-0.97,0.18462383205600513,0.9686489457829727,0.07257681963726652,0.732282557090547,0.06171187024563789,0.5063281955137605
566,32.158,31.91,-1.1,0.1819899914493234,0.9679145197688411,0.07026030403516956,0.7318739112631855,0.059394130312158865,0.5059534657747397
567,32.26,31.96,-1.19,0.17935627983813665,0.9671741579094068,0.06795939399325115,0.7314663874397518,0.05710169099618629,0.505615723752546
568,32.28,32.02,-1.02,0.1767235433319397,0.96642788699051,0.06567549491050272,0.7310601250893578,0.054836032233803456,0.5053156560611501
569,32.342,32.07,-1.1,0.17409262703511266,0.9656757279133904,0.06341000987366414,0.7306552631294716,0.05259862106064553,0.50505394582604
570,32.383,32.13,-1.24,0.17146437432769437,0.9649176956196405,0.06116433838688298,0.7302519398947351,0.05039091029375412,0.5048312720054363
571,32.445,32.18,-1.12,0.16883962614407796,0.9641537990280877,0.05893987509424887,0.729850293110189,0.04821433722273543,0.5046483086958415
572,32.466,32.24,-1.09,0.16621922025053665,0.9633840409837576,0.05673800849668335,0.7294504598687144,0.046070322311774374,0.5045057244225909
573,32.528,32.29,-1.28,0.16360399052258445,0.9626084182188307,0.05456011966479908,0.7290525766123539,0.04396026791406846,0.5044041814160823
574,32.608,32.35,-1.23,0.1609947662232338,0.9618269213254063,0.05240758094943243,0.7286567791171475,0.041885557000250824,0.5043443348744776
575,32.629,32.4,-1.14,0.1583923712832277,0.961039534739911,0.05028175469160751,0.728263202481198,0.039847551902386626,0.5043268322138175
576,32.69,32.46,-1.27,0.15579762358432767,0.9602462367391102,0.04818399193374229,0.7278719811157889,0.03784759307513278,0.5043523123066914
577,32.752,32.51,-1.35,0.15321133424668723,0.9594469994478749,0.046115631133924126,0.7274832487394965,0.035886997875644124,0.5044214047107878
578,32.813,32.57,-1.2,0.15063430692126337,0.958641788859055,0.044077996885047384,0.7270971383753319,0.03396705936381307,0.5045347288887521
579,32.854,32.62,-1.29,0.14806733708818953,0.957830564865865,0.04207239864057041,0.7267137823509509,0.03208904512443434,0.5046928934207698
580,32.915,32.68,-1.44,0.14551121136204995,0.9570132813070802,0.04010012944861315,0.726333312301865,0.030254196112874998,0.5048964952112311
581,32.998,32.73,-1.34,0.1429667068050318,0.9561898860251252,0.03816246469605762,0.7259558591774586,0.02846372552581478,0.505146118690769
582,33.019,32.79,-1.32,0.14043459024900232,0.9553603209368989,0.03626066086428309,0.7255815532495067,0.026718817698604052,0.5054423350149093
583,33.102,32.84,-1.49,0.13791561762762775,0.9545245221169657,0.03439595429818582,0.7252105241227673,0.025020627030754503,0.5057857012605838
584,33.144,32.9,-1.44,0.135410533319662,0.9536824198926933,0.032569559990153395,0.7248429007471949,0.023370276941034936,0.5061767596218629
585,33.205,32.95,-1.32,0.13292006950447632,0.9528339389509926,0.03078267038067868,0.7244788114313528,0.021768858853616995,0.5066160366063994
586,33.247,33.01,-1.44,0.13044494553081323,0.9519789984564853,0.029036454177319537,0.7241183838566889,0.02021743121669815,0.5071040422342311
587,33.372,33.06,-1.51,0.12798586729962477,0.9511175121811407,0.02733205519368618,0.7237617450924207,0.01871701855501927,0.507641269240743
588,33.392,33.12,-1.34,0.12554352666171903,0.9502493886456153,0.025670591210047056,0.7234090216108929,0.0172686105577085,0.5082281922856593
589,33.412,33.17,-1.4,0.12311860083086511,0.9493745312725872,0.02405315285704954,0.7230603393033065,0.01587316120291332,0.5088652671699038
590,33.454,33.23,-1.56,0.12071175181300234,0.9484928385522724,0.022480802523973088,0.7227158234956749,0.014531587920704126,0.5095529300621109
591,33.515,33.28,-1.5,0.11832362585224254,0.9476042042200931,0.020954573292863782,0.7223755989647856,0.013244770795753646,0.5102915967365029
592,33.576,33.34,-1.52,0.11595485289446211,0.9467085174462397,0.019475467899893156,0.7220397899538716,0.01201355181131776,0.5110816618237967
593,33.637,33.39,-1.74,0.11360604606943381,0.9458056630366432,0.018044457725352958,0.7217085201875894,0.010838734136018446,0.5119234980768361
594,33.72,33.45,-1.76,0.11127780119256821,0.9448955216447883,0.01666248181377551,0.7213819128858707,0.009721081454849534,0.512817455652744
595,33.741,33.5,-1.7,0.10897069628739549,0.9439779699938673,0.015330445925721088,0.7210600907762528,0.00866131734569997,0.5137638614134697
596,33.782,33.56,-1.86,0.10668529112990521,0.943052881108948,0.014049221622797566,0.7207431761043487,0.00766012470251868,0.5147630182466439
597,33.845,33.61,-1.97,0.10442212681573522,0.9421201245591322,0.012819645387411609,0.7204312906422083,0.006718145206037861,0.5158152044085984
598,33.908,33.67,-1.83,0.10218172535099826,0.9411795667099576,0.011642517778571044,0.7201245556944255,0.005835978842769684,0.516920672891249
599,33.97,33.72,-1.88,0.09996458926736589,0.9402310709864389,0.010518602624835583,0.7198230921019103,0.00501418347280143,0.5180796508142504
600,34.033,33.78,-2.04,0.09777120126193684,0.9392744981470647,0.009448626255305783,0.7195270202432331,0.004253274446735441,0.5192923388435382
601,34.094,33.83,-1.93,0.09560202386237474,0.9383097065688893,0.008433276769373318,0.7192364600334096,0.003553724271974561,0.5205589106370994
602,34.115,33.89,-1.9,0.09345749911783001,0.9373365525436294,0.0074732033458907235,0.7189515309199179,0.0029159623284429363,0.5218795123185951
603,34.176,33.94,-2.07,0.0913380483162344,0.9363548905844651,0.006569015592462481,0.7186723518756396,0.0023403746337305555,0.5232542619793653
604,34.238,34.0,-2.04,0.08924407172860266,0.9353645737431535,0.0057212829356243795,0.718399041388366,0.0018273036575481726,0.5246832492093707
605,34.299,34.05,-1.91,0.08717594838097333,0.9343654539370578,0.004930534052726308,0.7181317174465585,0.0013770481852907958,0.5261665346576856
606,34.36,34.11,-2.02,0.08513403585457384,0.9333573822858012,0.00419725634635427,0.717870497521118,0.0009898632304204118,0.5277041496232368
607,34.462,34.16,-2.1,0.08311867011467997,0.9323402094573748,0.003521895462079631,0.7176154985430133,0.0006659599952884359,0.5292960956765149
608,34.482,34.22,-1.94,0.08113016536846855,0.9313137860236677,0.0029048548501943335,0.7173668368767122,0.0004055058799518254,0.5309423443129252
609,34.502,34.27,-2.0,0.0791688139520188,0.9302779628253811,0.002346495371942101,0.7171246282893934,0.0002086245384846794,0.5326428366382674
610,34.564,34.33,-2.14,0.07723488624651845,0.9292325913461692,0.00184713495060906,0.7168889879158704,7.539598222517642e-05,0.5343974830866345
611,34.625,34.38,-2.02,0.07532863062366547,0.9281775240956402,0.0014070482676798747,0.7166600302191415,5.856729336166925e-06,0.5362061631708357
612,34.667,34.44,-1.95,0.07345027342025769,0.9271126150006316,0.0010264665041454127,0.7164378689464506,0.0,0.5380687252652793
613,34.729,34.49,-2.11,0.07160001894200752,0.9260377198039509,0.0007055771270003512,0.7162226170807239,5.77759564969647e-05,0.5399849864211713
614,34.812,34.55,-2.07,0.06977804949664147,0.9249526964696555,0.000444523720954807,0.7160143867872478,0.00017909198734952474,0.5419547322138651
615,34.832,34.6,-1.92,0.06798452545632491,0.9238574055939319,0.00024340586539030808,0.715813289355514,0.00036381303466776534,0.543977716622206
616,34.894,34.66,-2.01,0.06621958534939909,0.9227517108207053,0.00010227905661239548,0.7156194351362215,0.0006117619637957735,0.5460536619397354
617,34.954,34.71,-2.08,0.06448334598128691,0.9216354792612558,2.1154675428625906e-05,0.7154329334734976,0.0009227199743213767,0.5481822587176677
618,35.015,34.77,-1.87,0.0627759025842489,0.920508581917262,0.0,0.7152538926324693,0.001296427051500926,0.5503631657395196
619,35.076,34.82,-1.87,0.06109732899553099,0.9193708941067281,3.873826382623073e-05,0.7150824197223284,0.0017325824571587517,0.5525960100271876
620,35.118,34.88,-2.0,0.05944767786337358,0.9182222958921316,0.00013724875865735737,0.7149186206149626,0.0022308452591377746,0.5548803868781478
621,35.2,34.93,-1.87,0.057826980880326694,0.9170626725099587,0.0002953669820614564,0.7147625998591773,0.002790834898410057,0.5572158599333674
622,35.22,34.99,-1.82,0.05623524904335876,0.9158919148005922,0.0005128848293680425,0.7146144605904815,0.003412131793010828,0.5596019612754383
623,35.302,35.04,-1.99,0.054672472940334026,0.9147099196373549,0.0007895508297684238,0.7144743044363604,0.004094277978002708,0.5620381915564464
624,35.322,35.1,-2.0,0.05313862306249815,0.913516590353418,0.001125070426432086,0.7143422314169805,0.004836777780694652,0.564524020155194
625,35.384,35.15,-1.87,0.05163365014264099,0.9123118371653036,0.0015191063005575828,0.7142183398413401,0.005639098530332276,0.5670588853635272
626,35.448,35.21,-1.97,0.050157485518585974,0.9110955775917831,0.0019712787393204954,0.7141027261989826,0.0065006713014339286,0.5696421946016975
627,35.51,35.26,-2.04,0.048710041521547114,0.9098677368671169,0.0024811660476473044,0.7139954850474837,0.007420891689864631,0.5722733246628375
628,35.552,35.32,-1.85,0.047291211888704374,0.9086282483477436,0.0030483050036173706,0.7138967088960241,0.008399120620661655,0.5749516219867012
629,35.614,35.37,-1.83,0.04590087219915786,0.9073770539115869,0.003672191357141206,0.7138064880853969,0.00943468518657207,0.5776764029627655
630,35.675,35.43,-1.97,0.044538880332268535,0.9061141043491224,0.004352280371420681,0.7137249106647842,0.010526879516231512,0.5804469542627017
631,35.715,35.48,-1.84,0.04320507694727275,0.9048393597452843,0.005087987406565544,0.7136520622656366,0.011674965670922863,0.5832625332021302
632,35.778,35.54,-1.78,0.04189928598300842,0.9035527898512387,0.005878688544682714,0.7135880259730076,0.012878174568897833,0.5861223681314824
633,35.841,35.59,-1.94,0.040621315176613264,0.9022543744450032,0.0067237212557924005,0.7135328821947108,0.014135706936289258,0.5890256588557727
634,35.964,35.65,-1.96,0.03937095660010881,0.9009441036799014,0.007622385104000441,0.7134867085287177,0.015446734283659445,0.5919715770831409
635,35.984,35.7,-1.82,0.03814798721385787,0.8996219784198849,0.008573942493439202,0.713449579629296,0.016810399907230947,0.5949592669020987
636,36.006,35.76,-1.92,0.03695216943595221,0.8982880105608387,0.009577619453574045,0.7134215670724597,0.01822581991380874,0.5979878452874829
637,36.049,35.81,-2.01,0.03578325172658393,0.8969422233370796,0.010632606463482705,0.7134027392213366,0.019692084268329378,0.60105640263516
638,36.11,35.87,-1.85,0.03464096918636312,0.8955846516123762,0.011738059314610586,0.7133931610921204,0.021208257862899944,0.6041640033254922
639,36.171,35.92,-1.86,0.03352504416744659,0.8942153421548443,0.01289310001135185,0.713392894221264,0.02277338160612397,0.6073096863154306
640,36.231,35.98,-2.02,0.03243518689626431,0.8928343538950367,0.014096817708640418,0.7134019965345152,0.02438647353144812,0.6104924657589215
641,36.293,36.03,-1.91,0.03137109610655274,0.8914417581664971,0.015348269685553457,0.7134205222183542,0.02604652992320831,0.6137113316551377
642,36.333,36.09,-1.85,0.03033245968136041,0.8900376389280297,0.016646482353784672,0.7134485215943618,0.027752526459017213,0.616965250523865
643,36.374,36.14,-1.99,0.02931895530268829,0.8886220929669291,0.01799045229976623,0.713486040997012,0.02950341936708761,0.6202531661072763
644,36.436,36.2,-2.0,0.0283302511074473,0.8871952300824834,0.019379147359169603,0.71353312265536,0.03129814659702467,0.6235740000972791
645,36.497,36.25,-1.85,0.027366006348447082,0.8857571732491686,0.02081150772248345,0.7135898045791046,0.033135629002561305,0.6269266528876051
646,36.578,36.31,-1.94,0.026425872059193743,0.8843080587590777,0.0222864470703583,0.7136561204494856,0.03501477153464702,0.6303100043497792
647,36.598,36.36,-2.02,0.02550949172129445,0.882848036343227,0.02380285373735959,0.7137320995154244,0.036934464443222875,0.6337229146320656
648,36.661,36.42,-1.83,0.02461650193323658,0.8813772692714641,0.025359591902647513,0.7138177664952757,0.03889358448595234,0.6371642249803898
649,36.723,36.47,-1.81,0.023746533079291827,0.8798959344306945,0.02695550280595707,0.713913141484464,0.04089099614213279,0.6406327585800777
650,36.763,36.53,-1.94,0.022899209997292436,0.8784042223810622,0.02858940598710921,0.7140182398691864,0.042925552829978994,0.6441273214171144
651,36.825,36.58,-1.8,0.02207415264403459,0.8769023373896577,0.0302601005471367,0.7141330722463167,0.04499609812545851,0.6476467031575167
652,36.887,36.64,-1.72,0.02127097675708569,0.8753904974413098,0.03196636642901038,0.714257644349668,0.04710146698088438,0.6511896780433307
653,36.947,36.69,-1.87,0.02048929451181393,0.8738689342260659,0.03370696571593569,0.714391956982783,0.04924048694149627,0.6547550058037219
654,37.049,36.75,-1.87,0.019728715172484684,0.8723378931031093,0.03548064394521843,0.7145360059584416,0.05141197935827673,0.6583414325796637
655,37.07,36.8,-1.72,0.01898884573630443,0.8707976330410253,0.03728613143575181,0.7146897820451067,0.05361476059525803,0.6619476918607528
656,37.131,36.86,-1.8,0.018269291569356215,0.8692484265344568,0.03912214462725376,0.7148532709204821,0.05584764322955755,0.6655725054327093
657,37.151,36.91,-1.87,0.017569657033418725,0.867690559497237,0.04098738742941639,0.7150264531322815,0.05810943724233157,0.6692145843341236
658,37.212,36.97,-1.67,0.016889546102661707,0.8661243311321052,0.04288055257907784,0.7152093040662114,0.0603989511987931,0.6728726298209546
659,37.274,37.02,-1.64,0.016228562969213874,0.8645500537770416,0.044800323003437115,0.7154017939210547,0.06271499341541793,0.6765453343371548
660,37.316,37.08,-1.75,0.015586312636611765,0.8629680527281772,0.046745373187236455,0.7156038876906388,0.06505637311245491,0.6802313824896913
661,37.399,37.13,-1.59,0.01496240150015218,0.8613786660391791,0.0487143705417429,0.7158155451524384,0.06742190154988181,0.6839294520261546
662,37.419,37.19,-1.49,0.014356437913208573,0.8597822442970482,0.05070597677332899,0.7160367208625973,0.06981039314501404,0.6876382148131066
663,37.48,37.24,-1.62,0.01376803273864284,0.8581791503743685,0.05271884924951573,0.7162673641572077,0.07222066657005578,0.6913563378133419
664,37.541,37.3,-1.61,0.013196799884515385,0.856569759158233,0.054751642360439993,0.716507419159748,0.07465154582796596,0.6950824840603308
665,37.602,37.35,-1.43,0.012642356823381188,0.8549544572563029,0.05680300887381913,0.7167568247946583,0.07710186130510005,0.698815313628197
666,37.666,37.41,-1.5,0.01210432509458771,0.8533336426806,0.05887160128161536,0.7170155148070362,0.0795704507991553,0.7025534845956636
667,37.687,37.46,-1.58,0.011582330789110735,0.8517077245096835,0.06095607313669243,0.7172834177883513,0.08205616052098319,0.7062956540024631
668,37.771,37.52,-1.4,0.011076005016549253,0.8500771225298579,0.06305508037776691,0.7175604572079919,0.08455784606886546,0.7100404787967148
669,37.813,37.57,-1.37,0.010584984353961206,0.8484422668559768,0.06516728264092943,0.7178465514503308,0.08707437337389012,0.7137866167717127
670,37.854,37.63,-1.5,0.010108911276268407,0.8468035975323542,0.06729134455597131,0.7181416138569063,0.0896046196150975,0.7175327274905191
671,37.916,37.68,-1.34,0.009647434567959003,0.8451615641143047,0.06942593702569395,0.7184455527732921,0.09214747410310895,0.721277473196758
672,37.978,37.74,-1.24,0.009200209715818907,0.843516625230941,0.07156973848635248,0.7187582716002955,0.0947018391310143,0.7250195197099977
673,38.02,37.79,-1.35,0.008766899282455306,0.841869248130013,0.07372143614742972,0.7190796688492028,0.09726663079136684,0.7287575373041716
674,38.142,37.85,-1.33,0.008347173260428975,0.8402199082057681,0.07587972720901469,0.7194096382008988,0.09984077975821071,0.7324902015675798
675,38.164,37.9,-1.14,0.00794070940690447,0.8385690885110119,0.07804332005517042,0.7197480685687742,0.10242323203316324,0.7362161942431231
676,38.225,37.96,-1.2,0.007547193558880651,0.8369172792546544,0.08021093542182771,0.7200948441653389,0.10501294965466948,0.7399342040475246
677,38.246,38.01,-1.26,0.007166319929213373,0.8352649772860543,0.08238130753787194,0.7204498445723616,0.10760891136962777,0.7436429274684307
678,38.307,38.07,-1.05,0.006797791383747589,0.833612685567422,0.08455318523814452,0.7208129448142799,0.1102101132666805,0.7473410695384158
679,38.348,38.12,-1.0,0.006441319699959455,0.8319609126354458,0.08672533304710812,0.7211840154345411,0.11281556937057682,0.751027344585029
680,38.409,38.18,-1.12,0.006096625807556559,0.8303101720531906,0.08889653223195758,0.7215629225744947,0.11542431219713316,0.7547004769561806
681,38.552,38.23,-0.96,0.005763440011469046,0.8286609818532908,0.09106558182398654,0.7219495280545063,0.11803539326845126,0.7583592017203563
682,38.573,38.29,-0.87,0.005441502197611511,0.8270138639735222,0.09323129960709096,0.722343689457088,0.12064788358821948,0.7620022653413234
683,38.594,38.34,-1.0,0.005130562021734637,0.8253693436859544,0.09539252307242489,0.7227452602119582,0.12326087407708299,0.7656284263271972
684,38.634,38.4,-1.02,0.004830379081615446,0.8237279490210543,0.09754811033836144,0.7231540896830828,0.12587347596821608,0.7692364558539646
685,38.697,38.45,-0.85,0.004540723072784153,0.8220902101882422,0.09969694103503092,0.7235700232578738,0.12848482116336302,0.7728251383637679
686,38.758,38.51,-0.93,0.004261373927988278,0.8204566589944361,0.1018379171528284,0.7239929024387479,0.1310940625497173,0.776393272138422
687,38.82,38.56,-1.01,0.003992121940606104,0.8188278282620209,0.10396996385435409,0.7244225649371899,0.13370037427806541,0.7799396698488085
688,38.861,38.62,-0.82,0.003732767872214217,0.8172042512475151,0.10609203024924024,0.7248588447703577,0.13630295200266968,0.7834631590808921
689,38.943,38.67,-0.79,0.003483123044505326,0.8155864610619756,0.10820309013128446,0.7253015723601527,0.1389010130834233,0.7869625828391572
690,38.984,38.73,-0.92,0.003243009415733589,0.8139749900939925,0.11030214267727387,0.7257505746345984,0.14149379675087323,0.7904368000283328
691,39.024,38.78,-0.77,0.0030122596418107306,0.8123703694360195,0.11238821310684367,0.726205675131406,0.1440805642347936,0.79388468591436
692,39.065,38.84,-0.69,0.002790717122122315,0.810773128314801,0.11446035330272003,0.7266666941037486,0.14666059885711263,0.7973051325656281
693,39.147,38.89,-0.83,0.002578236030110381,0.8091837935267346,0.11651764239080128,0.7271334486283749,0.14923320609012,0.8006970492755757
694,39.229,38.95,-0.86,0.002374681328637983,0.8076028888791387,0.11855918727968301,0.727605752716287,0.15179771358099658,0.8040593629678199
695,39.249,39.0,-0.73,0.0021799287701461736,0.806030934638537,0.1205841231593991,0.7280834174262492,0.15435347114381537,0.807391018584996
696,39.311,39.06,-0.84,0.0019938648816615226,0.8044684469871091,0.12259161395932931,0.7285662509813546,0.1568998507202337,0.8106909794624478
697,39.352,39.11,-0.97,0.0018163869347786123,0.8029159374883695,0.12458085276534274,0.7290540588887873,0.15943624631011163,0.8139582276878624
698,39.414,39.17,-0.83,0.0016474029007789767,0.8013739125629922,0.12655106219626983,0.7295466440628222,0.16196207387327452,0.8171917644478238
699,39.475,39.22,-0.83,0.0014868313910681847,0.7998428729755027,0.12850149473977546,0.7300438069510341,0.16447677120360127,0.8203906103621071
700,39.537,39.28,-1.0,0.0013346015830974344,0.7983233133323948,0.13043143304768112,0.7305453456635906,0.1669797977765571,0.8235538058063897
701,39.619,39.33,-0.87,0.00119065313186041,0.7968157215921609,0.1323401901907501,0.7310510561055167,0.1694706345712242,0.826680411223947
702,39.639,39.39,-0.8,0.0010549360669653957,0.7953205785877564,0.13422710987295672,0.7315607321118744,0.17194878386784088,0.829769507426796
703,39.7,39.44,-0.95,0.0009274106752460378,0.7938383575620991,0.13609156660534666,0.7320741655858912,0.17441376902183048,0.8328201958866738
704,39.782,39.5,-0.97,0.0008080473688712246,0.7923695237173071,0.1379329658397034,0.7325911466401552,0.17686513421527955,0.8358315990162026
705,39.802,39.55,-0.81,0.0006968265389778616,0.7909145337784903,0.13975074406235408,0.7331114637410937,0.17930244418682154,0.838802860440541
706,39.843,39.61,-0.9,0.0005937383949717409,0.7894738355729103,0.14154436884858437,0.7336349038569321,0.1817252839408663,0.8417331452597507
707,39.904,39.66,-1.0,0.000498782789770201,0.788047867625247,0.14331333887823483,0.7341612526092568,0.1841332584370798,0.8446216403020466
708,39.967,39.72,-0.83,0.0004119690313385103,0.7866370587695766,0.14505718391307615,0.7346902944281839,0.18652599226098407,0.8474675543679986
709,40.029,39.77,-0.81,0.0003333156809304169,0.7852418277784716,0.14677546473656636,0.7352218127110222,0.1889031292765285,0.8502701184656402
710,40.049,39.83,-0.94,0.0002628503384668861,0.7838625830094682,0.14846777305659373,0.7357555899842195,0.19126433226146186,0.8530285860363614
711,40.113,39.88,-0.82,0.00020060941547525574,0.7824997220690456,0.1501337313717904,0.7362914080683814,0.19360928252632778,0.8557422331714462
712,40.174,39.94,-0.74,0.00014663789599205998,0.7811536314942621,0.1517729928020084,0.7368290482462415,0.19593767951792887,0.8584103588190716
713,40.237,39.99,-0.88,0.0001009890858309952,0.7798246864522271,0.15338524088361855,0.7373682914335452,0.19824924040813635,0.8610322849815805
714,40.34,40.05,-0.89,6.372435060978548e-05,0.778513250457701,0.15497018933038648,0.7379089183528932,0.20054369966894736,0.8636073569028216
715,40.362,40.1,-0.72,3.491284293471099e-05,0.7772196751092069,0.1565275817607754,0.7384507097106292,0.20282080863471721,0.8661349432453522
716,40.422,40.16,-0.82,1.4631219190899276e-05,0.7759442998440673,0.15805719139264432,0.7389934463768253,0.20508033505249743,0.8686144362572655
717,40.442,40.21,-0.91,2.9633464445786895e-06,0.7746874517126947,0.15955882070639502,0.7395369095682698,0.2073220626213861,0.8710452519283944
718,40.504,40.27,-0.73,0.0,0.7734494451723054,0.16103230107764543,0.7400808810342278,0.20954579052177574,0.8734268301355906
719,40.566,40.32,-0.7,5.8385521821037334e-06,0.7722305819000312,0.16247749238050765,0.7406251432445796,0.21175133293537707,0.8757586347767008
720,40.608,40.38,-0.85,2.05826529255027e-05,0.7710311506252053,0.163894282562546,0.741169479579823,0.21393851855688506,0.8780401538928245
721,40.712,40.43,-0.71,4.434190271905716e-05,0.7698514269805092,0.1652825871924585,0.7417136745224066,0.2161071900981605,0.8802708997784291
722,40.731,40.49,-0.63,7.723151842736607e-05,0.7686916733716743,0.16664234898149796,0.7422575138489312,0.2182572037858357,0.8824504090789068
723,40.771,40.54,-0.8,0.00011937199251049764,0.767552138865479,0.16797353727967146,0.742800784822861,0.22038842885329057,0.8845782428751943
724,40.832,40.6,-0.83,0.00017088874617872025,0.766433059095896,0.16927614754777565,0.7433432763874956,0.22250074702797062,0.8866539867551507
725,40.895,40.65,-0.69,0.0002319117770463222,0.7653346561883345,0.17055020080635364,0.7438847793590568,0.22459405201503171,0.8886772508714585
726,40.955,40.71,-0.78,0.00030257530192256325,0.7642571387019437,0.17179574306272394,0.7444250866197243,0.2266682489782711,0.8906476699858288
727,41.016,40.76,-0.87,0.0003830173954418435,0.7632007015898519,0.17301284471726996,0.7449639933103452,0.2287232540192328,0.8925649034993205
728,41.097,40.82,-0.7,0.0004733796252774207,0.7621655261770596,0.17420159995014298,0.7455012970224051,0.23075899365529426,0.8944286354685425
729,41.117,40.87,-0.67,0.0005738066847137769,0.7611517801554826,0.17536212608946403,0.7460367979887158,0.23277540429747376,0.8962385746074203
730,41.178,40.93,-0.82,0.0006844460233537774,0.7601596175954569,0.17649456296204222,0.7465702992721711,0.23477243172864198,0.8979944542741599
731,41.219,40.98,-0.66,0.0008054474766732445,0.7591891789729545,0.1775990722275551,0.7471016069519141,0.23675003058279565,0.8996960324430333
732,41.281,41.04,-0.59,0.0009369628950580674,0.7582405912117982,0.17867583669712303,0.7476305303063425,0.2387081638260611,0.9013430916606396
733,41.342,41.09,-0.74,0.0010791457729093193,0.7573139677402865,0.17972505963728633,0.7481568819924527,0.24064680224011878,0.9029354389863763
734,41.445,41.15,-0.75,0.0012321508783740046,0.7564094085617736,0.18074696406051335,0.748680478221114,0.24256592390875978,0.9044729059169826
735,41.465,41.2,-0.58,0.0013961338842631255,0.7555270003388915,0.1817417920035012,0.749201138927923,0.24446551370830902,0.9059553482951568
736,41.506,41.26,-0.68,0.001571251000770704,0.7546668164911361,0.18270980379468235,0.7497186879392763,0.2463455628026451,0.9073826462023643
737,41.567,41.31,-0.77,0.0017576586106642378,0.7538289173054856,0.18365127731243716,0.7502329531332227,0.2482060681435088,0.9087547038360625
738,41.609,41.37,-0.6,0.001955512907642839,0.7530133500595959,0.18456650723549367,0.7507437665945751,0.2500470319767486,0.9100714493715814
739,41.691,41.42,-0.58,0.002164969538557003,0.7522201491569661,0.1854558042869209,0.751250964763681,0.2518684613551202,0.9113328348088467
740,41.711,41.48,-0.72,0.002386183250146307,0.7514493362733432,0.18631949447302393,0.7517543885781786,0.2536703676582174,0.912538835804078
741,41.812,41.53,-0.58,0.002619307540848481,0.7507009205136179,0.18715791831832304,0.7522538836070993,0.2554527661200892,0.9136894514865671
742,41.832,41.59,-0.48,0.002864494318130257,0.7499748985785434,0.1879714300977042,0.7527493001767838,0.2572156753650978,0.9147847042606443
743,41.873,41.64,-0.64,0.0031218935617346793,0.7492712549407234,0.1887603970668119,0.753240493488219,0.2589591169525895,0.9158246395929716
744,41.935,41.7,-0.64,0.0033916529932145516,0.7485899620294537,0.18952519869178328,0.753727323725554,0.2606831149309683,0.9168093257854053
745,41.997,41.75,-0.48,0.003673917752131368,0.7479309804241238,0.19026622587948464,0.7542096561556879,0.2623876954017887,0.9177388537337636
746,42.059,41.81,-0.57,0.0039688300793397835,0.7472942590559399,0.1909838802095089,0.7546873612188802,0.26407288609449103,0.9186133366729355
747,42.099,41.86,-0.67,0.004276529007793304,0.7466797354177276,0.19167857316924447,0.7551603146103012,0.2657387159523778,0.9194329099088441
748,42.18,41.92,-0.47,0.004597150061287899,0.746087335781519,0.19235072539329004,0.7556283973523839,0.2673852147303996,0.9201977305378141
749,42.222,41.97,-0.47,0.004930824961538765,0.7455169754235165,0.19300076590842385,0.7560914958577702,0.2690124126052986,0.9209079771538582
750,42.264,42.03,-0.62,0.005277681343954772,0.7449685588559092,0.19362913138526258,0.7565495019825603,0.2706203397986324,0.9215638495443749
751,42.347,42.08,-0.51,0.005637842482406215,0.7444419800649569,0.19423626539764605,0.7570023130695893,0.27220902621318377,0.9221655683747407
752,42.368,42.14,-0.46,0.006011427023215125,0.7439371227547878,0.19482261769068554,0.7574498319815582,0.2737785010832698,0.9227133748622782
753,42.43,42.19,-0.62,0.0063985487285470296,0.7434538605964265,0.19538864345836573,0.7578919671239557,0.2753287926394533,0.9232075304401108
754,42.553,42.25,-0.62,0.006799316229350923,0.7429920574816845,0.19593480263156682,0.758328632457858,0.2768599277881247,0.9236483164115116
755,42.573,42.3,-0.46,0.007213832787980538,0.742551567781674,0.1964615591773843,0.7587597475028277,0.27837193180637165,0.9240360335954603
756,42.594,42.36,-0.55,0.007642196070642216,0.7421322366097945,0.19696938041065606,0.7591852373302149,0.2798648280524813,0.9243710019642127
757,42.655,42.41,-0.62,0.008084497929793086,0.7417339000891078,0.1974587363185909,0.7596050325472019,0.28133863769233614,0.9246535602737624
758,42.695,42.47,-0.4,0.008540824196538798,0.7413563856240586,0.19793009889928878,0.7600190692719512,0.2827933794419009,0.9248840656880776
759,42.756,42.52,-0.4,0.009011254483007101,0.7409995121764816,0.19838394151481803,0.7604272891001993,0.28422906932597275,0.9250628933979076
760,42.819,42.58,-0.54,0.009495861994614895,0.7406630905457642,0.1988207382594074,0.7608296390635655,0.2856457204533532,0.9251904362348428
761,42.922,42.63,-0.41,0.009994713352084171,0.7403469236529767,0.19924096334320576,0.7612260715798074,0.2870433428086223,0.9252671042812073
762,42.984,42.69,-0.35,0.010507868423044865,0.7400508068287304,0.19964509049201876,0.7616165443952583,0.2884219430607399,0.9252933244762687
763,43.004,42.74,-0.52,0.01103538016312092,0.7397745281044438,0.20003359236347149,0.7620010205196746,0.289781524388728,0.9252695402192348
764,43.045,42.8,-0.53,0.011577294466503874,0.7395178685066337,0.20040693998011697,0.7623794681537446,0.29112208632468867,0.925196210969583
765,43.105,42.85,-0.4,0.012133650026144617,0.7392806023537997,0.20076560218008793,0.7627518606095591,0.292443624614384,0.9250738118453546
766,43.167,42.91,-0.51,0.012704478203801396,0.739062497555471,0.20111004508595912,0.763118176224372,0.2937461310955455,0.9249028332201243
767,43.207,42.96,-0.59,0.013289802910182686,0.7388633159130351,0.20144073159247333,0.7634783982679851,0.2950295935939803,0.9246837803194158
768,43.27,43.02,-0.38,0.013889640495322413,0.7386828134220428,0.2017581208736457,0.7638325148441266,0.2962939958374427,0.9244171728173001
769,43.312,43.07,-0.36,0.014503999649205693,0.7385207405757106,0.20206266790957927,0.7641805187861637,0.29753931738715295,0.92410354443381
770,43.353,43.13,-0.5,0.01513288131256004,0.7383768426692838,0.2023548230331571,0.7645224075474374,0.2987655335867814,0.923743442533671
771,43.415,43.18,-0.35,0.01577627859765042,0.7382508601048565,0.20263503149663484,0.7648581830864427,0.2999726155286946,0.9233374277267347
772,43.478,43.24,-0.27,0.016434176718898075,0.7381425286961782,0.202903733058105,0.7651878517470583,0.30116053003728693,0.922886073470385
773,43.54,43.29,-0.43,0.01710655293318929,0.7380515799729275,0.20316136158784584,0.765511424134003,0.3023292396692643,0.922389965674157
774,43.662,43.35,-0.43,0.01779337648979772,0.7379777414839553,0.20340834469463565,0.7658289149837404,0.3034787027307752,0.9218497023068545
775,43.683,43.4,-0.28,0.018494608589904496,0.7379207370990805,0.20364510337217684,0.7661403430311353,0.30460887331130315,0.9212658930065425
776,43.704,43.46,-0.38,0.019210202355741914,0.7378802873091184,0.2038720516658384,0.7664457308722469,0.3057197013342256,0.9206391586938768
777,43.745,43.51,-0.47,0.019940102809360823,0.737856109523966,0.20408959635992355,0.7667451048236977,0.3068111326238942,0.9199701311893403
778,43.807,43.57,-0.28,0.020684246860923263,0.7378479183686958,0.20429813668556948,0.7670384947791211,0.3078831089890377,0.9192594528349581
779,43.868,43.62,-0.29,0.02144256330633399,0.737855425977658,0.20449806404924858,0.7673259340632147,0.3089355683222416,0.9185077761209786
780,43.93,43.68,-0.45,0.022214972833968654,0.7378783422865176,0.2046897617817004,0.767607459283899,0.3099684447152113,0.9177157633178753
781,44.011,43.73,-0.3,0.02300138804023432,0.7379163753220301,0.2048736049069899,0.7678831101830458,0.3109816685894911,0.9168840861138893
782,44.031,43.79,-0.24,0.02380171345373395,0.7379692314891957,0.20504995993131922,0.7681529294862202,0.31197516684229865,0.9160134252581926
783,44.092,43.84,-0.4,0.02461584556788267,0.7380366158552961,0.20521918465123945,0.7684169627518405,0.3129488630071155,0.9151044702097086
784,44.132,43.9,-0.34,0.025443672881888,0.7381182324302686,0.20538162798096082,0.7686752582201477,0.31390267742865285,0.9141579187916586
785,44.193,43.95,-0.18,0.02628507595003421,0.7382137844429247,0.20553762979852508,0.7689278666624169,0.3148365274517899,0.9131744768519983
786,44.296,44.01,-0.28,0.027139927439209264,0.73832297461265,0.20568752081067881,0.7691748412308609,0.3157503276240654,0.912154857930013
787,44.317,44.06,-0.34,0.028008092194536514,0.7384455054164223,0.2058316224362989,0.769416237309712,0.3166439899112792,0.9110997829294446
788,44.379,44.12,-0.15,0.02888942731284279,0.738581079351189,0.20597024670812814,0.7696521123680137,0.3175174239257604,0.9100099797985273
789,44.399,44.17,-0.19,0.029783782223586516,0.7387293991917465,0.20610369619246094,0.7698825258146654,0.3183705371668815,0.9088861832172136
790,44.461,44.23,-0.34,0.030690998776817198,0.7388901682442381,0.20623226392631608,0.7701075388561884,0.3192032352734061,0.9077291342917424
791,44.524,44.28,-0.2,0.03161091133772062,0.7390630905952824,0.20635623337156486,0.7703272143575902,0.3200154222872678,0.906539580256571
792,44.564,44.34,-0.17,0.03254334688735371,0.7392478713566071,0.20647587838549608,0.7705416167065949,0.32080700092838277,0.905318274183588
793,44.627,44.39,-0.35,0.03348812512925763,0.7394442169049388,0.20659146320738722,0.7707508116814098,0.321577872880077,0.9040659746984897
794,44.692,44.45,-0.28,0.03444505860170717,0.739651835116828,0.20670324246073013,0.7709548663221791,0.3223279390846575,0.9027834457042734
795,44.751,44.5,-0.13,0.03541395279539156,0.7398704355981285,0.20681146117079577,0.7711538488063587,0.3230571000486032,0.9014714561118904
796,44.832,44.56,-0.21,0.03639460627631508,0.7400997299079344,0.20691635479723364,0.7713478283283334,0.3237652561567883,0.9001307795782006
797,44.852,44.61,-0.26,0.03738681081364001,0.7403394317769498,0.20701814928134618,0.7715368749836857,0.3244523079950962,0.8987621942514515
798,44.893,44.67,-0.05,0.038390351512092816,0.7405892573204182,0.2071170611075487,0.7717210596585979,0.32511815668077365,0.8973664825244703
799,44.955,44.72,-0.09,0.03940500694850439,0.7408489252457996,0.20721329737839775,0.7719004539248361,0.3257627041999002,0.8959444307956046
800,45.016,44.78,-0.21,0.040430549312072524,0.7411181570552832,0.20730705590247134,0.7720751299406554,0.3263858537513925,0.8944968292372607
801,45.118,44.83,-0.06,0.041466744547982506,0.7413966772430769,0.20739852529432706,0.772245160357814,0.32698751009700905,0.8930244715716836
802,45.139,44.89,-0.01,0.04251335250410536,0.7416842134872368,0.20748788508579435,0.7724106182347291,0.3275675799168818,0.8915281548534614
803,45.178,44.94,-0.19,0.0435701270805882,0.7419804968356631,0.2075753058479836,0.7725715769556558,0.3281259721701398,0.8900086792581459
804,45.24,45.0,-0.11,0.044636816382223596,0.7422852618858566,0.20766094932352575,0.772728110155709,0.328662598460208,0.8884668478764056
805,45.301,45.05,-0.01,0.045713162873528744,0.7425982469580986,0.20774496856866229,0.7728802916515903,0.3291773734043799,0.8869034665131931
806,45.363,45.11,-0.13,0.0467989035364993,0.7429191942618621,0.20782750810489048,0.7730281953779561,0.32967021500725213,0.8853193434915321
807,45.404,45.16,-0.2,0.04789377003099104,0.7432478500554639,0.20790870407989345,0.773171895329464,0.3301410450375805,0.8837152894606481
808,45.486,45.22,-0.01,0.048997488857629404,0.7435839647991693,0.20798868443746032,0.7733114655086127,0.3305897894080898,0.8820921172082107
809,45.506,45.27,-0.08,0.05010978152310984,0.7439272933020574,0.2080675690961002,0.7734469798794648,0.33101637855773897,0.8804506414763726
810,45.568,45.33,-0.2,0.051230364707749505,0.7442775948628753,0.20814547013606136,0.7735785123272138,0.3314207478359025,0.8787916787811603
811,45.61,45.38,-0.04,0.05235895043516607,0.744634633404951,0.20822249199443854,0.7737061366234077,0.33180283788789317,0.8771160472346093
812,45.672,45.44,0.01,0.05349524624400024,0.7449981776050231,0.20829873166802063,0.7738299263965038,0.33216259504123785,0.8754245663689123
813,45.732,45.49,-0.17,0.05463895536163702,0.7453680010156704,0.20837427892352584,0.7739499551073402,0.3324999716921037,0.8737180569617975
814,45.775,45.55,-0.06,0.05578977687987388,0.7457438821809669,0.20844921651485973,0.7740662960291179,0.33281492669126395,0.8719973408624374
815,45.857,45.6,0.06,0.05694740593244562,0.746125604745061,0.20852362040703296,0.7741790222316123,0.33310742572900554,0.8702632408173087
816,45.898,45.66,-0.05,0.058111533874270774,0.7465129575535223,0.2085975600064188,0.7742882065694507,0.33337744171839134,0.8685165802955916
817,45.96,45.71,-0.1,0.059281848462222925,0.7469057347475254,0.20867109839706668,0.7743939216744387,0.3336249551763026,0.8667581833138742
818,46.02,45.77,0.07,0.060458034037188996,0.7473037358511354,0.20874429258280097,0.7744962399520111,0.333849954601714,0.8649888742599897
819,46.081,45.82,-0.03,0.0616397717072059,0.7477067658520397,0.20881719373486354,0.7745952335818866,0.3340524368506878,0.8632094777157805
820,46.142,45.88,-0.16,0.0628267395315404,0.7481146352759842,0.20888984744488234,0.7746909745228858,0.3342324075075721,0.8614208182784782
821,46.226,45.93,-0.03,0.06401861270563665,0.7485271602549977,0.20896229398292018,0.7747835345217244,0.3343898812518762,0.8596237203802737
822,46.248,45.99,-0.01,0.06521506374691427,0.7489441625892899,0.20903456856032135,0.7748729851254418,0.3345248822202586,0.8578190081055486
823,46.291,46.04,-0.19,0.06641576268143787,0.749365469802529,0.20910670159702716,0.77495939769699,0.334637444362999,0.8560075050052267
824,46.351,46.1,-0.07,0.06762037723146717,0.7497909151901258,0.20917871899294407,0.7750428434334616,0.3347276117942521,0.8541900339077715
825,46.392,46.15,0.04,0.0688285730038589,0.7502203378601678,0.20925064240285698,0.7751233933865004,0.33479543913532267,0.8523674167264585
826,46.434,46.21,-0.06,0.07004001367924807,0.7506535827667652,0.20932248951433732,0.7752011184845226,0.3348409918501621,0.8505404742626738
827,46.518,46.26,-0.08,0.07125436120187559,0.7510905007357703,0.20939427432806879,0.7752760895565309,0.334864346572259,0.8487100260051061
828,46.581,46.32,0.11,0.07247127596987549,0.7515309484830575,0.20946600743999894,0.7753483773574399,0.3348655914221193,0.846876889924746
829,46.602,46.37,0.03,0.07369041702585978,0.7519747886256534,0.20953769632475372,0.7754180525948559,0.3348448263145672,0.8450418822655424
830,46.665,46.43,-0.09,0.07491144224770484,0.7524218896859705,0.20960934561978714,0.7754851859571813,0.3348021632551413,0.8432058173304726
831,46.707,46.48,0.06,0.07613400853950589,0.7528721260892448,0.20968095740973822,0.7755498481427787,0.33473772662489876,0.8413695072626445
832,46.77,46.54,0.09,0.07735777202273698,0.7533253781540981,0.20975253151046871,0.7756121098898038,0.3346516534529805,0.8395337618209516
833,46.833,46.59,-0.08,0.07858238822770057,0.7537815320759746,0.20982406575227208,0.7756720420062105,0.3345440936762962,0.8376993881498039
834,46.896,46.65,0.05,0.07980751228534401,0.7542404799031555,0.20989555626173664,0.775729715399431,0.3344152103856778,0.8358671905426013
835,46.957,46.7,0.14,0.08103279911950237,0.754702119505104,0.20996699774176084,0.7757852011053082,0.33426518005785344,0.8340379701987922
836,46.999,46.76,-0.01,0.08225790363961942,0.7551663545330269,0.21003838374928915,0.7758385703159628,0.33409419277259894,0.8322125249745452
837,47.041,46.81,-0.05,0.08348248093399661,0.7556330943727032,0.21010970697041653,0.775889894406374,0.33390245241443833,0.8303916491272216
838,47.103,46.87,0.12,0.08470618646363991,0.7561022540898175,0.21018095949257587,0.7759392449595637,0.33369017685828667,0.8285761330539054
839,47.164,46.92,0.03,0.0859286762568543,0.7565737543680913,0.2102521330735931,0.7759866937902925,0.33345759813843456,0.82676676302424
840,47.227,46.98,-0.07,0.0871496071048157,0.7570475214404553,0.2103232194074175,0.7760323129670932,0.3332049626002506,0.8249643209077653
841,47.33,47.03,0.11,0.08836863675840329,0.7575234870133616,0.21039421038627815,0.776076174832378,0.3329325310339489,0.8231695838958638
842,47.35,47.09,0.14,0.08958542412659504,0.7580015881841535,0.21046509835893704,0.7761183520202323,0.3326405787897599,0.8213833242183255
843,47.393,47.14,-0.01,0.09079962947672383,0.7584817673512714,0.21053587638464147,0.7761589174714213,0.3323293958738409,0.8196063088545021
844,47.475,47.2,0.15,0.09201091463683461,0.7589639721170398,0.21060653848232402,0.7761979444451441,0.3319992870242819,0.8178392992390509
845,47.496,47.25,0.24,0.09321894320031571,0.7594481551828761,0.21067707987458872,0.7762355065271603,0.33165057176662377,0.816083050962322
846,47.537,47.31,0.09,0.09442338073294095,0.7599342742369148,0.21074749722609856,0.7762716776340277,0.33128358444837736,0.8143383134655473
847,47.6,47.36,0.08,0.09562389498242806,0.7604222918342285,0.21081778887607827,0.776306532013318,0.3308986742521096,0.8126058297311187
848,47.684,47.42,0.26,0.09682015609061019,0.7609121752700199,0.21088795506475916,0.7763401442397772,0.33049620518674944,0.8108863359683571
849,47.704,47.47,0.16,0.09801183680835453,0.7614038964462421,0.21095799815372904,0.7763725892074076,0.33007655605683184,0.8091805612952555
850,47.766,47.53,0.06,0.09919861271340628,0.7618974317320963,0.21102792284024532,0.776403942117363,0.32964012040943264,0.8074892274167232
851,47.847,47.58,0.24,0.1003801624313517,0.7623927618187483,0.21109773636556778,0.7764342784614371,0.329187306458573,0.8058130482998301
852,47.868,47.64,0.23,0.10155616785990496,0.7628898715684617,0.21116744871731805,0.7764636740008455,0.3287185369869152,0.8041527298464254
853,47.931,47.69,0.06,0.10272631439670267,0.7633887498581756,0.21123707282580165,0.7764922047399213,0.3282342492245937,0.8025089695633916
854,47.972,47.75,0.19,0.1038902911707191,0.7638893894174955,0.211306624754127,0.7765199468943804,0.32773489470506406,0.8008824562307126
855,48.055,47.8,0.27,0.1050477912773261,0.7643917866610751,0.21137612388188085,0.7765469768539103,0.3272209390978862,0.7992738695674929
856,48.094,47.86,0.12,0.10619851201695855,0.764895941515446,0.21144559308211616,0.7765733711389382,0.3266928620183937,0.7976838798960728
857,48.156,47.91,0.11,0.1073421551373057,0.7654018572404616,0.21151505889145522,0.7765992063515289,0.32615115681421925,0.7961131478044807
858,48.237,47.97,0.28,0.10847842707895476,0.7659095402456515,0.21158455167319712,0.7766245591204549,0.32559633032867996,0.7945623238075492
859,48.257,48.02,0.22,0.10960703922444076,0.7664189999018792,0.21165410577343682,0.776649506040504,0.32502890264106,0.7930320480071179
860,48.338,48.08,0.14,0.11072770815062938,0.7669302483488071,0.2117237596702688,0.7766741236060969,0.32444940678384915,0.7915229497518247
861,48.421,48.13,0.34,0.1118401558842549,0.7674433002987587,0.21179355611610057,0.7766984881393058,0.3238583884370393,0.7900356472969844
862,48.44,48.19,0.34,0.11294411016032817,0.7679581728376026,0.21186354227300835,0.7767226757123598,0.32325640559965746,0.7885707474649228
863,48.481,48.24,0.18,0.11403930468305054,0.7684748852232032,0.21193376984096204,0.7767467620647182,0.3226440282388073,0.7871288453059709
864,48.542,48.3,0.3,0.11512547938882048,0.7689934586818967,0.21200429517864547,0.7767708225147928,0.3220218379165962,0.7857105237601831
865,48.604,48.35,0.35,0.11620238071093188,0.7695139162033225,0.21207517941656495,0.7767949318664464,0.3213904273954449,0.7843163533197507
866,48.666,48.41,0.16,0.11726976184562346,0.7700362823338555,0.21214648856219978,0.7768191643104124,0.3207504002223614,0.7829468916921146
