,Time_Host,Time_Arduino,easingdata,CH1_Oxy,CH1_Deoxy,CH2_Oxy,CH2_Deoxy,CH3_Oxy,CH3_Deoxy
0,1.277,0.04,0.0,0.259668195205506,0.9094559727574096,0.10482494254838291,0.6018375557297851,0.12937987315002927,0.0
1,1.298,0.1,0.0,0.2543263432322498,0.91304503493954,0.10128163212486616,0.6106868238466094,0.12759722042875007,0.013008832701188636
2,1.319,0.16,0.0,0.24900446203098123,0.9165874655095957,0.09777423338337818,0.6195066701971443,0.12583137650336812,0.025996978452348884
3,1.339,0.21,0.0,0.24370461262759235,0.9200811599478769,0.0943044926234519,0.6282934795814423,0.12408335750544262,0.03895994530025046
4,1.359,0.27,0.0,0.2384288452127683,0.9235240355188141,0.09087413893470045,0.6370436556605111,0.12235417422635028,0.05189328062358577
5,1.381,0.32,0.0,0.23317919794789763,0.9269140329540382,0.08748488313138107,0.6457536237475949,0.12064483139426792,0.06479257502983674
6,1.401,1.06,0.0,0.22795769580114886,0.9302491181122516,0.08413841672136224,0.6544198335607243,0.118956326966982,0.07765346615898193
7,1.442,1.12,0.0,0.2227663494132134,0.9335272836149138,0.08083641090954553,0.663038761934165,0.11728965144149618,0.09047164238830771
8,1.463,1.17,0.0,0.21760715399205924,0.9367465504568021,0.07758051563565212,0.6716069154865083,0.11564578718134526,0.10324284643280641
9,1.526,1.23,0.0,0.2124820882358902,0.9399049695905701,0.07437235864614536,0.6801208332432351,0.11402570776246283,0.11596287883585193
10,1.587,1.28,-0.02,0.20739311328336726,0.9430006234844623,0.07121354459992886,0.6885770892116738,0.11243037733839102,0.12862760134503937
11,1.628,1.34,-0.07,0.20234217169006105,0.9460316276523305,0.06810565420734933,0.6969722949063002,0.11086075002555562,0.14123294016826543
12,1.69,1.39,-0.11,0.19733118643014466,0.9489961321549494,0.06505024340197928,0.7053031018222347,0.10931776930924737,0.1537748891053474
13,1.812,1.45,-0.09,0.19236205992251676,0.951892323071319,0.06204884254465367,0.7135662038545801,0.10780236747081513,0.1662495125508173
14,1.833,1.5,-0.12,0.18743667308071962,0.9547184239383386,0.0591029556592268,0.7217583396610817,0.10631546503637983,0.17865294836407652
15,1.874,1.56,-0.14,0.18255688438603573,0.95747269715715,0.056214059699437886,0.7298762949656686,0.1048579702471385,0.19098141060383014
16,1.937,1.61,-0.06,0.17772452898303492,0.9601534453645656,0.05338360384615257,0.7379169048007101,0.103430778551097,0.20323119212449448
17,1.98,1.67,-0.09,0.1729414177967572,0.9627590127681461,0.05061300883416119,0.7458770556860865,0.10203477211588044,0.2153986670329477
18,2.041,1.72,-0.16,0.16820933667071544,0.9652877864436236,0.04790366630767264,0.7537536877433727,0.1006708193621383,0.22748029300452044
19,2.063,1.78,-0.05,0.16353004552498093,0.9677381975934611,0.045256938203629436,0.7615437967436012,0.09933977451698447,0.2394726134575265
20,2.147,1.83,-0.06,0.15890527753378478,0.9701087227654058,0.042674156161979324,0.7692444360871978,0.09804247718686027,0.25137225958599746
21,2.189,1.89,-0.09,0.15433673832223263,0.97239788502992,0.04015662096204276,0.7768527187148101,0.09677975194914984,0.26317595225067697
22,2.23,1.94,-0.07,0.14982610518180445,0.9746042551154802,0.037705601984081946,0.7843658189479432,0.09555240796183627,0.27488050372869305
23,2.313,2.0,-0.04,0.14537502630434074,0.9767264525008355,0.0353223366951408,0.7917809742585196,0.09436123859047832,0.2864828193225787
24,2.352,2.05,-0.06,0.14098512003427158,0.9787631464633684,0.03300803015822683,0.7990954869666077,0.09320702105178642,0.2979798988295108
25,2.393,2.11,-0.07,0.13665797413886044,0.9807130570827692,0.03076385456391562,0.8063067258656612,0.0920905160730512,0.30936883787186653
26,2.454,2.16,0.02,0.13239514509618405,0.9825749561993611,0.028590948783454202,0.8134121277747688,0.09101246756664616,0.320646829090443
27,2.536,2.22,-0.01,0.1281981574005309,0.9843476683265355,0.026490417942432988,0.8204091990175743,0.08997360231881084,0.3318111632019151
28,2.577,2.27,-0.06,0.12406850288492272,0.9860300715168194,0.024463333014097314,0.8272955168276629,0.08897462969192889,0.3428592299223029
29,2.658,2.33,0.05,0.12000764006056219,0.9876210981811482,0.022510730431389937,0.8340687306803061,0.08801624133955904,0.3537885187583799
30,2.699,2.38,0.04,0.1160169934731719,0.9891197358609726,0.020633611716872946,0.8407265635505127,0.08709911093352574,0.36459661966911244
31,2.74,2.44,0.0,0.11209795307632446,0.9905250279529322,0.018832943129739665,0.8472668130973624,0.08622389390240998,0.37528122359941396
32,2.782,2.49,0.04,0.10825187362187898,0.9918360743860303,0.017109655329152578,0.8536873527746978,0.08539122718082065,0.3858401228886691
33,2.883,2.55,0.05,0.10448007406762833,0.9930520322514467,0.015464643053161847,0.8599861328683379,0.0846017289688849,0.3962712115565722
34,2.904,2.6,0.03,0.1007838370023221,0.99417211638521,0.013898764812506776,0.8661611814600007,0.08385599850144433,0.40657248546889535
35,2.946,2.66,0.01,0.09716440808829382,0.995195599904002,0.012412842598654116,0.8722106053181384,0.083154615826463,0.4167420423859246
36,3.009,2.71,0.09,0.09362299552192731,0.9961218146944495,0.011007661605460847,0.8781325907160143,0.08249814159216,0.42677808189645045
37,3.071,2.77,0.06,0.09016076951218682,0.9969501518563271,0.009683969963876105,0.883925404177475,0.0818871168423837,0.4366789052403349
38,3.134,2.82,0.0,0.08677886177744766,0.9976800621000861,0.008442478489120728,0.8895873931509909,0.08132206281975145,0.4464429150228018
39,3.175,2.88,0.11,0.08347836506093376,0.9983110560990794,0.007283860439815691,0.8951169866125976,0.0808034807761023,0.45606861482370065
40,3.257,2.93,0.09,0.08026033266522764,0.9988427047967453,0.006208751288599025,0.9005126955983674,0.08033185178984416,0.4655546087050892
41,3.278,2.99,0.06,0.07712577800649252,0.9992746396689267,0.005217748503846455,0.9057731136670435,0.07990763658980514,0.47489960062063385
42,3.34,3.04,0.1,0.07407567418913943,0.9996065529415211,0.004311411342155516,0.9108969172935647,0.07953127538523962,0.48410239373046116
43,3.401,3.1,0.12,0.07111095360174416,0.9998381977637024,0.003490260651297335,0.9158828661943353,0.07920318770170591,0.49316188962515645
44,3.442,3.15,0.1,0.06823250753513428,0.9999693883369353,0.0027547786834201298,0.9207298035851297,0.0789237722226003,0.5020770874626233
45,3.503,3.21,0.07,0.06544118582364207,1.0,0.002105408918370308,0.9254366563725546,0.07869340663618722,0.5108470830215421
46,3.566,3.26,0.15,0.06273779651050354,0.9999299692703187,0.001542555897050743,0.9300024352801095,0.07851244748801842,0.5194710676751577
47,3.648,3.32,0.11,0.0601231055383218,0.999759293841952,0.001066585064772754,0.9344262349100358,0.07838123003868032,0.5279483272891095
48,3.668,3.37,0.05,0.057597836465438236,0.9994880325406659,0.000677822624590274,0.9387072337422488,0.07830006812684394,0.5362782410469832
49,3.73,3.43,0.16,0.055162670208983605,0.9991163052364564,0.0003765554006513061,0.9428446940716584,0.07826925403762515,0.5444602802072268
50,3.791,3.48,0.14,0.05281824481535514,0.9986442927138447,0.00016303071168481895,0.9468379618850862,0.07828905837629214,0.552494006795041
51,3.833,3.54,0.1,0.050565155258845126,0.9980722365002042,3.745625482392104e-05,0.9506864666788947,0.07835972994737436,0.5603790722328789
52,3.894,3.59,0.14,0.04840395326907116,0.9974004386524241,0.0,0.9543897212184788,0.07848149563926222,0.5681152159131869
53,3.995,3.65,0.15,0.04633514718780125,0.9966292615022793,5.079009515530393e-05,0.9579473212409195,0.07865456031445706,0.5757022637169211
54,4.037,3.7,0.13,0.044359201855781294,0.9957591273608678,0.00018991478256040104,0.9613589451021474,0.07887910670570378,0.5831401264812388
55,4.058,3.76,0.1,0.04247653853015406,0.9947905181824719,0.0004174223265759976,0.9646243533699721,0.07915529531829336,0.5904287984196623
56,4.1,3.81,0.17,0.04068753483292065,0.9937239751882487,0.0007333209532464595,0.9677433883643052,0.07948326433886937,0.5975683554979273
57,4.161,3.87,0.12,0.038992524730698995,0.9925600984502279,0.0011375788021574054,0.9707159736458535,0.07986312955110977,0.6045589537686481
58,4.223,3.92,0.05,0.03739179854585557,0.9912995464360802,0.0016301238910270482,0.9735421134544595,0.08029498425867584,0.6114008276678674
59,4.285,3.98,0.16,0.03588560299898136,0.9899430355150278,0.002210844093536774,0.9762218920981386,0.08077889921582823,0.618094288276486
60,4.366,4.03,0.13,0.03447414128266476,0.9884913394250935,0.002879587130964291,0.9787554732936596,0.08131492256610279,0.6246397215495274
61,4.407,4.09,0.09,0.0331575731664946,0.9869452887017286,0.0036361605782413305,0.9811430994593203,0.08190307978941494,0.6310375865161962
62,4.428,4.14,0.13,0.03193601513312518,0.985305770067836,0.0044803318850846945,0.9833850909604497,0.08254337365795097,0.6372884134536719
63,4.489,4.2,0.15,0.030809540545135627,0.9835737257852442,0.005411828412868314,0.9854818453081242,0.08323578420123157,0.6433928020374934
64,4.552,4.25,0.12,0.029778179842398923,0.9817501529676727,0.006430337487937441,0.9874338363115095,0.0839802686807688,0.6493514194712782
65,4.614,4.31,0.09,0.028841920769668336,0.9798361028552178,0.007535506472084062,0.9892416131842291,0.0847767615747678,0.6551649985984394
66,4.675,4.36,0.17,0.0280007086340279,0.9778326800504288,0.008726942850890658,0.9909057996052534,0.08562517457335496,0.660834335998487
67,4.737,4.42,0.11,0.027254446591778152,0.9757410417160762,0.010004214340632837,0.9924270927349026,0.08652539658483789,0.6663602900704135
68,4.778,4.47,0.03,0.02660299596427639,0.9735623967346813,0.011366849014418057,0.993806262186597,0.08747729375350957,0.671743779105575
69,4.839,4.53,0.13,0.026046176582250335,0.9712980048297336,0.012814335448229172,0.995044148954972,0.08848070948950772,0.6769857793523746
70,4.88,4.58,0.11,0.02558376715816717,0.9689491756482881,0.014346122887541918,0.9961416643009171,0.08953546451121237,0.682087323074962
71,4.942,4.64,0.07,0.025215505686264638,0.9665172678044276,0.015961621435160098,0.9970997885940647,0.0906413569006038,0.6870494966081507
72,5.004,4.69,0.09,0.02494108986974622,0.9640036878830135,0.017660202260840377,0.9979195701133047,0.09179816217194463,0.6918734384107162
73,5.106,4.75,0.11,0.024760177574497833,0.961409889403195,0.019441197833209804,0.99860212380597,0.09300563335413474,0.6965603371191443
74,5.126,4.8,0.09,0.024672387308602543,0.9587373717411838,0.02130390217445487,0.999148630006304,0.09426350108709125,0.7011114296037475
75,5.147,4.86,0.06,0.024677298726860968,0.955987679011888,0.023247571138247106,0.9995603331138173,0.09557147373250331,0.7055279990289731
76,5.21,4.91,0.15,0.02477445315942397,0.9531623989091754,0.02527142271134426,0.9998385402321903,0.09692923749930817,0.7098113729196271
77,5.274,4.97,0.1,0.02496335416356184,0.9502631615047158,0.027374637339289864,0.9999846197694331,0.09833645658423344,0.7139629212346398
78,5.357,5.02,0.02,0.025243468097554376,0.9472916380054757,0.029556358276631698,1.0,0.09979277332774857,0.7179840544498849
79,5.378,5.08,0.11,0.025614224715691258,0.9442495394700086,0.03181569196208631,0.999886167589516,0.10129780838577239,0.7218762216514393
80,5.483,5.13,0.08,0.026075017783428273,0.9411386154836741,0.034151708419093055,0.999644666082679,0.10285116091747357,0.7256409086405369
81,5.505,5.19,0.05,0.026625205711771304,0.9379606527929093,0.036563441682186004,0.9992770943548445,0.10445240878945072,0.7292796360514155
82,5.546,5.24,0.07,0.02726411220987362,0.934717473898757,0.039049890249532246,0.9987851050278465,0.1061011087965153,0.7327939574832155
83,5.586,5.3,0.08,0.027991026954716253,0.9314109356099708,0.041610017561887105,0.9981704028506824,0.10779679689925407,0.7361854576470126
84,5.647,5.35,0.05,0.028805206276706005,0.9280429275560921,0.044242752508145244,0.9974347430456962,0.10953898847850732,0.7394557505289836
85,5.729,5.41,0.03,0.0297058738600324,0.9246153706609861,0.04694698995760213,0.9965799296208883,0.11132717860685304,0.7426064775706718
86,5.749,5.46,0.12,0.030692221456624966,0.9211302155775051,0.049721591318968784,0.9956078136490741,0.11316084233714124,0.7456393058672963
87,5.83,5.52,0.07,0.031763409612566074,0.9175894410841618,0.05256538512612799,0.994520291514692,0.11503943500808297,0.7485559263850327
88,5.893,5.57,0.0,0.0329185684058435,0.9139950524448669,0.0554771676505823,0.9933193031291258,0.11696239256686083,0.7513580521981319
89,5.913,5.63,0.09,0.03415679819436772,0.9103490797329183,0.058455703540521535,0.9920068301154287,0.11892913190870825,0.7540474167466653
90,5.973,5.68,0.07,0.035477170373257934,0.906653576120477,0.06149972648643853,0.9905848939633005,0.12093905123337888,0.7566257721155855
91,6.036,5.74,0.03,0.03687872814045684,0.902910616134793,0.06460793991321064,0.9890555541551437,0.12299153041837359,0.759094887335771
92,6.097,5.79,0.04,0.038360487269683774,0.8991222938825443,0.06777901769849304,0.987420906264082,0.12508593140872917,0.7614565467077142
93,6.218,5.85,0.08,0.03992143688964482,0.8952907212437745,0.07101160491716703,0.9856830800249473,0.12722159862311944,0.763712548148466
94,6.239,5.9,0.05,0.04156054026837932,0.8914180260369784,0.07430431861149356,0.9838442373793083,0.12939785937596632,0.7658647015624083
95,6.26,5.96,0.03,0.04327673560159767,0.8875063501569523,0.07765574858651633,0.9819065704957771,0.13161402431519667,0.7679148272364312
96,6.321,6.01,0.13,0.045068936803821825,0.883557847687175,0.08106445823012609,0.979872299767152,0.13386938787522923,0.7698647542601113
97,6.361,6.07,0.08,0.046936034301126965,0.87957468298865,0.08452898535707162,0.9777436717863522,0.1361632287447418,0.771716318971483
98,6.422,6.12,0.03,0.048876895824305294,0.8755590287672982,0.0880478430761106,0.9755229573034284,0.13849481034874958,0.7734713634289555
99,6.484,6.18,0.12,0.05089036720131463,0.8715130641221251,0.0916195206794394,0.9732124491661326,0.14086338134452506,0.7751317339098329
100,6.606,6.23,0.1,0.05297527314795276,0.8674389725765079,0.09524248455352842,0.970814460246648,0.14326817613089324,0.7766992794357828
101,6.627,6.29,0.06,0.05513041805576254,0.8633389400950296,0.09891517911047977,0.9683313213571182,0.14570841537041587,0.7781758503255218
102,6.648,6.34,0.08,0.05735458677614301,0.859215153088458,0.10263602773897497,0.9657653791567243,0.14818330652394177,0.7795632967749505
103,6.689,6.4,0.12,0.05964654539957589,0.8550697964096304,0.10640343377382182,0.9631189940531714,0.15069204439697442,0.7808634674648848
104,6.75,6.45,0.1,0.06200504202886468,0.8509050513431241,0.1102157814830861,0.9603945381014686,0.1532338116972747,0.7820782081964698
105,6.812,6.51,0.08,0.0644288075452927,0.8467230935916726,0.11407143707178775,0.9575943929028591,0.1558077796030722,0.7832093605543371
106,6.874,6.56,0.18,0.06691655636661455,0.8425260912624165,0.11796874970113248,0.9547209475067452,0.15841310834122452,0.7842587605975688
107,6.934,6.62,0.13,0.06946698719585077,0.8383162028561925,0.12190605252224779,0.9517765963184611,0.16104894777464704,0.7852282375785118
108,6.976,6.67,0.09,0.07207878375996067,0.8340955752631543,0.12588166372339346,0.9487637370157549,0.16371443799833463,0.786119612689463
109,7.038,6.73,0.18,0.07475061553760035,0.8298663417680985,0.12989388758961082,0.9456847684768982,0.16640870994330692,0.7869346978372053
110,7.1,6.78,0.16,0.07748113847534427,0.8256306200689086,0.13394101557378074,0.9425420887233996,0.16913088598782194,0.7876752944453317
111,7.182,6.84,0.13,0.08026899569189055,0.8213905103115408,0.1380213273780564,0.9393380928803504,0.17188008057518697,0.7883431922843057
112,7.203,6.89,0.13,0.08311281816978008,0.8171480931450873,0.14213309204459798,0.9360751711575597,0.1746554008374763,0.7889401683292212
113,7.245,6.95,0.18,0.0860112254340893,0.8129054278006297,0.14627456905449798,0.9327557068547635,0.1774559472244518,0.7894679856452127
114,7.327,7.0,0.15,0.0889628262175273,0.8086645501977163,0.1504440094337968,0.929382074394212,0.1802808141369537,0.7899283923004714
115,7.347,7.06,0.14,0.09196621911139577,0.8044274710823349,0.15463965686553635,0.9259566373838343,0.183129090563969,0.7903231203069082
116,7.409,7.11,0.25,0.09501999320193526,0.800196174200214,0.15885974880684328,0.9224817467140427,0.1859998607225332,0.7906538845885995
117,7.47,7.17,0.21,0.09812272869169981,0.7959726145091912,0.1631025176100729,0.9189597386910507,0.18889220469959722,0.7909223819782096
118,7.532,7.22,0.17,0.10127299750574707,0.7917587164342634,0.167366191647071,0.9153929332094061,0.1918051990950035,0.7911302902416025
119,7.575,7.28,0.25,0.10446936388257952,0.7875563721688644,0.17164899643562107,0.9117836319663375,0.19473791766475607,0.7912792671308272
120,7.678,7.33,0.25,0.10771038494996112,0.7833674400258117,0.17594915576718517,0.90813411672041,0.1976894319638156,0.7913709494656282
121,7.699,7.39,0.22,0.1109946112859246,0.779193742841218,0.18026489283508854,0.9044466475968513,0.20065881198765972,0.7914069522436711
122,7.739,7.44,0.23,0.1143205874653816,0.7750370664345123,0.18459443136230774,0.9007234614418572,0.20364512681184604,0.7913888677797578
123,7.821,7.5,0.27,0.1176868525927708,0.7708991581276111,0.1889359967280103,0.8969667702281535,0.20664744522882086,0.7913182648743925
124,7.862,7.55,0.25,0.1210919408212084,0.7667817253261102,0.19328781709199686,0.8931787595140174,0.20966483638121594,0.7911966880121307
125,7.923,7.61,0.23,0.12453438185862493,0.7626864341651953,0.19764812451619715,0.8893615869578605,0.2126963703908596,0.7910256565902635
126,7.963,7.66,0.35,0.12801270146135593,0.7586149082227776,0.2020151560823506,0.885517380890394,0.2157411189827052,0.7908066641784853
127,8.045,7.72,0.31,0.131525421915631,0.7545687273021614,0.20638715500496796,0.881648238946335,0.21879815610287445,0.7905411778102607
128,8.066,7.77,0.27,0.1350710625073722,0.7505494262863723,0.2107623717386305,0.8777562267575453,0.2218665585300265,0.7902306373066177
129,8.126,7.83,0.35,0.13864813998069367,0.7465584940661341,0.21513906507865066,0.8738433767094416,0.22494540647931582,0.7898764546330808
130,8.189,7.88,0.36,0.14225516898557763,0.7425973725432916,0.21951550325413433,0.8699116867623926,0.22803378419826362,0.7894800132904185
131,8.228,7.94,0.34,0.14589066251536878,0.738667455711181,0.223889965012532,0.8659631193396017,0.23113078055390837,0.7890426677399075
132,8.291,7.99,0.35,0.149553132334846,0.7347700888131476,0.22826074069478888,0.8619996002827837,0.2342354896106264,0.7885657428638977
133,8.375,8.05,0.42,0.15324108939968797,0.7309065675801808,0.2326261333002249,0.8580230178767911,0.23734701119804882,0.7880505334625086
134,8.435,8.1,0.38,0.15695304426821324,0.7270781375483726,0.23698445954032427,0.8540352219441799,0.2404644514685456,0.7874983037873053
135,8.456,8.16,0.33,0.1606875075063306,0.7232859934566644,0.24133405088068838,0.8500380230105069,0.24358692344378347,0.7869102871127891
136,8.517,8.21,0.45,0.16444299008663213,0.7195312787250934,0.24567325457047468,0.8460331915409782,0.24671354754989888,0.7862876853465112
137,8.558,8.27,0.42,0.16821800378250024,0.7158150850135384,0.250000434658695,0.8420224572488864,0.24984345214084916,0.7856316686785606
138,8.619,8.32,0.39,0.17201106155797308,0.7121384518607922,0.25431397299676656,0.8380075084761335,0.252975774009511,0.7849433752711624
139,8.68,8.38,0.46,0.1758206779539706,0.7085023664036865,0.25861227022669075,0.833989991646071,0.25610965888611203,0.7842239109890846
140,8.782,8.43,0.45,0.17964536947145376,0.704907763175849,0.26289374675423793,0.8299715107887796,0.2592442619236207,0.7834743491714722
141,8.803,8.49,0.46,0.1834836549521814,0.7013555239854157,0.26715684370655296,0.825953627138715,0.2623787481697549,0.7826957304456537
142,8.864,8.54,0.46,0.18733405595780486,0.6978464778707842,0.2714000238736277,0.8219378588044275,0.2655122930253019,0.7818890625834277
143,8.885,8.6,0.52,0.19119509714806351,0.6943814011333259,0.2756217726331139,0.8179256805098601,0.2686440826884824,0.7810553204002996
144,8.947,8.65,0.48,0.19506530665889515,0.6909610174458256,0.279820598857998,0.8139185234065196,0.2717733145851416,0.7801954456980825
145,9.008,8.71,0.43,0.19894321648133453,0.6875859980352576,0.28399503580670227,0.8099177749556217,0.2748991977845915,0.7793103472512223
146,9.132,8.76,0.55,0.2028273628421026,0.6842569619383716,0.28814364199516923,0.8059247788791897,0.27802095340096405,0.7784009008371492
147,9.173,8.82,0.5,0.2067162865867756,0.6809744763284328,0.2922650020504631,0.8019408351790168,0.2811378149799437,0.777467949310925
148,9.194,8.87,0.46,0.21060853356634227,0.6777390569113505,0.2963577275453715,0.7979672002223634,0.28424902887073195,0.7765123027244497
149,9.235,8.93,0.53,0.21450265502780652,0.6745511683893959,0.3004204578134373,0.7940050868932997,0.2873538545830891,0.7755347384904275
150,9.296,8.98,0.55,0.21839720800938883,0.6714112249906101,0.3044518607438266,0.7900556648085763,0.2904515651293087,0.7745360015911552
151,9.357,9.04,0.55,0.2222907557408666,0.6683195910618247,0.3084506335554579,0.7861200605967881,0.2935414473509792,0.7735168048320461
152,9.398,9.09,0.54,0.22618186804959634,0.6652765817230383,0.3124155035498313,0.7821993582394392,0.29662280223039783,0.7724778291396919
153,9.439,9.15,0.61,0.2300691217727613,0.6622824635807879,0.3163452288420127,0.7782945994723952,0.2996949451865401,0.771419723904147
154,9.502,9.2,0.57,0.23395110117644355,0.6593374554980737,0.3202385990692825,0.7744067842460637,0.3027572063555531,0.7703431073649795
155,9.565,9.26,0.52,0.23782639838220795,0.6564417294182775,0.3240944360770202,0.7705368712424802,0.3058089308557957,0.7692485670405045
156,9.626,9.31,0.64,0.24169361380196233,0.653595411240415,0.3279115945814473,0.7666857784473463,0.3088494790374905,0.7681366601995036
157,9.687,9.37,0.6,0.24555135658191504,0.650798581742926,0.33168896280888255,0.7628543837749406,0.3118782267170654,0.7670079143746426
158,9.729,9.42,0.56,0.2493982450564298,0.6480512775531284,0.33542546311117744,0.7590435257437089,0.31489456539625316,0.765862827916753
159,9.79,9.48,0.62,0.2532329072124583,0.645353492159428,0.33912005255698774,0.7552540042002763,0.31789790246602007,0.7647018705890323
160,9.873,9.53,0.63,0.25705398116511463,0.6427051769633582,0.342771723498546,0.7514865810895351,0.3208876613954134,0.7635254842000111
161,9.893,9.59,0.63,0.26086011564491607,0.6401062423683791,0.3463795041136414,0.747741981268268,0.3238632819054372,0.7623340832739044
162,9.956,9.64,0.62,0.26464997049717714,0.6375565589022483,0.3499424589225401,0.7440208933595577,0.32682422012806744,0.7611280557567786
163,9.997,9.7,0.7,0.26842221719400383,0.635055958369684,0.3534596892796041,0.7403239706450541,0.329769948750547,0.7599077637568225
164,10.06,9.75,0.66,0.27217553935934774,0.6326042350319757,0.3569303338394057,0.7366518319919801,0.3326999571451355,0.7586735443168868
165,10.123,9.81,0.61,0.27590863330764964,0.6302011468100926,0.36035356899720095,0.73300506281156,0.3356137514845352,0.757425710217384
166,10.185,9.86,0.73,0.27962020859667974,0.6278464165077409,0.36372860930369205,0.7293842160453462,0.33851085484325666,0.7561645508075765
167,10.247,9.92,0.69,0.2833089885952558,0.6255397330507227,0.3670547078540874,0.7257898131757052,0.3413908072852213,0.7548903328632446
168,10.267,9.97,0.66,0.28697371106651715,0.6232807527389171,0.3703311566515249,0.7222223452565338,0.3442531659379036,0.7536033014687387
169,10.328,10.03,0.7,0.2906131287672943,0.6210691005073082,0.37355728694493356,0.7186822739602489,0.3470975050533262,0.7523036809214138
170,10.368,10.08,0.71,0.29422601006392596,0.6189043711926254,0.3767324695414117,0.7151700326371102,0.3499234160562468,0.7509916756563676
171,10.43,10.14,0.7,0.29781113956473165,0.6167861308022131,0.3798561150932274,0.7116860273828947,0.35273050757989255,0.7496674711892957
172,10.492,10.19,0.69,0.3013673187691663,0.6147139177817905,0.3829276743595502,0.7082306381109204,0.3555184054895904,0.7483312350752022
173,10.533,10.25,0.78,0.3048933667334446,0.6126872442788842,0.38594663844297544,0.7048042196245122,0.3582867528946459,0.7469831178806178
174,10.615,10.3,0.75,0.30838812075217836,0.6107055973988716,0.38891253900083855,0.7014071026861449,0.3610352101488255,0.7456232541668903
175,10.655,10.36,0.67,0.3118504370553716,0.6087684404507195,0.39182494843125537,0.6980395950796454,0.3637634548398172,0.7442517634820398
176,10.719,10.41,0.77,0.31527919151998507,0.6068752141796232,0.39468348003378084,0.6947019826619757,0.3664711817680741,0.7428687513585971
177,10.781,10.47,0.76,0.3186732803952186,0.6050253379838381,0.3974877881445526,0.69139453040123,0.3691581029154696,0.7414743103148093
178,10.822,10.52,0.73,0.32203162104057814,0.6032182111131132,0.40023756824575013,0.6881174833976238,0.37182394740417934,0.7400685208566253
179,10.883,10.58,0.75,0.3253531526755967,0.6014532138463557,0.40293255704909997,0.6848710678845022,0.3744684614461792,0.7386514524779452
180,11.005,10.63,0.77,0.32863683713986114,0.5997297086464194,0.4055725325530501,0.6816554922066952,0.3770914082837479,0.7372231646566153
181,11.025,10.69,0.74,0.3318816596618556,0.598047041290077,0.40815731407317446,0.6784709477737835,0.37969256812137003,0.7357837078436393
182,11.045,10.74,0.72,0.3350866296349996,0.5964045419713889,0.4106867622453146,0.67531760998609,0.38227173804941766,0.734333124443099
183,11.086,10.8,0.81,0.3382507813990512,0.5948015263769174,0.4131607790008943,0.6721956391315552,0.38482873195995715,0.7328714497803274
184,11.147,10.85,0.77,0.3413731750248064,0.5932372967314992,0.41557930751376543,0.6691051812520131,0.38736338045497887,0.731398713055922
185,11.209,10.91,0.71,0.3444528970997863,0.5917111428135123,0.41794233211788623,0.6660463689776759,0.3898755307473076,0.7299149382832067
186,11.25,10.96,0.79,0.347489061512426,0.590222342938776,0.4202498781951123,0.6630193223288592,0.39236504655443705,0.7284201452067603
187,11.353,11.02,0.79,0.35048081023220423,0.5887701649123747,0.4225020120324097,0.6600241494841358,0.39483180798551737,0.7269143501996556
188,11.373,11.07,0.76,0.35342731408310263,0.5873538669478952,0.4246988406478396,0.6570609475142787,0.39727571142168827,0.7253975671372114
189,11.413,11.13,0.77,0.35632777350766043,0.5859726985538737,0.426840511584661,0.6541298030816365,0.39969666938990095,0.7238698082452735
190,11.494,11.18,0.82,0.3591814193187657,0.5846259013876077,0.42892721267288875,0.6512307931049264,0.40209461043034644,0.7223310849212228
191,11.537,11.24,0.78,0.3619875134362943,0.5833127100767265,0.4309591717576513,0.6483639853896981,0.40446947895759394,0.7207814085260612
192,11.598,11.29,0.75,0.36474534960574456,0.5820323530090648,0.43293665639372725,0.6455294392249319,0.40682123511552504,0.7192207911461107
193,11.64,11.35,0.84,0.36745425409604177,0.5807840530915067,0.4348599735056504,0.642727205946452,0.40914985462611825,0.7176492463230476
194,11.721,11.4,0.78,0.3701135863737276,0.5795670284785445,0.4367294690128066,0.6399573294680165,0.4114553286321083,0.716066789751167
195,11.763,11.46,0.72,0.3727227397507563,0.5783804932713682,0.4385455274189807,0.6372198467810707,0.41373766353349384,0.7144734399409165
196,11.824,11.51,0.81,0.3752811420031034,0.5772236581883896,0.4403085713658535,0.6345147884242671,0.4159968808178166,0.7128692188478729
197,11.906,11.57,0.8,0.37778825595740645,0.5760957312081547,0.4420190611500101,0.6318421789239335,0.4182330168840703,0.7112541524664762
198,11.927,11.62,0.79,0.3802435800429038,0.5749959181856217,0.4436774942030834,0.6292020372067231,0.42044612285999683,0.7096282713880646
199,11.968,11.68,0.8,0.38264664880594623,0.5739234234428566,0.44528440453469526,0.6265943769857673,0.42263626441244573,0.7079916113230245
200,12.071,11.73,0.86,0.38499703338437896,0.5728774503353483,0.4468403621379053,0.6240192071217397,0.4248035215504276,0.7063442135870974
201,12.092,11.79,0.84,0.3872943419392028,0.5718572017952457,0.44834597235696766,0.6214765319602329,0.4269479884204865,0.7046861255520949
202,12.154,11.84,0.81,0.38953822004111627,0.5708618808528494,0.4498018752173217,0.6189663516467785,0.42906977309401906,0.7030174010614779
203,12.196,11.9,0.92,0.39172835100976006,0.5698906911376722,0.45120874471786326,0.6164886624207653,0.43116899734619274,0.7013381008114491
204,12.279,11.95,0.88,0.3938644562037194,0.5689428373603217,0.452567288085667,0.6140434568894503,0.4332457964261423,0.6996482926983273
205,12.3,12.01,0.83,0.39594629525952646,0.5680175257764134,0.453878244993437,0.6116307242832272,0.4353003188181547,0.697948052133093
206,12.362,12.06,0.89,0.3979736662780293,0.5671139646337324,0.4551423867400577,0.6092504506933362,0.43733272599357653,0.696237462324066
207,12.445,12.12,0.88,0.3999464059566483,0.5662313646038204,0.4563605153947306,0.606902619293147,0.439343192153196,0.6945166145287248
208,12.465,12.17,0.89,0.40186438966623034,0.5653689391990301,0.4575334629053124,0.6045872105439697,0.4413319039598241,0.6927856082757595
209,12.528,12.23,0.89,0.40372753147134893,0.564525905175943,0.45866209017157034,0.6023042023861678,0.44329906026075505,0.6910445515585754
210,12.568,12.28,0.97,0.4055357840929914,0.5637014829259599,0.4597472860841488,0.600053570416242,0.4452448717997447,0.6892935610015474
211,12.63,12.34,0.94,0.40728913881273665,0.5628948968537877,0.4607899665301294,0.597835288050459,0.4471695609181425,0.6875327620003605
212,12.691,12.39,0.89,0.40898762531776445,0.5621053757444645,0.4617910733661744,0.5956493266755295,0.4490733612448302,0.685762288837771
213,12.732,12.45,1.04,0.410631311486323,0.5613321531194886,0.4627515733603345,0.5934956557868096,0.45095651737467096,0.6839822847761176
214,12.814,12.5,1.0,0.41222030311359725,0.5605744675825428,0.4636724571036958,0.591374243114459,0.4528192845352182,0.6821929021279173
215,12.874,12.56,0.97,0.41375474357821806,0.55983156315525,0.4645547378931223,0.5892850547379607,0.4546619282414901,0.6803943023059452
216,12.936,12.61,1.03,0.41523481344990804,0.5591026896033807,0.4653994505864168,0.5872280551894393,0.45648472393867917,0.6785866558542017
217,12.956,12.67,1.04,0.4166607300390546,0.558387102753884,0.4662076504313209,0.5852032075461752,0.4582879566327537,0.6767701424610862
218,13.039,12.72,1.02,0.4180327468893598,0.5576840648029282,0.4669804118699201,0.5832104735125462,0.4600719205089781,0.674944950955992
219,13.06,12.78,1.01,0.4193511532150286,0.556992844614966,0.4677188273201521,0.5812498134914071,0.4618369185384226,0.6731112792904642
220,13.121,12.83,1.09,0.42061627328419937,0.556312718012713,0.46842400593622796,0.5793211866447426,0.46358326207257416,0.6712693345050075
221,13.182,12.89,1.05,0.4218284657505416,0.5556429680578305,0.4690970723498981,0.5774245509432748,0.4653112704261944,0.6694193326825689
222,13.244,12.94,1.0,0.42298812293513277,0.5549828853219966,0.46973916539459787,0.5755598632045542,0.46702127044860037,0.667561498889678
223,13.285,13.0,1.13,0.4240956700608914,0.5543317681479346,0.47035143681459596,0.5737270791189455,0.4687135960835672,0.6656960671061604
224,13.347,13.05,1.1,0.42515156444202445,0.5536889228998476,0.4709350499613315,0.5719261532628077,0.4703885879180848,0.6638232801443074
225,13.409,13.11,1.09,0.42615629463113414,0.5530536642026302,0.4714911784791725,0.5701570390981293,0.47204659272022537,0.6619433895583862
226,13.449,13.16,1.14,0.4271103795267509,0.5524253151692705,0.47202100498283683,0.5684196889579606,0.47368796296643984,0.6600566555453755
227,13.531,13.22,1.16,0.42801436744421323,0.5518032076159225,0.4725257197287441,0.5667140540170917,0.475313056358695,0.6581633468377199
228,13.592,13.27,1.15,0.4288688351530232,0.5511866822641035,0.4730065192826319,0.565040084247446,0.4769222353319723,0.6562637405887707
229,13.632,13.33,1.13,0.4296743868839639,0.5505750889294634,0.4734646051858243,0.5633977283576579,0.4785158665527413,0.6543581222514917
230,13.694,13.38,1.21,0.4304316533092875,0.5499677866966755,0.4739011826225597,0.5617869337163983,0.48009432040911637,0.6524467854509293
231,13.755,13.44,1.17,0.4311412904992292,0.5493641440801492,0.4743174590907832,0.5602076462591178,0.48165797049348436,0.6505300318508865
232,13.797,13.49,1.09,0.43180397885801647,0.5487635391703946,0.4747146430787996,0.5586598103779487,0.48320719307845106,0.6486081710152001
233,13.899,13.55,1.19,0.43242042204245773,0.5481653597659564,0.4750939427501653,0.5571433687945448,0.4847423665870017,0.6466815202639724
234,13.92,13.6,1.18,0.4329913458661457,0.5475690034908651,0.47545656463917585,0.5556582624156257,0.48626387105779123,0.6447504045250708
235,13.94,13.66,1.18,0.4335174971922096,0.5469738778975669,0.47580371235924795,0.5542044301710086,0.4877720876064611,0.6428151561812311
236,14.0,13.71,1.19,0.43399964281734676,0.5463794005554001,0.47613658532636777,0.5527818088340805,0.48926739788386914,0.6408761149131212
237,14.083,13.77,1.23,0.43443856834963773,0.545784999124822,0.47645637749962827,0.5513903328248501,0.4907501835321517,0.6389336275386535
238,14.124,13.82,1.19,0.4348350770825322,0.5451901114176806,0.4767642761407713,0.5500299339958576,0.4922208256396172,0.6369880478487346
239,14.206,13.88,1.17,0.43518998886732735,0.5445941854439305,0.47706146059455645,0.5487005414013166,0.49367970419554175,0.6350397364396072
240,14.227,13.93,1.27,0.4355041389863957,0.5439966794453533,0.4773491010916684,0.547402081050041,0.49512719754599643,0.6330890605419333
241,14.289,13.99,1.21,0.43577837702937505,0.5433970619170099,0.47762835757578725,0.5461344756429015,0.4965636818518738,0.6311363938467756
242,14.37,14.04,1.15,0.4360135657744948,0.5427948116172714,0.4779003785563655,0.5448976442957132,0.49798953055030265,0.6291821163286101
243,14.39,14.1,1.22,0.4362105800771694,0.542189417567396,0.4781662999885875,0.5436915022486001,0.4994051138206693,0.6272266140654504
244,14.451,14.15,1.2,0.43637030576796976,0.5415803790416657,0.4784272441819364,0.5425159605629845,0.500810798056477,0.6252702790560949
245,14.493,14.21,1.16,0.43649363856204865,0.54096720554912,0.47868431873872974,0.5413709258074489,0.50220694534425,0.6233135090345017
246,14.556,14.26,1.14,0.4365814829819523,0.5403494168079876,0.47893861552386063,0.5402562997339113,0.5035939129506377,0.6213567072813357
247,14.657,14.32,1.19,0.43663475129554835,0.539726542714024,0.47919120966683093,0.5391719789457814,0.5049720528188257,0.6194002824327607
248,14.678,14.37,1.15,0.4366543624706257,0.5390981233040056,0.4794431585970512,0.5381178545598737,0.5063417110753003,0.6174446482865996
249,14.718,14.43,1.1,0.4366412411475938,0.538463708715576,0.4796955011132976,0.5370938118638181,0.5077032275479276,0.6154902236060685
250,14.779,14.48,1.21,0.4365963166315855,0.5378228591445327,0.47994925648813264,0.5360997299706374,0.5090569352962283,0.6135374319213717
251,14.841,14.54,1.15,0.43652052190519314,0.53717514480051,0.480205423608016,0.5351354814720498,0.5104031601546606,0.6115867013295001
252,14.923,14.59,1.1,0.43641479266298655,0.5365201458619087,0.48046498014974104,0.534200932092006,0.511742220289658,0.6096384642926485
253,14.964,14.65,1.17,0.43628006636889105,0.5358574524308978,0.4807288817937374,0.5332959403419829,0.5130744257711365,0.6076931574357125
254,15.026,14.7,1.17,0.43611728133753186,0.5351866644892366,0.48099806147472834,0.5324203571795249,0.5144000781591511,0.6057512213433426
255,15.046,14.76,1.15,0.43592737584077446,0.5345073918554714,0.4812734286702148,0.5315740256713826,0.5157194701063489,0.6038131003570475
256,15.107,14.81,1.13,0.43571128724078323,0.53381925414385,0.4815558687272289,0.5307567806624275,0.5170328849768184,0.6018792423728494
257,15.168,14.87,1.19,0.43546995115096715,0.5331218807251491,0.4818462422277635,0.5299684484513961,0.5183405964819232,0.599950098639939
258,15.21,14.92,1.14,0.43520430062625226,0.5324149106894441,0.48214538439326815,0.529208846474362,0.5196428683336807,0.5980261235606906
259,15.272,14.98,1.07,0.4349152653841858,0.5316979928106824,0.48245410452859244,0.5284777829966879,0.5209399539162176,0.5961077744923163
260,15.333,15.03,1.19,0.4346037710583815,0.5309707855127702,0.4827731855057119,0.5277750568141204,0.5222320959757782,0.5941955115503698
261,15.395,15.09,1.15,0.4342707384857733,0.530232956836752,0.48310338328750285,0.527100456963633,0.5235195263296938,0.5922897974142631
262,15.477,15.14,1.12,0.43391708302902515,0.5294841844085699,0.4834454264917339,0.5264537624446239,0.5248024655946358,0.5903910971349522
263,15.497,15.2,1.17,0.43354371393527796,0.5287241554068866,0.4838000159953256,0.5258347419511459,0.5260811229344121,0.5884998779449089
264,15.537,15.25,1.18,0.43315153373232307,0.5279525665303988,0.4841678245788581,0.5252431536158387,0.5273556958275408,0.5866166090703686
265,15.598,15.31,1.17,0.4327414376633458,0.527169123963925,0.4845494966113172,0.5246787447660337,0.5286263698548356,0.5847417615456885
266,15.66,15.36,1.15,0.43231431316143204,0.5263735433424019,0.4849456477751225,0.5241412516921196,0.5298933185072161,0.5828758080295668
267,15.762,15.42,1.24,0.4318710393650091,0.5255655497118938,0.4853568648315485,0.5236303994278526,0.5311567030139652,0.5810192226228095
268,15.783,15.47,1.2,0.43141248667532456,0.5247448774867226,0.4857837054267109,0.5231459015419364,0.5324166721916549,0.5791724806873153
269,15.824,15.53,1.14,0.4309395163569817,0.5239112704018194,0.4862266979383181,0.522687459939949,0.5336733623139687,0.5773360586659292
270,15.866,15.58,1.24,0.43045298018245276,0.5230644814593992,0.4866863413633653,0.522254764675599,0.534926897002661,0.5755104339027897
271,15.926,15.64,1.21,0.4299537201214045,0.5222042728690248,0.4871631052469039,0.5218474937702475,0.5361773871399013,0.5736960844637341
272,15.986,15.69,1.16,0.42944256807551795,0.5213304159801372,0.4876574296519364,0.5214653130396688,0.5374249308022239,0.5718934889563052
273,16.049,15.75,1.17,0.42892034565919,0.520442691206266,0.48816972517034773,0.5211078759271639,0.5386696132162827,0.5701031263488487
274,16.151,15.8,1.19,0.42838786402613865,0.5195408879403428,0.4887003729746185,0.5207748233423147,0.5399115067365688,0.5683254757881089
275,16.172,15.86,1.17,0.4278459237416058,0.5186248044606636,0.48924972490992535,0.5204657835047367,0.5411506708451956,0.5665610164146789
276,16.213,15.91,1.15,0.42729531469951615,0.5176942478271964,0.4898181036260775,0.5201803717922913,0.5423871521737553,0.5648102271756908
277,16.276,15.97,1.25,0.42673681608357883,0.5167490337681562,0.49040580274855217,0.5199181905934259,0.5436209845471643,0.5630735866341898
278,16.317,16.02,1.19,0.4261711963709698,0.5157889865570686,0.4910130870877115,0.519678829163591,0.5448521890493448,0.5613515727746501
279,16.379,16.08,1.13,0.4255992133769457,0.514813938880825,0.4916401928851138,0.5194618634859733,0.5460807741105514,0.5596446628040799
280,16.462,16.13,1.21,0.4250216143385202,0.5138237316994748,0.49228732809569214,0.5192668561370763,0.5473067356161401,0.5579533329481153
281,16.503,16.19,1.2,0.4244391360352047,0.5128182140986614,0.4929546727044832,0.5190933561578862,0.548530057036553,0.556278058241482
282,16.545,16.24,1.17,0.423852504944706,0.5117972431357151,0.4936423790765029,0.5189408989315387,0.5497507095782347,0.5546193123122805
283,16.608,16.3,1.17,0.4232624374312676,0.5107606836805826,0.49435057233824675,0.5188090060686209,0.55096865235512,0.5529775671596873
284,16.671,16.35,1.2,0.4226696399640988,0.5097084082529788,0.49507935078915377,0.5186971853014654,0.5521838325802781,0.5513532929247509
285,16.713,16.41,1.17,0.4220748093631458,0.5086402968572719,0.4958287863412765,0.518604930388904,0.5533961857772417,0.5497469576540214
286,16.775,16.46,1.14,0.4214786330693143,0.507556236816637,0.49659892498532604,0.5185317210329607,0.5546056360104806,0.5481590270558425
287,16.857,16.52,1.24,0.4208817894361101,0.5064561226080149,0.4973897872811907,0.5184770228089305,0.5558120961344085,0.5465899642491906
288,16.877,16.57,1.19,0.42028494803954386,0.5053398556993465,0.49820136887097266,0.5184402871101998,0.5570154680602384,0.5450402295049648
289,16.919,16.63,1.14,0.41968877000304544,0.504207344390476,0.49903364101254033,0.5184209511090353,0.5582156430399524,0.543510279979618
290,16.982,16.68,1.21,0.4190939083340618,0.5030585036590365,0.499886551131568,0.5184184377344297,0.5594125019666181,0.542000569440992
291,17.023,16.74,1.2,0.41850100826908493,0.5018932550124995,0.500760023390057,0.5184321556679188,0.560605915690249,0.5405115479862166
292,17.084,16.79,1.19,0.4179107076240442,0.5007115263473506,0.5016539592693955,0.5184614993580238,0.5617957453483512,0.5390436617516379
293,17.145,16.85,1.19,0.4173236371471725,0.4995132518161709,0.5025682381660488,0.5185058490537977,0.5629818427102207,0.537597352614906
294,17.225,16.9,1.26,0.41674042087161756,0.4982983717032695,0.5035027179979967,0.5185645708578623,0.5641640505340058,0.5361730578895006
295,17.246,16.96,1.22,0.41616167646526686,0.49706683230937654,0.5044572358200878,0.518637016799246,0.5653422029355188,0.5347712100120681
296,17.309,17.01,1.18,0.41558801557547176,0.49581858584576144,0.505431608446563,0.5187225249262204,0.5665161257677597,0.5333922362230021
297,17.37,17.07,1.3,0.4150200441665364,0.4945535903380005,0.5064256330790822,0.5188204194192262,0.5676856370100989,0.532036558240712
298,17.413,17.12,1.25,0.4144583628480007,0.4932718095394482,0.5074390879386631,0.5189300107238713,0.5688505471660713,0.5307045919299878
299,17.473,17.18,1.21,0.413903567191868,0.491973212854306,0.5084717328999844,0.5190505957039285,0.5700106596687077,0.5293967469648508
300,17.596,17.23,1.28,0.41335624803696447,0.4906577752701068,0.5095233101265221,0.5191814578142712,0.5711657712923357,0.5281134264862075
301,17.617,17.29,1.3,0.41281699177868025,0.48932547729936693,0.5105935447050265,0.5193218672936666,0.572315672569795,0.526855026754504
302,17.637,17.34,1.29,0.41228638064246304,0.4879763049300076,0.5116821452779091,0.5194710813772198,0.5734601482140066,0.5256219367974776
303,17.699,17.4,1.29,0.41176499293958235,0.48661024958399485,0.5127888046721767,0.5196283445281483,0.5745989775428383,0.5244145380530584
304,17.739,17.45,1.37,0.4112534033038427,0.48522730808355286,0.5139132005236066,0.5197928886885238,0.5757319349062344,0.523233204007437
305,17.801,17.51,1.34,0.4107521829081723,0.48382748262420516,0.5150549958949792,0.5199639335485302,0.5768587901146355,0.5220782998282827
306,17.864,17.56,1.29,0.41026189966030197,0.4824107807538054,0.516213839887319,0.520140686833677,0.5779793088677756,0.520950181993081
307,17.966,17.62,1.41,0.4097831183770137,0.48097721535664534,0.5173893682432358,0.520322344609297,0.5790932531830119,0.519849197912524
308,17.987,17.67,1.39,0.40931640093668,0.47952680464167236,0.5185812039415943,0.5205080916015549,0.5802003818223954,0.5187756855488921
309,18.05,17.73,1.36,0.4088623064099867,0.478059572133837,0.5197889577828696,0.5206971015341099,0.5813004507177273,0.5177299730293883
310,18.07,17.78,1.41,0.40842139116880993,0.4765755466676885,0.5210122289646508,0.5208885374795885,0.5823932133928871,0.516712378254419
311,18.132,17.84,1.42,0.40799420897329475,0.4750747623824257,0.5222506056468563,0.5210815522250447,0.5834784213827952,0.5157232085007334
312,18.196,17.89,1.4,0.40758131103733075,0.4735572587175968,0.5235036655063295,0.5212752886505513,0.5845558246484327,0.5147627600192385
313,18.237,17.95,1.39,0.4071832460727075,0.4720230804086144,0.5247709762805394,0.5214688801200684,0.5856251719874005,0.5138313176272512
314,18.339,18.0,1.49,0.4068005603121882,0.470472277481338,0.52605209630009,0.5216614508838674,0.5866862114395283,0.5129291542949206
315,18.36,18.06,1.46,0.40643379751161596,0.4689049052451221,0.5273465750096861,0.5218521164919923,0.5877386906871005,0.5120565307255149
316,18.4,18.11,1.39,0.4060834989310529,0.46732102428387906,0.5286539534771456,0.5220399842184651,0.5887823574493115,0.5112136949292367
317,18.463,18.17,1.5,0.40575020329491013,0.465720700444838,0.5299737648900066,0.5222241534961264,0.5898169598706428,0.5104008817901672
318,18.524,18.22,1.5,0.405434446731087,0.4641040048247719,0.5313055350392875,0.5224037163621228,0.5908422469029314,0.5096183126259325
319,18.565,18.28,1.46,0.4051367626891989,0.4624710137535755,0.5326487827899876,0.5225777579141385,0.5918579686809455,0.5088661947397618
320,18.626,18.33,1.47,0.40485768183793114,0.4608218087752831,0.5340030205379173,0.5227453567776216,0.5928638768913227,0.5081447209647103
321,18.73,18.39,1.5,0.40459773194147014,0.45915647662687,0.5353677546524412,0.5229055855844588,0.5938597251348009,0.5074540691998446
322,18.749,18.44,1.46,0.4043574377149513,0.45747510921535406,0.5367424859047427,0.5230575114637024,0.5948452692817376,0.5067944019381778
323,18.791,18.5,1.39,0.40413732065885016,0.45577780359385917,0.538126709881215,0.5232001965451051,0.5958202678209439,0.5061658657862109
324,18.853,18.55,1.48,0.4039378988721833,0.4540646619374856,0.5395199173815828,0.523332698476391,0.5967844822018527,0.5055685909750802
325,18.915,18.61,1.43,0.4037596868442915,0.4523357915200189,0.5409215948013538,0.5234540709553366,0.5977376771699946,0.5050026908635128
326,18.956,18.66,1.38,0.40360319522486776,0.45059130469265396,0.5423312244982128,0.5235633642778114,0.5986796210956753,0.5044682614330938
327,19.06,18.72,1.48,0.4034689305717932,0.4488313188660288,0.5437482851419836,0.5236596259030086,0.5996100862956559,0.5039653807766414
328,19.08,18.77,1.47,0.4033573950763144,0.4470559564969273,0.5451722520478248,0.5237419010371404,0.6005288493475812,0.5034941085807121
329,19.121,18.83,1.43,0.40326908626510843,0.4452653450810363,0.546602597492366,0.5238092332368934,0.6014356913968522,0.5030544856033894
330,19.182,18.88,1.44,0.4032044966787459,0.443459617153256,0.5480387910125033,0.5238606650340482,0.6023303984556437,0.5026465331485965
331,19.243,18.94,1.48,0.4031641135260339,0.4416389102972129,0.5494802996865735,0.5238952385827779,0.6032127616937849,0.5022702525381929
332,19.284,18.99,1.45,0.4031484183137898,0.4398033671656885,0.5509265883976834,0.5239119963310973,0.6040825777212447,0.5019256245831705
333,19.346,19.05,1.42,0.4031578864517412,0.4379531355136492,0.5523771200790932,0.5239099817176427,0.6049396488619599,0.5016126090553787
334,19.448,19.1,1.52,0.40319298683239807,0.4360883682454897,0.553831355941704,0.5238882398945538,0.6057837834187333,0.5013311441613245
335,19.469,19.16,1.45,0.403254181385911,0.4342092234779821,0.5552887556838573,0.5238458184768037,0.6066147959289326,0.5010811460196669
336,19.51,19.21,1.39,0.403341924610077,0.4323158646202791,0.5567487776837723,0.5237817683179994,0.6074325074107221,0.500862508144105
337,19.551,19.27,1.43,0.4034566630757628,0.4304084604721937,0.5582108791750203,0.5236951443124764,0.6082367455995604,0.5006751009334099
338,19.612,19.32,1.42,0.40359883490815973,0.4284871853418216,0.5596745164055136,0.5235850062232958,0.6090273451746752,0.5005187711704246
339,19.672,19.38,1.44,0.4037688692444539,0.4265522191833517,0.5611391447805758,0.5234504195354818,0.6098041479751396,0.5003933415320043
340,19.734,19.43,1.44,0.40396718566860934,0.42460374775571813,0.5626042189907007,0.5232904563336138,0.6105670032050653,0.500298610112091
341,19.794,19.49,1.52,0.4041941936240733,0.422641962802607,0.564069193124636,0.5231041962027654,0.611315767627347,0.5002343499602752
342,19.856,19.54,1.49,0.4044502918054041,0.4206670622541621,0.5655335207684546,0.5228907271517784,0.6120503057453861,0.5002003086382881
343,19.897,19.6,1.44,0.404735867530083,0.4186792504505594,0.5669966550912856,0.5226491465580191,0.6127704899722767,0.5001962077968605
344,19.98,19.65,1.56,0.40505129609202367,0.4166787383874569,0.5684580489183579,0.5223785621330305,0.6134762007870258,0.500221742775306
345,20.0,19.71,1.53,0.40539694009853644,0.4146657439831764,0.5699171547920104,0.5220780929086917,0.6141673268774713,0.5002765822260852
346,20.063,19.76,1.49,0.4057731487926969,0.412640492367346,0.5713734250213373,0.5217468702435324,0.6148437652696263,0.5003603677665135
347,20.164,19.82,1.54,0.4061802573631829,0.41060321619067425,0.5728263117211876,0.521384038848777,0.615505421443249,0.5004727136596686
348,20.204,19.87,1.54,0.406618586243785,0.40855415595543004,0.5742752668413172,0.5209887578334969,0.6161522094335219,0.5006132065263825
349,20.225,19.93,1.54,0.4070884404049696,0.40649356036600554,0.575719742186591,0.5205602017679203,0.6167840519187717,0.500781405090053
350,20.266,19.98,1.52,0.40759010864001777,0.4044216866987295,0.5771591894292167,0.5200975617636479,0.617400880294192,0.5009768399558899
351,20.328,20.04,1.6,0.40812386284833924,0.40233880118994775,0.5785930601140366,0.5196000465692759,0.6180026347315541,0.5011990134260949
352,20.39,20.09,1.56,0.40868995731864133,0.4002451794412336,0.5800208056579854,0.5190668836797092,0.6185892642249314,0.5014473993523061
353,20.451,20.15,1.49,0.4092886280146999,0.39814110684046716,0.5814418773449215,0.5184973204572229,0.6191607266225115,0.5017214430264982
354,20.532,20.2,1.62,0.4099200918665389,0.3960268789974232,0.5828557263171307,0.5178906252621636,0.6197169886446156,0.5020205611113947
355,20.553,20.26,1.58,0.4105845460699095,0.3939028021924129,0.584261803564919,0.5172460885910359,0.6202580258880841,0.5023441416113937
356,20.615,20.31,1.54,0.4112821673970573,0.39176919383641395,0.5856595599157973,0.5165630242196013,0.6207838228172182,0.5026915438850209
357,20.677,20.37,1.6,0.4120131115218384,0.3896263829410502,0.587048446024845,0.5158407703485586,0.6212943727414955,0.5030620986998968
358,20.739,20.42,1.62,0.4127775123623646,0.3874747105966601,0.5884279123678975,0.5150786907493041,0.6217896777803529,0.5034551083310854
359,20.8,20.48,1.59,0.41357548144454825,0.38531453045646635,0.5897974092392643,0.5142761759071297,0.6222697488153934,0.5038698467035178
360,20.821,20.53,1.56,0.4144071072900695,0.38314620922463183,0.5911563867556693,0.5134326441591174,0.6227346054304235,0.50430555957903
361,20.923,20.59,1.63,0.4152724548323498,0.38097012714583245,0.5925042948680497,0.5125475428239715,0.6231842758397913,0.5047614647883881
362,20.945,20.64,1.59,0.41617156486411633,0.3787866784938826,0.5938405833828058,0.5116203493209841,0.6236187968055457,0.5052367525085065
363,20.985,20.7,1.5,0.4171044535200718,0.3765962720568764,0.5951647019940834,0.5106505722752419,0.6240382135439567,0.5057305855849604
364,21.046,20.75,1.62,0.41807111179806594,0.37439933161627253,0.5964761003286599,0.5096377526060747,0.6244425796219402,0.5062420998998138
365,21.109,20.81,1.6,0.41907150512209707,0.37219629641726415,0.5977742280049937,0.5085814645956279,0.6248319568439041,0.5067704047847686
366,21.171,20.86,1.57,0.4201055729504283,0.3699876216276832,0.5990585347079801,0.50748131693435,0.6252064151294972,0.5073145834797137
367,21.296,20.92,1.62,0.4211732284320261,0.3677737787826794,0.6003284702809015,0.5063369537402047,0.6255660323827168,0.5078736936368113
368,21.317,20.97,1.63,0.4222743581144619,0.36555525621242013,0.6015834848360365,0.5051480555484456,0.6259108943528789,0.508446767870196
369,21.337,21.03,1.59,0.4234088217064169,0.3633325594499878,0.6028230288853927,0.5039143402687266,0.6262410944880086,0.5090328143511854
370,21.377,21.08,1.56,0.4245764518978837,0.361106211616594,0.6040465534930163,0.502635564106271,0.6265567337812884,0.5096308174487034
371,21.439,21.14,1.64,0.4257770542409903,0.35887675378128975,0.6052535104502479,0.5013115224438871,0.6268579206112449,0.5102397384144244
372,21.521,21.19,1.6,0.42701040709411453,0.35664474529248386,0.6064433524751829,0.49994205068174635,0.6271447705763766,0.510858516111998
373,21.541,21.25,1.53,0.4282762616316379,0.35441076407872346,0.6076155334374533,0.4985270250319757,0.6274174063249255,0.5114860677895982
374,21.644,21.3,1.62,0.42957434192135646,0.3521754069163108,0.6087695086093048,0.4970663632652668,0.6276759573804886,0.5121212898949231
375,21.665,21.36,1.59,0.4309043450712509,0.3499392896613978,0.6099047349437878,0.4955600254068554,0.6279205599641645,0.5127630589316352
376,21.706,21.41,1.55,0.4322659414469784,0.3477030474442708,0.6110206713807125,0.4940080143794087,0.6281513568138997,0.5134102323561415
377,21.769,21.47,1.58,0.4336587749610185,0.3454673348236717,0.612116779180749,0.49241037659064546,0.6283684970016797,0.5140616495135241
378,21.81,21.52,1.59,0.43508246343400353,0.34323282589915205,0.6131925222877945,0.49076720246382827,0.6285721357491989,0.5147161326113143
379,21.891,21.58,1.56,0.43653659902847036,0.3410002143795084,0.6142473677194902,0.48907862690946613,0.6287624342426428,0.515372487729683
380,22.014,21.63,1.54,0.43802074875503094,0.338770213605424,0.6152807859856129,0.48734482973671434,0.6289395594471958,0.5160295058665673
381,22.034,21.69,1.61,0.4395344550506818,0.33654355652460066,0.6162922515339262,0.4855660360031229,0.6291036839218617,0.5166859640161977
382,22.055,21.74,1.55,0.4410772364286686,0.3343209956178953,0.6172812432229807,0.48374251630154885,0.6292549856351689,0.5173406262794006
383,22.096,21.8,1.49,0.4426485881990163,0.3321033027751855,0.6182472448212691,0.48187458698317437,0.6293936477823157,0.5179922450039385
384,22.178,21.85,1.56,0.4442479832585401,0.3298912691198735,0.6191897455320636,0.479962610315712,0.6295198586042843,0.5186395619530357
385,22.198,21.91,1.54,0.4458748729488931,0.32768570478105874,0.6201082405431907,0.47800699457599305,0.6296338112094286,0.5192813095001586
386,22.258,21.96,1.49,0.4475286879809148,0.32548743861251883,0.6210022316009093,0.476008194076253,0.6297357033979537,0.5199162118481249
387,22.321,22.02,1.5,0.4492088394231201,0.3232973178578402,0.6218712276068913,0.47396670912364874,0.6298257374896165,0.5205429862706393
388,22.362,22.07,1.53,0.4509147197516971,0.3211162077613048,0.6227147452371202,0.47188308591278977,0.6299041201549106,0.5211603443742998
389,22.423,22.13,1.49,0.45264570395897663,0.31894499112436125,0.623532309581369,0.4697579163512526,0.6299710622499217,0.5217669933790565
390,22.485,22.18,1.47,0.4544011507170052,0.31678456780772163,0.624323454801787,0.46759183781819436,0.630026778654973,0.5223616374150857
391,22.528,22.24,1.57,0.45618040359256906,0.3146358541793604,0.625087724809007,0.46538553285636375,0.6300714881171124,0.5229429788340345
392,22.589,22.29,1.51,0.45798279230980854,0.31249978250890315,0.6258246739540868,0.463139728797984,0.6301054130964562,0.5235097195325611
393,22.65,22.35,1.44,0.4598076340564298,0.310377300309043,0.6265338677345261,0.46085519732512586,0.63012877961638,0.5240605622860448
394,22.731,22.4,1.51,0.46165423482943846,0.3082693696247214,0.6272148835125425,0.4585327539653194,0.630141817117547,0.5245942120902822
395,22.751,22.46,1.5,0.4635218908162959,0.30617696627086183,0.6278673112437473,0.4561732575232486,0.6301447583157384,0.5251093775089806
396,22.813,22.51,1.46,0.4654098898073532,0.30410107901949196,0.628490754214312,0.45377760944947565,0.6301378390633873,0.5256047720249597
397,22.877,22.57,1.45,0.467317512635236,0.30204270873724803,0.6290848297845969,0.4513467531473565,0.6301212982146268,0.5260791153931055
398,22.937,22.62,1.48,0.4692440346366123,0.300002867474469,0.6296491701370803,0.44888167321958405,0.6300953774935952,0.5265311349931922
399,22.999,22.68,1.46,0.47118872713156446,0.29798257750725643,0.6301834230263134,0.446383394656005,0.6300603213656705,0.5269595671807417
400,23.04,22.73,1.44,0.4731508589156149,0.2959828703339912,0.6306872525285345,0.4438529819644848,0.6300163769112226,0.5273631586341742
401,23.101,22.79,1.55,0.4751296977592891,0.2940047856279127,0.6311603397884968,0.44129153824670386,0.6299637937013901,0.5277406676965823
402,23.141,22.84,1.5,0.47712451190999916,0.29204937014744475,0.6316023837610092,0.4387002042208369,0.6299028236753458,0.5280908657104969
403,23.182,22.9,1.43,0.47913457159100326,0.29011767660601745,0.6320131019447055,0.43608015719310833,0.6298337210185091,0.528412538343968
404,23.242,22.95,1.52,0.481159150492228,0.28821076250323335,0.6323922311056217,0.43343260998024224,0.6297567420411991,0.5287044869061963
405,23.326,23.01,1.52,0.48319752724785203,0.286329688919308,0.6327395279883008,0.43075880978481235,0.6296721450572617,0.5289655296508863
406,23.388,23.06,1.49,0.4852489868956714,0.28447551927480363,0.6330547700122694,0.42806003702546536,0.6295801902621977,0.5291945030655341
407,23.492,23.12,1.48,0.4873128223132977,0.28264931805783144,0.633337755951782,0.42533760412406496,0.6294811396102982,0.5293902631450024
408,23.512,23.17,1.52,0.4893883356262165,0.280852149521104,0.6335883065967314,0.4225928542519373,0.6293752566902817,0.529551686647813
409,23.533,23.23,1.49,0.49147483958276433,0.2790850763513692,0.6338062653926425,0.4198271600374923,0.6292628065989273,0.5296776723336563
410,23.575,23.28,1.45,0.49357165889113047,0.27734915831383766,0.6339914990577061,0.4170419222375343,0.6291440558121774,0.5297671421807032
411,23.636,23.34,1.55,0.49567813151353785,0.2756454508742406,0.6341438981748491,0.4142385683745717,0.629019272053146,0.5298190425814028
412,23.678,23.39,1.5,0.49779360991284566,0.27397500380111717,0.6342633777568932,0.4114185513423929,0.6288887241564382,0.5298323455155137
413,23.74,23.45,1.45,0.49991746224692335,0.272338859750847,0.6343498777829025,0.40858334798211504,0.6287526819281446,0.5298060496991956
414,23.864,23.5,1.54,0.5020490735062875,0.2707380528379021,0.6344033637038529,0.4057344576309259,0.628611416000867,0.5297391817090236
415,23.885,23.56,1.54,0.504187846590708,0.2691736071927631,0.6344238269158202,0.40287340064577154,0.6284651976831226,0.5296307970798542
416,23.905,23.61,1.52,0.5063332033207573,0.2676465355099187,0.6344112851989632,0.4000017169042763,0.6283142988024703,0.5294799813755634
417,23.966,23.67,1.54,0.5084845853804878,0.26615783758841477,0.6343657831206364,0.39712096428529414,0.6281589915417126,0.5292858512318149
418,24.007,23.72,1.58,0.5106414551876253,0.2647084988675478,0.6342873924010272,0.3942327171316324,0.6279995482675724,0.5290475553700771
419,24.068,23.78,1.56,0.512803296687906,0.2632994889603737,0.6341762122398075,0.3913385646975493,0.6278362413513089,0.5287642755821557
420,24.129,23.83,1.52,0.5149696160704653,0.2619317601877394,0.6340323696024265,0.38844010958358494,0.6276693429807908,0.5284352276845505
421,24.212,23.89,1.63,0.5171399424014529,0.2606062461155412,0.6338560194647871,0.3855389661612043,0.6274991249635979,0.5280596624419788
422,24.233,23.94,1.58,0.519313828173331,0.25932386009786956,0.6336473450151772,0.38263675898963384,0.6273258585207621,0.5276368664594278
423,24.294,24.0,1.53,0.521490849767557,0.2580854938286647,0.6334065578124187,0.3797351212272079,0.6271498140707991,0.5271661630421156
424,24.355,24.05,1.61,0.5236706078285457,0.25689201590450766,0.6331338978992742,0.37683569303953407,0.62697126100372,0.5266469130227347
425,24.396,24.11,1.61,0.5258527275470409,0.25574427040114595,0.6328296338702268,0.3739401200067664,0.6267904674447649,0.5260785155553148
426,24.458,24.16,1.59,0.528036858851271,0.2546430754662511,0.6324940628928527,0.37105005153217463,0.6266077000076242,0.5254604088750309
427,24.518,24.22,1.6,0.5302226765045119,0.25358922193084343,0.6321275106820743,0.3681671392541326,0.6264232235369587,0.5247920710233135
428,24.58,24.27,1.65,0.5324098801079181,0.25258347194181624,0.6317303314266681,0.36529303546361824,0.626237300840077,0.524073020537632
429,24.641,24.33,1.63,0.5345981940078031,0.2516265576179843,0.6313029076675079,0.3624293915292878,0.6260501924077201,0.523302817105356
430,24.682,24.38,1.6,0.5367873671069281,0.25071917973202984,0.6308456501271464,0.3595778563321538,0.6258621561239653,0.5224810621811586
431,24.724,24.44,1.71,0.5389771725797443,0.24986200642065282,0.6303589974904371,0.3567400747118884,0.6256734469653455,0.5216073995674891
432,24.808,24.49,1.66,0.541167407491953,0.2490556719251062,0.6298434161360094,0.35391768592674233,0.6254843166893576,0.5206815159576681
433,24.868,24.55,1.59,0.5433578923251394,0.24830077536416123,0.6292993998185281,0.35111232212902216,0.6252950135126177,0.5197031414411908
434,24.95,24.6,1.66,0.545548470407575,0.24759787954146675,0.6287274693017869,0.34832560685802877,0.6251057817790144,0.5186720499708056
435,24.971,24.66,1.65,0.547739007252601,0.2469475097891824,0.6281281719428626,0.3455591535522362,0.6249168616182729,0.5175880597909153
436,25.012,24.71,1.62,0.5499293898063174,0.24635015284965558,0.6275020812277943,0.3428145640822519,0.6247284885953732,0.5164510338268917
437,25.094,24.77,1.63,0.5521195256065096,0.24580625579684362,0.6268497962594649,0.3400934273058741,0.624540893351256,0.5152608800349701
438,25.115,24.82,1.67,0.554309341854901,0.24531622499917208,0.6261719411985327,0.337397317646426,0.6243543012352605,0.5140175517124296
439,25.175,24.88,1.65,0.5564987844050134,0.24488042512551197,0.625469164658386,0.33472779369546096,0.6241689319297805,0.5127210477677878
440,25.235,24.93,1.62,0.5586878166681735,0.24449917819591804,0.6247421390552194,0.332086396840869,0.6239849990676537,0.5113714129507911
441,25.318,24.99,1.72,0.560876418440481,0.2441727626787305,0.6239915599144156,0.329474649921369,0.6238027098428556,0.5099687380420753
442,25.338,25.04,1.66,0.5630645846538826,0.24390141263555046,0.6232181451345319,0.3268940559082978,0.6236222646151268,0.5085131600024292
443,25.399,25.1,1.62,0.5652523240548031,0.24368531691551298,0.6224226342102795,0.32434609661554537,0.6234438565092292,0.5070048620816505
444,25.441,25.15,1.69,0.567439657814052,0.24352461840022624,0.6216057874159654,0.321832231438484,0.6232676710096082,0.5054440738869892
445,25.503,25.21,1.67,0.5696266180720045,0.2434194133006789,0.6207683849509571,0.31935389612271614,0.623093885551306,0.5038310714111636
446,25.545,25.26,1.63,0.5718132464233256,0.2433697505072765,0.619911226048824,0.3169125015633855,0.6229226691080029,0.5021661770199647
447,25.608,25.32,1.63,0.5739995923456692,0.2433756309940581,0.6190351280518571,0.3145094326357612,0.6227541817780853,0.5004497593994974
448,25.668,25.37,1.67,0.5761857115768508,0.24343700727807666,0.618140925452674,0.3121460470578616,0.622588574369652,0.4986822334631014
449,25.731,25.43,1.63,0.5783716644450326,0.2435537829348661,0.6172294689046188,0.3098236742859362,0.6224259879853924,0.4968640602179809
450,25.793,25.48,1.6,0.5805575141564997,0.2437258121708567,0.6163016242026781,0.30754361444363293,0.6222665536082668,0.494995746591589
451,25.834,25.54,1.7,0.5827433250456381,0.24395289945354992,0.6153582712366573,0.3053071372856382,0.6221103916889212,0.4930778452178529
452,25.895,25.59,1.65,0.5849291607918456,0.2442347992001837,0.6144003029184243,0.30311548119649623,0.621957611735783,0.49111095418336076
453,25.958,25.65,1.59,0.587115082608256,0.24457121552552302,0.6134286240850889,0.3009698522252562,0.6218083119088039,0.4890957167336923
454,26.041,25.7,1.67,0.589301147407335,0.24496180204934007,0.6124441503800474,0.29887142315662507,0.6216625786178595,0.48703282094010036
455,26.06,25.76,1.66,0.5914874059486023,0.24540616176405847,0.6114478071138835,0.29682133261932864,0.6215204861268513,0.48492299932675514
456,26.121,25.81,1.62,0.5936739009739335,0.24590384696289252,0.6104405281072024,0.2948206842323494,0.6213820961645962,0.48276702845877334
457,26.182,25.87,1.61,0.5958606653359971,0.24645435922870942,0.6094232545175093,0.2928705457896915,0.6212474575436012,0.4805657284912822
458,26.224,25.92,1.65,0.598047720125411,0.2470571494837924,0.608396933652273,0.2909719484843285,0.6211166057878497,0.4783199626797544
459,26.283,25.98,1.6,0.6002350728022231,0.24771161810062622,0.6073625177703644,0.28912588617195595,0.6209895627707571,0.47603063685183317
460,26.427,26.03,1.56,0.6024227153373235,0.24841711507376224,0.6063209628741032,0.2873333146750983,0.6208663363644412,0.4736986988408783
461,26.448,26.09,1.66,0.6046106223693354,0.24917294025276507,0.6052732274941739,0.28559515112805306,0.6207469201014401,0.47132513788148245
462,26.469,26.14,1.6,0.6067987493824658,0.24997834363616764,0.6042202714696884,0.28391227336307034,0.6206312928499825,0.46891098396722614
463,26.491,26.2,1.54,0.60898703091067,0.2508325257263239,0.6031630547256545,0.2822855193381193,0.6205194185038833,0.4664573071709602
464,26.551,26.25,1.62,0.6111753787733455,0.2517346379450769,0.6021025360500857,0.28071568660661,0.6204112456881259,0.4639652169279195
465,26.592,26.31,1.6,0.6133636803476934,0.2526837831101907,0.6010396718729805,0.2792035318294294,0.620306707481197,0.4614358612819778
466,26.655,26.36,1.56,0.6155517968828618,0.2536790159724648,0.5999754150494148,0.2777497703295559,0.6202057211552158,0.45887042609539
467,26.717,26.42,1.55,0.6177395618609244,0.25471934381344197,0.5989107136489962,0.27635507568942125,0.6201081879348846,0.456270134222442
468,26.779,26.47,1.59,0.6199267794096345,0.2558037271036406,0.5978465097539083,0.2750200793911114,0.6200139927762762,0.45363624464746805
469,26.841,26.53,1.56,0.6221132227718121,0.25693108022121897,0.5967837382677864,0.27374537049938397,0.619923004166455,0.4509700515877633
470,26.882,26.58,1.52,0.6242986328361624,0.25810027223089044,0.5957233257376652,0.2725314953873614,0.6198350739448965,0.44827288356200334
471,26.943,26.64,1.6,0.6264827167342276,0.2593101277227978,0.5946661891912154,0.27137895750467794,0.6197500371476333,0.44554610242484216
472,27.004,26.69,1.54,0.6286651465080616,0.2605594277109158,0.5936132349914337,0.2702882171878169,0.6196677118750268,0.4427911023683502
473,27.045,26.75,1.48,0.6308455578530344,0.2618469105904108,0.5925653577108763,0.2692596915123592,0.6195878991840381,0.4400093088909195
474,27.147,26.8,1.55,0.6330235489399558,0.26317127315327765,0.5915234390274414,0.2682937541868978,0.6195103830058434,0.43720217773421216
475,27.168,26.86,1.54,0.6351986793205321,0.26453117166141243,0.5904883466436254,0.26739073548836495,0.619434930089593,0.434371193788697
476,27.209,26.91,1.51,0.6373704689200544,0.2659252229760654,0.5894609332311087,0.26655092223845933,0.6193612899730528,0.43151786996836544
477,27.291,26.97,1.51,0.6395383971210709,0.2673520057424496,0.5884420354024239,0.26577455782085263,0.6192891949808023,0.42864374605529515
478,27.311,27.02,1.55,0.641701901941604,0.26881006162822507,0.5874324727113349,0.26506184223890944,0.6192183602506363,0.4257503875147726
479,27.373,27.08,1.51,0.6438603793113232,0.27029789661454884,0.5864330466834724,0.2644129322136895,0.6191484837888088,0.42283938428169887
480,27.434,27.13,1.47,0.6460131824488953,0.27181398233836246,0.5854445398786998,0.2638279413219996,0.619079246554737,0.4199123495190407
481,27.517,27.19,1.57,0.6481596213435494,0.2733567574845557,0.584467714986625,0.26330694017424655,0.6190103125757704,0.4169709183491334
482,27.539,27.24,1.5,0.6502989623436922,0.2749246292265827,0.5835033139566145,0.26284995663180544,0.6189413290926038,0.41401674655867027
483,27.599,27.3,1.42,0.6524304278551635,0.27651597471404,0.582552057163605,0.2624569760635921,0.6188719267358775,0.41105150927825196
484,27.641,27.35,1.48,0.6545531961514485,0.2781291426056981,0.5816146426109152,0.2621279416415619,0.6188017197344823,0.4080768996373793
485,27.702,27.41,1.47,0.6566664012978712,0.2797624546464235,0.5806917451711776,0.26186275467485093,0.6187303061560261,0.4050946273958
486,27.764,27.46,1.43,0.6587691331915166,0.28141420728631245,0.5797840158664346,0.26166127498219655,0.6186572681798214,0.4021064175522108
487,27.806,27.52,1.43,0.6608604377182618,0.28308267334025816,0.5788920811883187,0.26152332130222783,0.6185821724026188,0.39911400893146615
488,27.888,27.57,1.47,0.6629393170278601,0.2847661036861502,0.5780165424590943,0.26144867174124886,0.6185045701772088,0.39611915275156145
489,27.93,27.63,1.43,0.6650047299276252,0.2864627289998945,0.5771579752342118,0.261437064258177,0.618423997983926,0.39312361117176303
490,27.973,27.68,1.41,0.6670555923948993,0.2881707615254485,0.5763169287469382,0.26148819718631566,0.6183399778350119,0.3901291558233819
491,28.056,27.74,1.51,0.6690907782082012,0.289888396878067,0.5754939253955661,0.2616017297916328,0.6182520177117358,0.38713756632481194
492,28.098,27.79,1.45,0.6711091196967366,0.29161381587890417,0.5746894602736735,0.2617772828671569,0.6181596120341287,0.3841506287825544
493,28.16,27.85,1.39,0.6731094086077628,0.2933451864190538,0.5739040007438694,0.2620144393630606,0.618062242163162,0.3811701342800215
494,28.243,27.9,1.47,0.6750903970910728,0.2950806653510927,0.5731379860554043,0.26231274505203334,0.6179593769351848,0.37819787735593513
495,28.263,27.96,1.45,0.6770507987996475,0.29681840040615837,0.5723918270059821,0.2626717092295585,0.6178504732284352,0.37523565447413076
496,28.304,28.01,1.41,0.6789892901053098,0.2985565321345158,0.5716659056480933,0.2630908054486361,0.6177349765613801,0.3722852624866159
497,28.365,28.07,1.42,0.6809045114279038,0.30029319586752484,0.5709605750401798,0.2635694722884031,0.6176123217225787,0.36934849709180845
498,28.425,28.12,1.47,0.6827950686761386,0.30202652369893296,0.5702761590428982,0.26410711415606364,0.6174819334317149,0.3664271512899227
499,28.467,28.18,1.43,0.6846595347978802,0.3037546464833846,0.5696129521607356,0.26470310212150794,0.6173432270313911,0.36352301383749236
500,28.528,28.23,1.4,0.6864964514373165,0.3054756958499629,0.5689712194292047,0.2653567747839709,0.6171956092092329,0.3606378677030558
501,28.629,28.29,1.52,0.6883043306960857,0.30718780622847935,0.5683511963478082,0.2660674391700714,0.6170384787498122,0.3577734885260542
502,28.65,28.34,1.47,0.6900816569951725,0.3088891168861206,0.5677530888589596,0.2668343716625572,0.6168712273158814,0.35493164308101516
503,28.71,28.4,1.42,0.691826889034151,0.31057777397196906,0.5671770733730512,0.2676568189591318,0.616693240258411,0.35211408774914243
504,28.751,28.45,1.5,0.6935384618441577,0.3122519325668775,0.5666232968398596,0.26853399906092634,0.6165038974549454,0.3493225669994624
505,28.792,28.51,1.49,0.6952147889308774,0.31390975873613086,0.5660918768664897,0.2694651022904043,0.6163025741758331,0.34655881188169335
506,28.854,28.56,1.46,0.6968542645037576,0.31554943158224597,0.5655829018820734,0.27044929233864884,0.6160886419779001,0.34382453853305256
507,28.935,28.62,1.46,0.6984552657875305,0.31716914529521945,0.5650964313494102,0.2714857073421212,0.6158614696251329,0.3411214467012816
508,28.997,28.67,1.48,0.7000161554119396,0.31876711119754914,0.5646324960236923,0.27257346098910845,0.6156204240359451,0.33845121828618885
509,29.017,28.73,1.43,0.7015352838754011,0.3203415597813207,0.5641910982584302,0.27371164365611234,0.6153648712565966,0.3358155159019996
510,29.08,28.78,1.39,0.7030109920781904,0.32189074273457313,0.5637722123586686,0.2748993235743563,0.6150941774602886,0.3332159814628213
511,29.141,28.84,1.46,0.704441613920572,0.32341293495407136,0.5633757849815467,0.27613554802643736,0.614807709971388,0.3306542347935597
512,29.182,28.89,1.39,0.705825478961113,0.3249064365415136,0.5630017355842128,0.2774193445729143,0.6145048383141342,0.3281318722686248
513,29.245,28.95,1.34,0.7071609151301977,0.3263695747801169,0.5626499569190327,0.27874972230836803,0.6141849352850638,0.32565046548073
514,29.37,29.0,1.42,0.7084462514935106,0.32780070608850254,0.5623203155759168,0.28012567314623793,0.6138473780482618,0.32321155994199346
515,29.39,29.06,1.41,0.7096798210600586,0.32919821794876974,0.5620126525714834,0.2815461731314833,0.6134915492524234,0.3208166738194131
516,29.43,29.11,1.37,0.7108599636291736,0.33056053080559716,0.561726783984661,0.28301018377982623,0.6131168381685874,0.3184672967066359
517,29.471,29.17,1.36,0.7119850286707714,0.3318860999332039,0.5614625016381888,0.28451665344210125,0.6127226418473023,0.31616488843374047
518,29.534,29.22,1.39,0.7130533782329632,0.3331734172670537,0.5612195738253115,0.2860645186920443,0.6123083662939348,0.3139108779164638
519,29.574,29.28,1.34,0.7140633898709684,0.3344210131972007,0.5609977460808321,0.2876527057356186,0.6118734276607725,0.3117066620460521
520,29.616,29.33,1.3,0.715013459591138,0.33562745832015817,0.560796741995557,0.28928013183969414,0.6114172534544747,0.309553604620755
521,29.718,29.39,1.38,0.7159020048037665,0.3367913651461423,0.5606162640730349,0.2909457067776396,0.6109392837573059,0.3074530353198875
522,29.738,29.44,1.31,0.7167274672782408,0.33791138975848883,0.5604559946273395,0.2926483342891164,0.6104389724604498,0.3054062487212736
523,29.798,29.5,1.24,0.7174883160939669,0.3389862334219944,0.5603155967204849,0.29438691355111013,0.6099157885075619,0.30341450336276093
524,29.86,29.55,1.3,0.718183050580331,0.3400146441369506,0.560194715137879,0.2961603406570005,0.6093692171465753,0.3014790208483264
525,29.92,29.61,1.29,0.7188102032387876,0.34099541813567485,0.5600929774000489,0.2979675101002517,0.6087987611876201,0.2996009849991076
526,29.982,29.66,1.26,0.7193683426399984,0.3419274013183818,0.5600099948086791,0.29980731625908796,0.6082039422647348,0.2977815410495535
527,30.022,29.72,1.27,0.7198560762887771,0.3428094906253391,0.5599453635247864,0.3016786548783836,0.6075843020988667,0.29602179488876573
528,30.103,29.77,1.3,0.7202720534495128,0.34364063534242545,0.5598986656766394,0.303580424544903,0.6069394037595143,0.2943228123469372
529,30.124,29.83,1.29,0.7206149679248641,0.3444198383373389,0.5598694704948882,0.3055115281518607,0.6062688329222625,0.29268561852661684
530,30.166,29.88,1.29,0.7208835607808367,0.34514615722380915,0.5598573354722857,0.3074708743485493,0.6055721991193721,0.29111119717838035
531,30.227,29.94,1.4,0.7210766230117587,0.34581870545129045,0.5598618075453186,0.30945737897059883,0.6048491369805229,0.28960049012035505
532,30.287,29.99,1.36,0.721192998139161,0.34643665331776713,0.5598824242950218,0.3114699664463171,0.604099307460786,0.28815439670088316
533,30.349,30.05,1.31,0.7212315847390716,0.34699922890349916,0.5599187151642278,0.3135075711745161,0.6033223990529256,0.2867737733034044
534,30.391,30.1,1.4,0.7211913388927788,0.3475057189237243,0.559970202688523,0.31556913886926163,0.6025181289812004,0.285459432892404
535,30.452,30.16,1.4,0.7210712765567161,0.3479554694984553,0.5600364037382386,0.3176536278670354,0.601686244373897,0.2842121445990937
536,30.513,30.21,1.38,0.7208704758476703,0.3483478868376044,0.5601168307688488,0.3197600103919305,0.600826523411852,0.28303263334546
537,30.573,30.27,1.4,0.7205880792399191,0.34868243783985,0.5602109930771461,0.32188727377478876,0.5999387764502299,0.28192157950537106
538,30.655,30.32,1.45,0.720223295671206,0.3489586506039204,0.5603183980605401,0.32403442162254986,0.5990228471108495,0.2808796186014863
539,30.675,30.38,1.44,0.7197754025548099,0.34917611485117567,0.5604385524768521,0.3262004749343679,0.5980786133424062,0.2799073410367672
540,30.737,30.43,1.43,0.7192437476953684,0.3493344822585393,0.5605709637020504,0.3283844731612025,0.5971059884459788,0.27900529185949885
541,30.86,30.49,1.5,0.7186277511065373,0.34943346670101416,0.5607151409834781,0.3305854752056485,0.5961049220632849,0.27817397056085863
542,30.881,30.54,1.47,0.7179269067290258,0.34947284440320714,0.5608705966862715,0.3328025603587417,0.5950754011252213,0.27741383090417626
543,30.922,30.6,1.43,0.7171407840479685,0.3494524539994856,0.5610368475307969,0.33503482917050653,0.5940174507583164,0.27672528078513753
544,30.963,30.65,1.54,0.7162690296088988,0.3493721965026436,0.5612134158190311,0.3372814042512164,0.5929311351467956,0.2761086821222985
545,31.024,30.71,1.54,0.7153113684317449,0.3492320351812743,0.5613998306478685,0.33954143100068623,0.5918165583480332,0.2755643507774143
546,31.064,30.76,1.5,0.7142676053222686,0.34903199534638757,0.5615956291073472,0.34181407826336313,0.5906738650592223,0.2750925565052397
547,31.105,30.82,1.53,0.7131376260802483,0.3487721640481612,0.5618003574617686,0.3440985389074648,0.5895032413331883,0.27469352293256866
548,31.188,30.87,1.56,0.7119213986036216,0.34845268968394766,0.5620135723116628,0.3463940303268588,0.588304915241378,0.2743674275662852
549,31.249,30.93,1.55,0.7106189738878252,0.34807378151873025,0.5622348417345692,0.3486997948646811,0.5870791574821737,0.2741144018301859
550,31.291,30.98,1.55,0.7092304869196158,0.3476357091192518,0.5624637464026288,0.3510151001579343,0.5858262819327702,0.27393453113035615
551,31.333,31.04,1.64,0.7077561574646775,0.34713880170312794,0.56269988067499,0.3533392394025924,0.584546646142937,0.2738278549489021
552,31.395,31.09,1.61,0.706196290748383,0.3465834474043649,0.5629428536630605,0.3556715315390098,0.5832406517690952,0.27379436696583614
553,31.436,31.15,1.57,0.7045512780291853,0.34597009245678323,0.5631922902667013,0.3580113213576647,0.581908744947269,0.27383401520887657
554,31.498,31.2,1.68,0.7028215970642805,0.3452992402969161,0.5634478321795677,0.36035797952544735,0.5805514166036239,0.27394670223088197
555,31.56,31.26,1.68,0.7010078124674092,0.3445714505879691,0.5637091388619474,0.36271090253283755,0.579169202701464,0.27413228531461736
556,31.622,31.31,1.65,0.6991105759588816,0.3437873381664344,0.5639758884795733,0.36506951256246783,0.5777626844237131,0.27439057670458644
557,31.664,31.37,1.69,0.6971306265080304,0.3429475719130276,0.5642477788069753,0.3674332572798583,0.5763324882900747,0.2747213438656764
558,31.724,31.42,1.7,0.6950687903683794,0.3420528735497165,0.5645245280939943,0.36980160954746166,0.5748792862082643,0.275124309768294
559,31.785,31.48,1.68,0.692925981005926,0.341104016364647,0.5648058758941703,0.3721740670634666,0.5734037954589072,0.2755991531995909
560,31.826,31.53,1.67,0.6907031989210015,0.3401018238668189,0.5650915838538012,0.374550151927123,0.5719067786138495,0.2761455091003874
561,31.93,31.59,1.75,0.6884015313641573,0.3390471683724857,0.56538143646054,0.37692941013272935,0.5703890433877756,0.2767629689274725
562,31.95,31.64,1.7,0.6860221519464472,0.33794096952543823,0.5656752417504589,0.37931141099480525,0.5688514424231456,0.27745108104105787
563,32.011,31.7,1.64,0.6835663201444324,0.33678419275352395,0.5659728319725865,0.38169574650728594,0.5672948730085944,0.27820935111726086
564,32.073,31.75,1.74,0.681035380700232,0.33557784766393606,0.5662740642099947,0.384082030639821,0.5657202767310674,0.27903724258556434
565,32.136,31.81,1.71,0.6784307629170726,0.33432298637995966,0.5665788209566045,0.38646989857442954,0.564128639062088,0.2799341770912726
566,32.157,31.86,1.67,0.6757539798509378,0.333020701822031,0.566887010648936,0.3888590058859247,0.5625209888786475,0.28089953498308895
567,32.218,31.92,1.7,0.6730066273990252,0.3316721259362224,0.5671985681520302,0.3912490276697751,0.5608983979193042,0.28193265582600857
568,32.299,31.97,1.71,0.6701903832858793,0.330278427873498,0.5675134551987605,0.3936396576213355,0.5592619801761816,0.28303283893969017
569,32.32,32.03,1.68,0.6673070059482664,0.32884081212320915,0.5678316607817775,0.3960306070705268,0.5576128912236752,0.28419934396239055
570,32.382,32.08,1.66,0.6643583333200374,0.32736051660439375,0.5681532014973745,0.3984216039761208,0.5559523274847692,0.2854313914404839
571,32.424,32.14,1.72,0.6613462815182979,0.32583881071861015,0.5684781218405925,0.4008123918838177,0.5542815254359683,0.28672816344351604
572,32.486,32.19,1.68,0.6582728434322267,0.3242769933682015,0.5688064944509396,0.40320272885222574,0.5526017607519476,0.28808880420465605
573,32.568,32.25,1.61,0.6551400872159262,0.3226763909439948,0.5691384203081536,0.40559238635069744,0.5509143473911118,0.28951242078632017
574,32.61,32.3,1.71,0.6519501546867795,0.32103835528647856,0.5694740288775046,0.4079811481328273,0.5492206366233541,0.29099808377065367
575,32.652,32.36,1.67,0.648705259630938,0.31936426162449966,0.5698134782041828,0.41036880908933926,0.5475220160013778,0.29254482797450143
576,32.714,32.41,1.62,0.6454076860177306,0.317655506495562,0.5701569549563863,0.41275517408407936,0.5458199082770159,0.29415165318850967
577,32.776,32.47,1.66,0.6420597861249009,0.31591350565195986,0.5705046744167612,0.41514005677691745,0.5441157702640415,0.2958175249400019
578,32.816,32.52,1.68,0.6386639785767226,0.31413969195712427,0.5708568804219148,0.4175232784373996,0.5424110916490524,0.29754137527919716
579,32.878,32.58,1.64,0.6352227462972744,0.3123355132765655,0.5712138452498483,0.41990466675290455,0.5407073937520971,0.2993221035882273
580,32.939,32.63,1.6,0.6317386343813733,0.31050243036771835,0.5715758694552764,0.42228405463490365,0.5390062282387933,0.3011585774123246
581,33.04,32.69,1.65,0.6282142478858328,0.3086419147729305,0.5719432816529182,0.4246612790267768,0.537309175785785,0.30304963331246526
582,33.06,32.74,1.6,0.6246522495438478,0.3067554467197528,0.5723164382489444,0.4270361797164964,0.5356178447014671,0.3049940777386735
583,33.101,32.8,1.53,0.6210553574054446,0.3048445130325815,0.5726957231208629,0.42940859815732446,0.5339338695039594,0.3069906879231353
584,33.164,32.85,1.64,0.6174263424070624,0.3029106050595722,0.5730815472462071,0.43177837629953564,0.5322589094583373,0.309038212792234
585,33.204,32.91,1.59,0.6137680258734851,0.30095521661858926,0.573474348280469,0.4341453554360118,0.5305946470751383,0.31113537389661267
586,33.285,32.96,1.53,0.6100832769555017,0.29897984196581906,0.5738745900848206,0.43650937506440357,0.5289427865721739,0.3132808663584048
587,33.306,33.02,1.57,0.6063750100068052,0.29698597379061986,0.574282762204255,0.4388702717684264,0.5273050523017107,0.31547335983478864
588,33.427,33.07,1.56,0.6026461819038115,0.29497510124012555,0.5746993792969188,0.44122787812073916,0.525683187145144,0.3177114994969556
589,33.448,33.13,1.54,0.5988997893122997,0.29294870797698075,0.5751249805155538,0.4435820216096928,0.5240789508773394,0.3199939070235131
590,33.487,33.18,1.51,0.5951388659049526,0.2909082702734329,0.5755601288421119,0.4459325235921077,0.5224941185028441,0.3223191816073192
591,33.548,33.24,1.55,0.5913664795339553,0.2888552551449142,0.5760054103767159,0.44827919827417856,0.5209304785661973,0.3246859009747352
592,33.609,33.29,1.48,0.5875857293628552,0.2867911185261631,0.576461433582263,0.4506218517225144,0.5193898314385985,0.32709262241625936
593,33.651,33.35,1.42,0.5837997429618748,0.2847173034928328,0.5769288284860812,0.4529602809072065,0.5178739875832055,0.3295378838274849
594,33.752,33.4,1.53,0.5800116733708053,0.2826352385314376,0.577408245840128,0.45529427277870743,0.5163847658013301,0.33202020475930855
595,33.772,33.46,1.48,0.5762246961335161,0.2805463358603616,0.5779003562412536,0.4576236033802247,0.5149239914617716,0.3345380874763209
596,33.814,33.51,1.44,0.5724420063079925,0.2784519898045531,0.5784058492130524,0.4599480369973118,0.5134934947154961,0.33709001802233507
597,33.875,33.57,1.48,0.5686668154556994,0.27635357522648113,0.5789254322508173,0.46226732534636883,0.5120951086978811,0.33967446729197276
598,33.915,33.62,1.46,0.5649023486140354,0.27425244601585536,0.5794598298311411,0.4645812068037292,0.5107306677207899,0.3422898921070986
599,33.977,33.68,1.43,0.5611518412557054,0.2721499336404368,0.5800097823878012,0.4668894056768249,0.5094020054568043,0.34493473629674287
600,34.06,33.73,1.41,0.5574185362389205,0.27004734576006584,0.5805760452556481,0.46919163151870896,0.5081109531179726,0.34760743177906533
601,34.122,33.79,1.46,0.5537056807523841,0.267945964905831,0.5811593875842936,0.471487578487048,0.5068593376314571,0.35030639964384136
602,34.142,33.84,1.4,0.5500165232591022,0.2658470472260851,0.5817605912234731,0.4737769247485446,0.5056489798144747,0.3530300512338989
603,34.182,33.9,1.33,0.5463543104430945,0.26375182130079194,0.582380449582043,0.47605933192960104,0.50448169255093,0.3557767892238804
604,34.244,33.95,1.42,0.5427222841630485,0.2616614870254965,0.5830197664626426,0.4783344446138989,0.5033592789721357,0.3585450086946358
605,34.305,34.01,1.36,0.5391236784168485,0.2595772145660278,0.5836793548741027,0.48060188988744595,0.5022835306439956,0.3613330982015042
606,34.366,34.06,1.29,0.5355617163207439,0.25750014338486227,0.5843600358237188,0.48286127693153336,0.5012562257629802,0.3641394408347303
607,34.408,34.12,1.34,0.5320396071067196,0.2554313813399182,0.5850626370915065,0.4851121966640078,0.5002791273631728,0.36696241527027806
608,34.491,34.17,1.31,0.5285605431415049,0.25337200385634234,0.5857879919885784,0.4873542214291842,0.49935398153661315,0.36980039680931076
609,34.511,34.23,1.27,0.5251276969706117,0.25132305317155057,0.5865369381018093,0.48958690473657956,0.4984825156691014,0.3726517584046941
610,34.593,34.28,1.26,0.5217442183907581,0.24928553765349848,0.5873103160269582,0.4918097810485144,0.4976664366935425,0.3755148716730401
611,34.634,34.34,1.29,0.5184132315539763,0.24726043119194205,0.5881089680923888,0.4940223656165764,0.4969074293628408,0.37838810789098665
612,34.695,34.39,1.25,0.5151378321066714,0.24524867266225883,0.5889337370755121,0.4962241543668836,0.4962071545442875,0.3812698389745722
613,34.737,34.45,1.2,0.5119210843668803,0.24325116546120676,0.5897854649140785,0.4984146238340154,0.49556724753731474,0.3841584384407149
614,34.799,34.5,1.28,0.5087660185429177,0.24126877711382874,0.5906649914144356,0.500593231143397,0.49498931641642746,0.3870522823499232
615,34.861,34.56,1.22,0.5056756279965093,0.23930233895053843,0.591573152958861,0.5027594140418192,0.49447494040107026,0.3899497502294399
616,34.922,34.61,1.14,0.5026528665533674,0.23735264585326224,0.5925107812140347,0.5049125909756845,0.4940256682541307,0.39284922597608685
617,34.985,34.67,1.2,0.49970064586397267,0.23542045606938528,0.5934787018426514,0.5070521612165177,0.4936430167107223,0.39574909873812747
618,35.026,34.72,1.18,0.4968218328171731,0.23350649109206117,0.5944777332201108,0.50917750503317,0.49332846893881116,0.3986477637755075
619,35.087,34.78,1.14,0.49401924700911354,0.23161143560515315,0.5955086851581795,0.5112879839099506,0.49308347303313277,0.4015436232979411
620,35.15,34.83,1.14,0.4912956582698882,0.22973593749076662,0.5965723576374588,0.513382940809725,0.4929094405437175,0.4044350872804448
621,35.209,34.89,1.18,0.4886537842501789,0.22788060789709536,0.5976695395504252,0.5154617004808929,0.49280774504023345,0.4073205742560308
622,35.269,34.94,1.14,0.4860962880700494,0.22604602136409643,0.5988010074567818,0.5175235698070216,0.4927797207132804,0.4101985120853777
623,35.29,35.0,1.1,0.4836257760320189,0.22423271600433173,0.5999675243528422,0.5195678381977757,0.49282666101369593,0.4130673387034252
624,35.353,35.05,1.18,0.4812447954005026,0.2224411937361622,0.6011698384566738,0.5215937780196427,0.49294981733087956,0.41592550284294655
625,35.414,35.11,1.13,0.4789558322497092,0.22067192056630475,0.6024086820107099,0.523600645064783,0.49315039771109886,0.41877146473523374
626,35.476,35.16,1.05,0.47676130938207617,0.21892532691858513,0.6036847701035304,0.5255876790561654,0.49342956561669155,0.4216036967881024
627,35.517,35.22,1.11,0.47466358431926103,0.21720180800561176,0.6049987995124659,0.5275541041870442,0.49378843872702705,0.4244206842414829
628,35.6,35.27,1.09,0.47266494736763265,0.21550172424001635,0.6063514475686382,0.5294991296927468,0.49422808778202176,0.42722092580091936
629,35.62,35.33,1.05,0.4707676197600955,0.21382540168183506,0.6077433710460081,0.5314219504526584,0.4947495354688902,0.43000293424939656
630,35.683,35.38,1.05,0.4689737518758911,0.21217313251860145,0.6091752050759142,0.5333217476202732,0.49535375535268467,0.4327652370380251
631,35.743,35.44,1.08,0.46728542153977104,0.21054517557477825,0.6106475620884738,0.5351976892792416,0.49604167085105544,0.43550637685619686
632,35.784,35.49,1.05,0.46570463240172816,0.20894175684721944,0.612161030782119,0.5370489311233969,0.4968141542535553,0.4382249121818814
633,35.846,35.55,1.03,0.4642333123982775,0.20736307006344434,0.6137161751224651,0.5388746171587997,0.4976720257856958,0.44091941781283
634,35.907,35.6,1.12,0.46287331229611345,0.20580927725965184,0.6153135333716372,0.5406738804259179,0.4986160527178791,0.44358848537953854
635,35.988,35.66,1.07,0.46162640431885954,0.2042805093755631,0.6169536171491173,0.5424458437401217,0.49964694851926517,0.4462307238408656
636,36.008,35.71,1.01,0.46049428085755595,0.20277686686333976,0.6186369105251249,0.5441896204486903,0.500765372056597,0.44884475996321016
637,36.07,35.77,1.11,0.4594785532654689,0.20129842030798886,0.6203638691474997,0.5459043152025238,0.501971926837986,0.45142923878413355
638,36.11,35.82,1.09,0.4585807507377582,0.1998452110568193,0.622134919403043,0.5475890247406923,0.503267160301634,0.4539828240612991
639,36.172,35.88,1.05,0.45780231927645587,0.19841725185567655,0.6239504576142458,0.5492428386858474,0.5046515631494181,0.45650419870764164
640,36.232,35.93,1.06,0.4571446207409908,0.19701452748992368,0.6258108492722665,0.550864840348498,0.5061255687252065,0.45899206521370806
641,36.334,35.99,1.08,0.4566089319842207,0.19563699542842528,0.627716428306901,0.5524541075382204,0.5076895524377415,0.46144514605807035
642,36.355,36.04,1.05,0.45619644407366694,0.19428458646901095,0.6296674963941733,0.5540097133799713,0.5093438312278704,0.4638621841066507
643,36.397,36.1,1.04,0.45590826159736925,0.19295720538410788,0.6316643223020241,0.5555307271337946,0.5110886630798442,0.4662419430017958
644,36.477,36.15,1.12,0.4557454020534271,0.19165473156549034,0.6337071412743994,0.557016215016412,0.5129242465763109,0.46858320754195165
645,36.498,36.21,1.08,0.4557087953219453,0.19037701966736098,0.635796154453874,0.5584652410233386,0.514850720496566,0.4708847840527741
646,36.56,36.26,1.04,0.4557992832177925,0.18912390024718093,0.6379315283428166,0.5598768677502658,0.516868163457558,0.4731455007504842
647,36.6,36.32,1.18,0.45601761912237193,0.1878951804038312,0.6401133943030292,0.5612501572125257,0.518976593597122,0.475364208098225
648,36.702,36.37,1.17,0.4563644676925167,0.18669064441277444,0.642341848093779,0.5625841716615256,0.5211759682989058,0.4775397791561257
649,36.722,36.43,1.14,0.45684040464459547,0.18551005435795725,0.6446169494481323,0.5638779743971362,0.5234661839584687,0.4796711099257268
650,36.785,36.48,1.18,0.4574459166118217,0.18435315076033137,0.646938721687456,0.5651306305752039,0.5258470757900873,0.4817571196892664
651,36.827,36.54,1.2,0.45818140107266697,0.18321965320302355,0.6493071513738845,0.5663412080095371,0.5283184176739134,0.4837967513440584
652,36.889,36.59,1.18,0.45904716634823134,0.1821092609532782,0.6517221880005059,0.5675087779677899,0.5308799220432239,0.4857889717319475
653,36.951,36.65,1.16,0.46004343166636913,0.18102165358139174,0.6541837437189827,0.5686324159607169,0.5335312398115617,0.48773277196370207
654,37.013,36.7,1.23,0.4611703272902324,0.1799564915770254,0.6566916931042601,0.5697112025243912,0.5362719603395947,0.4896271677381776
655,37.074,36.76,1.19,0.46242789470872403,0.17891341696344623,0.6592458729559378,0.5707442239951187,0.5391016114415279,0.49147119965607666
656,37.116,36.81,1.14,0.4638160868861892,0.17789205391033794,0.6618460821357698,0.5717305732769202,0.5420196594308918,0.49326393352816333
657,37.199,36.87,1.26,0.465334768568556,0.1768920093458127,0.6644920814406402,0.5726693506015628,0.5450255092055007,0.49500446067782566
658,37.219,36.92,1.25,0.4669837166431223,0.17591287356816376,0.6671835935102614,0.5735596642811787,0.5481185043713505,0.49669189823792476
659,37.282,36.98,1.22,0.4687626205492232,0.17495422085781176,0.6699203027687803,0.5744006314535605,0.5512979274052033,0.4983253894419315
660,37.323,37.03,1.28,0.47067108273706554,0.17401561008990568,0.6727018553994485,0.575191378820334,0.5545629998556233,0.4999041039093522
661,37.386,37.09,1.3,0.47270861917214557,0.17309658534807848,0.6755278593515208,0.5759310433783191,0.5579128825822972,0.5014272379253413
662,37.428,37.14,1.29,0.4748746598829095,0.1721966765398034,0.6783978843786408,0.5766187731443839,0.5613466760335502,0.5028940147142593
663,37.491,37.2,1.28,0.4771685495495897,0.17131540001372278,0.681311462108049,0.5772537278740555,0.5648634205620398,0.5043036847068366
664,37.554,37.25,1.35,0.479589548132385,0.17045225917927806,0.6842680861400244,0.5778350797741457,0.5684620967786791,0.505655525800536
665,37.597,37.31,1.3,0.48213683153738157,0.16960674512892462,0.6872672121770202,0.5783620142096383,0.5721416259449017,0.5069488436126457
666,37.659,37.36,1.24,0.4848094923188298,0.16877833726316255,0.6903082581820126,0.5788337304050447,0.5759008704034195,0.5081829717255963
667,37.721,37.42,1.36,0.4876065404165727,0.16796650391855866,0.6933906045656147,0.5792494421403781,0.5797386340476406,0.5093572719239524
668,37.823,37.47,1.32,0.4905269039275764,0.16717070299887643,0.6965135944015535,0.5796083784418188,0.5836536628298913,0.5104711344225412
669,37.843,37.53,1.29,0.4935694299105996,0.16639038260939046,0.6996765336701306,0.579909784267079,0.5876446453085422,0.511523978085213
670,37.906,37.58,1.35,0.4967328852230444,0.16562498169449097,0.7028786915293054,0.5801529211854661,0.591710213234099,0.512515250633754
671,37.926,37.64,1.36,0.5000159573890733,0.16487393067867126,0.7061193006130781,0.5803370680526129,0.595848942174318,0.513444428846402
672,37.988,37.69,1.35,0.5034172554982197,0.16413665211086545,0.7093975573569359,0.5804615216797168,0.6000593521784146,0.5143110187453294
673,38.05,37.75,1.35,0.5069353111339002,0.16341256131195814,0.7127126223502106,0.5805255974970139,0.6043399084804373,0.5151145557724119
674,38.091,37.8,1.43,0.5105685793314441,0.16270106702520953,0.7160636207152938,0.5805286302111305,0.6086890222419143,0.5158546049525765
675,38.173,37.86,1.39,0.5143154395654986,0.16200157206929197,0.7194496425137697,0.5804699744558784,0.6131050513339044,0.5165307610439911
676,38.215,37.91,1.35,0.5181741967669504,0.16131347399359777,0.722869743179653,0.58034900543597,0.6175863011586283,0.517142648674353
677,38.255,37.97,1.46,0.5221430823697383,0.1606361657354573,0.7263229439800278,0.5801651195630696,0.6221310255108967,0.5176899224624923
678,38.317,38.02,1.4,0.5262202553881611,0.1599690362788554,0.729808232503471,0.5799177350835338,0.6267374274795898,0.5181722671244952
679,38.379,38.08,1.35,0.5304038035254458,0.15931147131419426,0.7333245631766925,0.579606292697165,0.6314036603894475,0.5185893975635958
680,38.419,38.13,1.41,0.5346917443144349,0.1586628538986505,0.7368708578098275,0.5792302561663389,0.6361278287834181,0.5189410589431415
681,38.541,38.19,1.39,0.5390820262913397,0.15802256511662868,0.7404460061707784,0.5787891129149331,0.6409079894457859,0.5192270267419836
682,38.582,38.24,1.37,0.543572530203592,0.1573899847396865,0.7440488665889499,0.5782823746164962,0.6457421524662206,0.5194471067917079
683,38.602,38.3,1.36,0.5481610702528011,0.15676449188519045,0.747678266588632,0.5777095777711173,0.6506282823447963,0.5196011352952161
684,38.645,38.35,1.42,0.5528453953737235,0.1561454656728995,0.7513330035521749,0.5770702842704589,0.6555642991379207,0.519688978826233
685,38.705,38.41,1.39,0.5576231905500639,0.1555322858785958,0.7550118454130336,0.5763640819503473,0.6605480796450198,0.5197105343093587
686,38.765,38.46,1.36,0.5624920781679215,0.15492433358377572,0.7587135313786926,0.5755905851301885,0.6655774586357308,0.5196657289803405
687,38.826,38.52,1.47,0.567449619407712,0.15432099182031409,0.7624367726834159,0.5747494351383354,0.6706502301172739,0.5195545203262956
688,38.909,38.57,1.42,0.5724933156754675,0.15372164620890988,0.766180253370711,0.5738403008223559,0.6757641486416225,0.519376896005666
689,38.93,38.63,1.36,0.5776206100744657,0.15312568559005507,0.7699426311053438,0.5728628790429656,0.6809169306520373,0.5191328737477489
690,38.971,38.68,1.44,0.5828288889181737,0.1525325026462406,0.7737225380146917,0.5718168951502562,0.6861062558685006,0.5188225012316836
691,39.032,38.74,1.43,0.5881154832855119,0.15194149451409777,0.7775185815592028,0.570702103440702,0.6913297687115431,0.5184458559448288
692,39.096,38.79,1.39,0.5934776706194458,0.1513520633851221,0.781329345431691,0.5695182875933087,0.69658507976387,0.5180030450205642
693,39.179,38.85,1.39,0.5989126763697892,0.15076361709364042,0.7851533904851232,0.5682652610832573,0.7018697672690869,0.517494205055702
694,39.2,38.9,1.42,0.6044176756808948,0.1501755696907438,0.78898925568842,0.5669428675715084,0.7071813786667193,0.5169195019077905
695,39.263,38.96,1.38,0.6099897951247053,0.149587342002948,0.7928354591096776,0.5655509812689207,0.7125174321625973,0.5162791304726955
696,39.326,39.01,1.37,0.6156261144794047,0.1489983621743675,0.7966904989261181,0.5640895072734995,0.7178754183335291,0.5155733144429892
697,39.368,39.07,1.46,0.6213236685536255,0.14840806619124589,0.8005528544599699,0.5625583818794554,0.7232528017650178,0.5148023060478181
698,39.41,39.12,1.43,0.6270794490558834,0.14781589838775228,0.8044209872393857,0.5609575728568232,0.7286470227206298,0.5139663857750243
699,39.472,39.18,1.38,0.6328904065086385,0.14722131193202337,0.80829334208342,0.5592870797004865,0.7340554988414807,0.5130658620763336
700,39.534,39.23,1.49,0.6387534522061525,0.14662376929153773,0.8121683482100196,0.5575469338475738,0.7394756268742213,0.5121010710564302
701,39.574,39.29,1.49,0.6446654602151441,0.1460227426770133,0.816044420365945,0.5557371988622911,0.7449047844258188,0.5110723761467325
702,39.636,39.34,1.46,0.6506232694170822,0.14541771446414994,0.8199199599774852,0.5538579705873555,0.7503403317433605,0.5099801677647323
703,39.696,39.4,1.5,0.6566236855907234,0.14480817759274806,0.8237933563207445,0.551909377261382,0.7557796135170419,0.5088248629597985
704,39.758,39.45,1.53,0.6626634835332577,0.14419363594296603,0.827662987710155,0.5498915796017921,0.7612199607044796,0.5076069050463091
705,39.82,39.51,1.52,0.668739409218235,0.14357360468865057,0.8315272227037888,0.5478047708529505,0.7666586923744568,0.506326763224928
706,39.861,39.56,1.51,0.6748481819882822,0.14294761062781694,0.8353844213239705,0.5456491767993691,0.7720931175681567,0.5049849321928422
707,39.923,39.62,1.59,0.680986496780392,0.14231519249051025,0.8392329362916016,0.5434250557440153,0.7775205371758722,0.503581931743795
708,40.005,39.67,1.56,0.687151026381335,0.14167590122442628,0.8430711142724953,0.5411326984520173,0.7829382458271145,0.5021183063587498
709,40.026,39.73,1.53,0.6933384237104765,0.14102930025878446,0.8468972971339152,0.5387724280602912,0.7883435337919783,0.5005946247880034
710,40.067,39.78,1.67,0.6995453241270396,0.14037496574704403,0.8507098232093931,0.5363445999538505,0.7937336888915666,0.499011479625521
711,40.129,39.84,1.66,0.7057683477586764,0.13971248678910358,0.8545070285698291,0.5338496016097299,0.7991059984152322,0.4973694868762065
712,40.191,39.89,1.64,0.7120041018480824,0.13904146563367506,0.8582872482988042,0.5312878524096241,0.8044577510423531,0.49566928551678796
713,40.252,39.95,1.73,0.7182491831142801,0.13836151786164613,0.8620488177699914,0.528659803422547,0.8097862387663737,0.4939115370509228
714,40.314,40.0,1.77,0.72450018012515,0.1376722725513734,0.8657900739245515,0.5259659371589688,0.8150887588188995,0.49209692505901015
715,40.437,40.06,1.78,0.7307536756778849,0.1369733724268954,0.8695093565464999,0.5232067672978722,0.8203626155917093,0.4902261547430766
716,40.458,40.11,1.78,0.7370062491841599,0.13626447399008734,0.873205009534161,0.5203828383880846,0.8256051225546223,0.4882999524670348
717,40.478,40.17,1.88,0.7432544790569301,0.13554524763784767,0.87687538216596,0.5174947255252033,0.830813604167255,0.48631906529256397
718,40.519,40.22,1.85,0.7494949450958999,0.1348153777654675,0.8805188303589409,0.5145430340054369,0.8359853977828063,0.48428426051082346
719,40.561,40.28,1.81,0.7557242308688717,0.1340745628573405,0.8841337179185323,0.51152839895774,0.8411178555421018,0.4821963251702111
720,40.622,40.33,1.95,0.7619389260863366,0.13332251556614788,0.8877184177781897,0.5084514849557058,0.8462083462562026,0.48005606560040887
721,40.684,40.39,1.92,0.7681356289668073,0.13255896278160176,0.8912713132276392,0.5053129856108156,0.8512542572759324,0.47786430693300397
722,40.746,40.44,1.89,0.7743109485904973,0.13178364568981454,0.894790799128503,0.5021136231488474,0.8562529963467115,0.4756218926190505
723,40.787,40.5,1.97,0.7804615072389561,0.13099631982441926,0.8982752831160906,0.4988541479715268,0.861201993447114,0.47332968394395597
724,40.847,40.55,1.99,0.7865839427183082,0.13019675511060588,0.9017231867861463,0.49553533820571916,0.8660987026096204,0.4709885595399769
725,40.908,40.61,2.0,0.7926749106638461,0.12938473590317393,0.9051329468654025,0.49215799924246323,0.8709406037220815,0.46859941489649387
726,40.97,40.66,2.01,0.7987310868238767,0.12856006101961626,0.9085030163648679,0.4887229632680313,0.8757252043084606,0.4661631618681371
727,41.012,40.72,2.09,0.804749169320895,0.1277225437692114,0.9118318657148514,0.4852310887890918,0.8804500412874884,0.4636807281807469
728,41.154,40.77,2.07,0.8107258808884195,0.12687201197905296,0.9151179838808386,0.48168326015390217,0.8851126827079574,0.461153056935053
729,41.175,40.83,2.04,0.8166579710820986,0.12600830801789373,0.91835987945943,0.47808038707128264,0.8897107294594657,0.4585811061078735
730,41.196,40.88,2.15,0.8225422184639388,0.12513128881862387,0.9215560817536319,0.47442340412891826,0.8942418169574954,0.45596584805053375
731,41.238,40.94,2.11,0.8283754327586808,0.12424082590013545,0.924705141826884,0.470713270312273,0.898703616801778,0.4533082689841096
732,41.299,40.99,2.05,0.8341544569814661,0.12333680538925823,0.927805633535327,0.46695096852507767,0.9030938384069401,0.450609368491036
733,41.339,41.05,2.11,0.8398761695359894,0.12241912804340783,0.9308561545379704,0.4631375051120104,0.9074102306044527,0.44787015900257515
734,41.4,41.1,2.1,0.8455374862824199,0.1214877092744771,0.9338553272845548,0.45927390938382473,0.9116505832149127,0.44509166528161787
735,41.48,41.16,2.08,0.8511353625745028,0.12054247917427133,0.9368017999809987,0.4553612331447995,0.9158127285896351,0.4422749239003397
736,41.501,41.21,2.08,0.8566667952653193,0.11958338254154786,0.9396942475323166,0.4514005502220936,0.9198945431204383,0.4394209827123709
737,41.564,41.27,2.15,0.8621288246811889,0.11861037891051332,0.9425313724628288,0.4473929559964001,0.9238939487164067,0.4365309003192524
738,41.625,41.32,2.14,0.8675185365632323,0.11762344258042644,0.9453119058134225,0.4433395669331005,0.9278089142463384,0.43360574553104597
739,41.667,41.38,2.12,0.8728330639761718,0.11662256264575477,0.9480346080155703,0.4392415201128901,0.9316374569455121,0.4306465968210552
740,41.729,41.43,2.26,0.878069589184058,0.1156077430261666,0.9506982697417914,0.43509997276057416,0.9353776437853963,0.42765454177467777
741,41.81,41.49,2.22,0.88322534549278,0.11457900249547692,0.9533017127322573,0.43091610177042877,0.9390275928049384,0.4246306765324494
742,41.851,41.54,2.18,0.8882976190594049,0.11353637470852314,0.9558437905972726,0.42669110322629034,0.9425854744021298,0.42157610522739536
743,41.892,41.6,2.28,0.8932837506685518,0.11247990822486913,0.9583233895953872,0.42242619191446973,0.9460495125846359,0.4184919394168473
744,41.954,41.65,2.27,0.8981811374761544,0.11140966652819977,0.9607394293869017,0.41812260082762553,0.9494179861783733,0.41537929750894204
745,42.015,41.71,2.23,0.9029872347210744,0.11032572804023931,0.9630908637625478,0.4137815806578026,0.9526892299929738,0.41223930418414134
746,42.058,41.76,2.24,0.9076995574050105,0.10922818612806383,0.9653766813470942,0.40940439927697814,0.9558616359430924,0.40907308981225965
747,42.118,41.82,2.28,0.9123156819410305,0.10811714910376088,0.9675959062776035,0.40499234120365285,0.9589336541245251,0.4058817898656118
748,42.221,41.87,2.25,0.9168332477709378,0.10699274021544902,0.9697475988560446,0.40054670705419093,0.9619037938440839,0.4026665443290158
749,42.242,41.93,2.25,0.9212499589514973,0.10585509762873124,0.9718308561759381,0.3960688129778116,0.964770624602123,0.39942849710755035
750,42.284,41.98,2.35,0.9255635857093022,0.10470437439777491,0.9738448127226401,0.39155999007436687,0.9675327770265553,0.3961687954330962
751,42.366,42.04,2.33,0.929771965963775,0.10354073842535245,0.9757886409467894,0.3870215837942352,0.970188943757153,0.3928885892707477
752,42.386,42.09,2.29,0.9338730068175537,0.10236437241130342,0.9776615518103775,0.3824549533197929,0.9727378802789283,0.3895890307261662
753,42.469,42.15,2.42,0.9378646860133281,0.10117547378900826,0.9794627953048618,0.37786147092800887,0.9751784057034225,0.3862712734549036
754,42.51,42.2,2.42,0.9417450533561292,0.09997425464956115,0.9811916609407493,0.3732425213337756,0.9775094034968098,0.3829364720746959
755,42.573,42.26,2.41,0.9455122321000505,0.09876094165343954,0.9828474782080885,0.36859950101368666,0.97972982215379,0.3795857815817759
756,42.614,42.31,2.46,0.9491644202982923,0.09753577592965405,0.9844296170072694,0.36393381751020903,0.9818386758163526,0.3762203567723059
757,42.655,42.37,2.5,0.95269989211534,0.09629901296256561,0.9859374880494804,0.3592468887165137,0.9838350448366342,0.37284135167001276
758,42.717,42.42,2.48,0.9561169991000451,0.09505092246667621,0.9873705432261487,0.3545401421424911,0.9857180762832376,0.36944991896105506
759,42.778,42.48,2.48,0.959414171418333,0.09379178824979016,0.9887282759466938,0.3498150141627298,0.987486984390516,0.3660472094371265
760,42.818,42.53,2.56,0.9625899190441315,0.09252190806507629,0.9900102214439138,0.3450729492475186,0.9891410509504464,0.3626343714477738
761,42.88,42.59,2.52,0.9656428329069293,0.09124159345269986,0.9912159570463076,0.34031539917821035,0.9906796256468295,0.35921255036286015
762,42.942,42.64,2.47,0.9685715859941482,0.08995116957179573,0.9923451024166108,0.33554382224854873,0.992102126331634,0.3557828880460533
763,43.003,42.7,2.6,0.9713749344062471,0.08865097502362548,0.9933973197557787,0.33075968245376625,0.9934080392433836,0.35234652234013975
764,43.064,42.75,2.59,0.9740517183622484,0.08734136166678237,0.9943723139716331,0.32596444866938523,0.9945969191675411,0.3489045865649035
765,43.104,42.81,2.56,0.9766008631531631,0.08602269442534152,0.9952698328113848,0.3211595938217108,0.9956683895388873,0.3454582090282701
766,43.165,42.86,2.62,0.9790213800406397,0.08469535109095973,0.9960896669572596,0.31634659405209253,0.9966221424859677,0.3420085125513505
767,43.207,42.92,2.65,0.9813123670981124,0.08335972212003485,0.9968316500845248,0.3115269278770771,0.9974579388178036,0.338556614007869
768,43.309,42.97,2.63,0.983473009991849,0.08201621042702856,0.9974956588813898,0.30670207534646793,0.9981756079531933,0.33510362387833575
769,43.33,43.03,2.63,0.9855025826994853,0.08066523117498442,0.998081613030452,0.3018735172011566,0.9987750477930502,0.3316506458192702
770,43.392,43.08,2.7,0.9874004481638325,0.07930721156421387,0.998589475151553,0.2970427340324852,0.9992562245363538,0.32819877624778204
771,43.433,43.14,2.66,0.9891660588799389,0.07794259062004653,0.9990192507061073,0.2922112054448388,0.9996191724404014,0.32474910394182377
772,43.494,43.19,2.6,0.9907989574136045,0.07657181898044622,0.9993709878631403,0.2873804092231343,0.9998639935261608,0.3213027096564397
773,43.555,43.25,2.73,0.9922987768497167,0.07519535868421359,0.9996447773274482,0.2825518205068724,0.9999908572296072,0.3178606657563344
774,43.617,43.3,2.67,0.9936652411689362,0.07381368296039124,0.999840752130424,0.27772691097239943,1.0,0.31442403586507683
775,43.699,43.36,2.62,0.9948981655513705,0.07242727601939476,0.9999590873842229,0.27290714802502025,0.9998917248460975,0.31099387453128063
776,43.72,43.41,2.69,0.9959974566059198,0.07103663284634189,1.0,0.26809399400264383,0.9996664008313566,0.3075712269120882
777,43.761,43.47,2.68,0.9969631125240356,0.06964225899694904,0.9999637483710597,0.26328890539262834,0.9993244625192174,0.30415712847418375
778,43.823,43.52,2.68,0.9977952231567664,0.06824467039615259,0.9998506320218687,0.2584933320633315,0.9988664093696049,0.30075260471242343
779,43.864,43.58,2.67,0.9984939700141044,0.06684439313936495,0.9996609912240103,0.2537087165116852,0.9982928050878198,0.2973586708860229
780,43.926,43.63,2.74,0.9990596261857841,0.06544196329608255,0.9993952065802322,0.24893649312797833,0.9976042769270326,0.293976331772064
781,43.989,43.69,2.69,0.9994925561828888,0.06403792671539045,0.9990536985778441,0.24417808747893288,0.9968015149456727,0.29060658143587736
782,44.049,43.74,2.63,0.9997932156998335,0.06263283883275939,0.9986369271128176,0.23943491561007557,0.9958852712210868,0.28725040301765925
783,44.111,43.8,2.73,0.9999621512964514,0.0612272644774437,0.9981453909860074,0.23470838336834426,0.9948563590209096,0.28390876853447394
784,44.152,43.85,2.67,1.0,0.05982177767972515,0.9975796273729636,0.22999988574579006,0.9937156519336539,0.2805826386966135
785,44.213,43.91,2.6,0.9999074888269226,0.058416961477214646,0.9969402112687838,0.22531080624512412,0.99246408296004,0.2772729627371587
786,44.295,43.96,2.65,0.9996854342241491,0.05701340771942179,0.996227754909426,0.22064251626775233,0.9911026435665984,0.27398067825349287
787,44.315,44.02,2.62,0.9993347414297437,0.055611716869733645,0.9954429071708739,0.21599637452475284,0.989632382703057,0.27070671105942556
788,44.459,44.07,2.57,0.9988564037527735,0.05421249780379135,0.994586352947531,0.21137372647096875,0.9880544057849827,0.2674519750465643
789,44.48,44.13,2.56,0.9982515017722954,0.05281636760311179,0.9936588125111476,0.20677590376211796,0.9863698736430481,0.2642173720536135
790,44.5,44.18,2.59,0.997521202455315,0.051423951342719695,0.9926610408514576,0.20220422373460692,0.9845800014401924,0.26100379174232174
791,44.521,44.24,2.56,0.9966667581935718,0.050035881871447946,0.9915938269995557,0.19765998890749492,0.9826860575578419,0.2578121114788305
792,44.582,44.29,2.52,0.9956895057590582,0.048652799583430474,0.9904579933349169,0.19314448650576743,0.9806893624522554,0.25464319621921216
793,44.642,44.35,2.62,0.9945908651783297,0.04727535217916463,0.9892543948768402,0.18865898800378653,0.9785912874819872,0.2514978983980208
794,44.704,44.4,2.55,0.9933723385259059,0.04590419441438202,0.9879839185610376,0.18420474868750547,0.9763932537074157,0.248377057818716
795,44.787,44.46,2.49,0.992035508637366,0.04453998783486684,0.9866474825020458,0.17978300723381713,0.9740967306632662,0.24528150154488473
796,44.807,44.51,2.56,0.9905820377430429,0.04318340049533795,0.985246035242111,0.17539498530529418,0.9717032351050584,0.24221204379125738
797,44.868,44.57,2.55,0.989013666023572,0.04183510666048991,0.9837805549871875,0.17104188715851962,0.9692143297303951,0.2391694858136042
798,44.928,44.62,2.51,0.987332210088897,0.04049578648627383,0.9822520488306783,0.1667248992641694,0.9666316218759661,0.23615461579675018
799,44.99,44.68,2.49,0.9855395613825515,0.03916612567959802,0.9806615519654862,0.16244518993707555,0.9639567621910848,0.23316820874010616
800,45.051,44.73,2.51,0.9836376845131655,0.03784681513486144,0.9790101268848581,0.15820390897463887,0.9611914432885432,0.23021102634021964
801,45.072,44.79,2.46,0.9816286155152779,0.03653855054596253,0.9772988625724457,0.15400218730207316,0.9583373983735295,0.22728381686994006
802,45.153,44.84,2.43,0.9795144600416699,0.0352420319926237,0.9755288736819594,0.1498411366230352,0.9553963998512983,0.22438731505395285
803,45.193,44.9,2.52,0.9772973914895271,0.03395796350005379,0.9737012997067641,0.14572184907424185,0.9523702579141965,0.2215222419406349
804,45.256,44.95,2.47,0.9749796490628,0.03268705257113798,0.9718173041397774,0.14164539688267722,0.9492608191085574,0.21868930477036191
805,45.297,45.01,2.41,0.9725635357731449,0.03143000969049244,0.9698780736240565,0.13761283202399452,0.946069964881909,0.21588919684052743
806,45.357,45.06,2.51,0.9700514163818658,0.030187547799893976,0.9678848170944659,0.13362518588079544,0.9427996101109061,0.21312259736760306
807,45.418,45.12,2.5,0.9674457152853565,0.028960381744758037,0.9658387649108104,0.12968346889961443,0.9394517016103997,0.21039017134662089
808,45.52,45.17,2.47,0.964748914346652,0.02774922769154135,0.9637411679827774,0.12578867024564355,0.9360282166240593,0.20769256940856823
809,45.541,45.23,2.49,0.961963550675697,0.026554802516255534,0.9615932968869391,0.12194175745453363,0.9325311612969871,0.2050304276763154
810,45.581,45.28,2.52,0.9590922143609248,0.025377823164626327,0.959396440975981,0.11814367608092952,0.928962569130824,0.20240436761977387
811,45.644,45.34,2.49,0.9561375461547426,0.02421900598472338,0.9571519074802775,0.11439534934363595,0.9253244994219199,0.1998149959110455
812,45.706,45.39,2.47,0.953102235115524,0.023079066033151796,0.9548610206019141,0.11069767776752253,0.9216190356831939,0.19726290428041013
813,45.745,45.45,2.55,0.949989016208631,0.021958716356218436,0.952525120601218,0.10705153882253132,0.9178482840503818,0.1947486693740754
814,45.786,45.5,2.5,0.9468006678688607,0.02085866724779597,0.9501455628758293,0.10345778656039246,0.9140143716734068,0.19227285261463983
815,45.889,45.56,2.43,0.9435400095265766,0.019779625485854845,0.9477237170323218,0.0999172512498365,0.9101194450936811,0.18983600006519216
816,45.908,45.61,2.54,0.9402098990996103,0.018722293549817047,0.945260965950365,0.09643073901123174,0.9061656686081854,0.18743864229787566
817,45.969,45.67,2.51,0.9368132304529044,0.017687368820977285,0.9427587048394135,0.09299903145166445,0.9021552226212243,0.18508129426763487
818,46.009,45.72,2.47,0.9333529308277002,0.016675542768330033,0.9402183402879035,0.08962288530157084,0.8980903019847848,0.18276445519179657
819,46.07,45.78,2.52,0.9298319582418924,0.015687500122307244,0.9376412893048871,0.08630303205419437,0.8939731143284554,0.18048860843608733
820,46.133,45.83,2.54,0.9262532988630394,0.0147239180391204,0.9350289783540167,0.08304017760931193,0.8898058783799377,0.17825422140758168
821,46.257,45.89,2.52,0.9226199643555484,0.013785465258472417,0.9323828423798323,0.07983500192275517,0.8855908222772872,0.17606174545495698
822,46.278,45.94,2.5,0.9189349892036466,0.012872801257438107,0.9297043238263574,0.07668815866334609,0.881330181874111,0.17391161577635617
823,46.3,46.0,2.57,0.9152014280118402,0.011986575403399289,0.9269948716480538,0.07360027487904708,0.8770261990390792,0.17180425133511615
824,46.363,46.05,2.53,0.9114223527846254,0.011127426109025505,0.9242559403132371,0.07057195067431747,0.8726811199512224,0.16974005478359666
825,46.404,46.11,2.49,0.907600850187265,0.010295979992396835,0.9214889888001111,0.06760375890080744,0.8682971933926147,0.1677194123953517
826,46.464,46.16,2.56,0.9037400187894323,0.00949285104545314,0.9186954795856423,0.06469624486361947,0.8638766690401433,0.16574269400588343
827,46.506,46.22,2.5,0.8998429662935172,0.008718639813964089,0.9158768776275475,0.061849926045389456,0.859421795758188,0.16381025296219387
828,46.567,46.27,2.42,0.8959128067494114,0.00797393259212164,0.9130346493397492,0.059065291850403184,0.8549348198941127,0.1619224260813273
829,46.63,46.33,2.46,0.8919526577576357,0.007259300634693926,0.9101702615617592,0.056342803370875924,0.8504179835785476,0.16007953361806276
830,46.692,46.38,2.45,0.887965637662803,0.0065752993894146175,0.9072851805225896,0.05368289317734515,0.8458735230324669,0.15828187924187875
831,46.732,46.44,2.43,0.8839548627395696,0.0059224677519196765,0.9043808707999437,0.051085965134864214,0.841303666883039,0.15652975002331096
832,46.794,46.49,2.4,0.8799234443733404,0.0053013273452392805,0.9014587942755617,0.04855239424646883,0.8367106344901838,0.15482341642985106
833,46.855,46.55,2.44,0.8758744862380863,0.004712381825615694,0.8985204090876808,0.04608252652524504,0.8320966342857519,0.1531631323315178
834,46.917,46.6,2.38,0.8718110814737751,0.004156116216246252,0.8955671685816824,0.04367667889618164,0.8274638621272623,0.1515491350161793
835,47.04,46.66,2.31,0.8677363098660726,0.003632996270396019,0.8926005202601314,0.04133513912883174,0.8228144996681639,0.14998164521465654
836,47.061,46.71,2.4,0.863653235031105,0.0031434678652134075,0.8896219047335358,0.03905816580166889,0.8181507127465955,0.14846086713560483
837,47.081,46.77,2.32,0.8595649016081943,0.002687956427460454,0.8866327546732556,0.03684598829891445,0.8134746497946093,0.14698698851018524
838,47.122,46.82,2.26,0.855474332463561,0.0022668663922455344,0.8836344937680656,0.03469880684056093,0.8087884402697859,0.14556018064660373
839,47.184,46.88,2.29,0.8513845259079968,0.001880580695791744,0.8806285356859039,0.032616792546345336,0.8040941931111342,0.14418059849462936
840,47.225,46.93,2.26,0.8472984529315245,0.0015294603031872178,0.8776162830423715,0.03060008753444382,0.7993939952211436,0.14284838072014855
841,47.285,46.99,2.21,0.843219054458094,0.0012138437718850414,0.8745991263775785,0.028648805055574687,0.7946899099757979,0.141563649789726
842,47.368,47.04,2.19,0.8391492386233611,0.0009340468515266009,0.871578443142931,0.026763029663106806,0.7899839757642838,0.14032651206507815
843,47.387,47.1,2.23,0.8350918780785512,0.0006903621204794954,0.8685555966993994,0.024942817419724397,0.7852782045600444,0.13913705790730033
844,47.448,47.15,2.18,0.8310498073233746,0.000483058659317878,0.8655319353287567,0.02318819614113942,0.7805745805247514,0.1379953617906243
845,47.511,47.21,2.13,0.8270258200709316,0.0003123817613142366,0.8625087912592262,0.02149916567724665,0.7758750586466971,0.13690148242542446
846,47.552,47.26,2.22,0.8230226666474832,0.000178552679906287,0.8594874797069129,0.019875698231018774,0.7711815634150552,0.13585546289011455
847,47.614,47.32,2.15,0.8190430514299237,8.176841302572664e-05,0.8564692979343347,0.01831773871527612,0.7664959875314443,0.13485733077148676
848,47.738,47.37,2.08,0.8150896303237686,2.2201524154472734e-05,0.8534555243273068,0.01682520514716534,0.7618201906602159,0.13390709831297393
849,47.759,47.43,2.12,0.8111650082844845,0.0,0.8504474174914324,0.015397989079711905,0.7571559982188837,0.1330047625702388
850,47.78,47.48,2.1,0.8072717368850892,1.5287144661632314e-05,0.8474462153695016,0.014035956069172378,0.7525052002101129,0.13215030557342197
851,47.843,47.54,2.05,0.8034123119331154,6.816151001401594e-05,0.8444531343811568,0.012738946176303176,0.7478695500966308,0.13134369449536928
852,47.905,47.59,2.03,0.7995891711401429,0.0001586968618441392,0.8414693685861921,0.011506774499291425,0.7432507637203523,0.13058488182520628
853,47.967,47.65,2.04,0.7958046918471511,0.0002869421810963063,0.8384960888728034,0.010339231735933402,0.7386505182669536,0.1298738055466628
854,48.008,47.7,1.98,0.7920611888089754,0.0004529216993712165,0.8355344421720781,0.00923608477249194,0.7340704512770546,0.1292103893205675
855,48.091,47.76,1.92,0.7883609120412026,0.0006566349675834509,0.8325855507000267,0.00819707729646825,0.7295121597050848,0.12859454267095807
856,48.132,47.81,1.99,0.784706044732835,0.0008980569564291771,0.8296505112284456,0.007221930430311715,0.7249771990268054,0.12802616117427426
857,48.152,47.87,1.93,0.7810987012280335,0.0011771381870609582,0.8267303943858979,0.006310343382871815,0.7204670823963422,0.12750512665112296
858,48.215,47.92,1.86,0.7775409250801727,0.0014938048901510037,0.8238262439900519,0.005461994115233804,0.7159832798534539,0.12703130736014995
859,48.277,47.98,1.91,0.7740346871813295,0.0018479591913869275,0.8209390764125496,0.004676540017533773,0.7115272175816638,0.12660455819358993
860,48.339,48.03,1.89,0.7705818839702813,0.0022394793213373733,0.8180698799775186,0.003953618593361988,0.7071002772177879,0.12622472087409287
861,48.381,48.09,1.84,0.767184335722096,0.002668219847502494,0.8152196143947843,0.003292848148414746,0.7027037952133067,0.1258916241524895
862,48.463,48.14,1.83,0.7638437849223435,0.0031340119263437464,0.8123892102287603,0.0026938284801938284,0.6983390622479304,0.1256050840062455
863,48.485,48.2,1.84,0.7605618947288633,0.003636663573148588,0.8095795684038897,0.0021561415657651625,0.6940073226956427,0.12536490383839619
864,48.547,48.25,1.79,0.7573402475239566,0.0041759599476502395,0.8067915597474586,0.0016793522447365622,0.6897097741434353,0.12517087467678145
865,48.609,48.31,1.74,0.7541803435597912,0.004751663653380466,0.804026024570549,0.001263008894713286,0.6854475669628607,0.12502277537346476
866,48.65,48.36,1.82,0.7510835996996905,0.005363515048815262,0.8012837722878497,0.0009066440965817749,0.681221803934431,0.12492037280430325
867,48.711,48.42,1.74,0.7480513482578403,0.0060112325684388125,0.7985655810769938,0.0006097752870522016,0.6770335399247817,0.12486342206870531
868,48.774,48.47,1.67,0.745084835939778,0.0066945130519241195,0.7958721975780229,0.00037190539597214755,0.6728837816164231,0.12485166668966038
869,48.835,48.53,1.74,0.7421852228858269,0.00741303207972105,0.7932043366335162,0.00019252346601645362,0.6687734872898022,0.12488483881413155
870,48.897,48.58,1.71,0.7393535818194351,0.008166444313425005,0.7905626810698682,7.11052524489636e-05,0.6647035666572993,0.12496265941390794
871,48.979,48.64,1.67,0.7365908973021623,0.008954383839385086,0.7879478815201147,7.113800741297186e-06,0.6606748807486663,0.1250848384870805
872,49.0,48.69,1.68,0.7338980650967772,0.009776464514172599,0.7853605562886082,0.0,0.6566882418472976,0.12525107526039855
873,49.041,48.75,1.69,0.7312758916396608,0.010632280310738918,0.7828012912577046,4.9203110347387555e-05,0.6527444134766506,0.12546105839281296
874,49.101,48.8,1.65,0.7287250936235586,0.01152140566424226,0.7802706398365428,0.0001541512625729755,0.6488441104360831,0.1257144661805503
875,49.205,48.86,1.63,0.7262462976916054,0.01244339581666052,0.7777691229518974,0.0003142619285857529,0.6449879988853179,0.12601096676414425
876,49.226,48.91,1.7,0.7238400402433977,0.013397787159487367,0.7752972290809566,0.0005289423615038046,0.6411766964766904,0.1263502183379425
877,49.267,48.97,1.64,0.7215067673537223,0.01438409757399831,0.7728554143257642,0.0007975900045260877,0.637410772534289,0.12673186936266187
878,49.33,49.02,1.57,0.7192468348043771,0.015401826768713342,0.7704441025289552,0.0011195928679883728,0.6336907482790592,0.12715555878157636
