,Time_Host,Time_Arduino,easingdata,CH1_Oxy,CH1_Deoxy,CH2_Oxy,CH2_Deoxy,CH3_Oxy,CH3_Deoxy
0,1.136,0.04,0.0,1.0,0.3515296067649689,1.0,0.0,0.8487195490432616,1.0
1,1.178,0.1,0.0,0.9990805537081846,0.3522583503584634,0.994080899336261,0.01323471447764316,0.8537585573922362,0.9838788410954954
2,1.199,0.15,0.0,0.9981333622633574,0.35299325293390577,0.9881582574667405,0.02642280177259526,0.8587400343876332,0.9678353307375341
3,1.22,0.21,0.0,0.9971584956353355,0.35373382231861583,0.9822341290782343,0.03955883447729311,0.8636617494351525,0.951875364960861
4,1.24,0.26,0.0,0.9961560370107378,0.35447956709591744,0.9763105619824358,0.052637423478443544,0.868521514525248,0.936004756940267
5,1.26,1.07,0.0,0.9951260824691213,0.3552299977503544,0.9703895952191777,0.06565322265112751,0.873317185850001,0.9202292321103707
6,1.281,1.13,0.0,0.9940687406432634,0.3559846278152679,0.9644732571785769,0.07860093348627825,0.8780466653477765,0.9045544234327655
7,1.342,1.18,0.0,0.9929841323651702,0.35674297501816354,0.958563563744709,0.0914753096461609,0.8827079021749177,0.8889858668149433
8,1.363,1.24,0.0,0.9918723902994676,0.35750456241916834,0.9526625164633736,0.10427116144266073,0.8872988941039667,0.8735289966850039
9,1.445,1.29,0.0,0.9907336585659022,0.35826891953774115,0.9467721007364762,0.11698336023335852,0.8918176888481149,0.8581891417257757
10,1.466,1.35,-0.2,0.9895680923527462,0.35903558346267056,0.9408942840454945,0.1296068427305265,0.896262385311796,0.8429715207715941
11,1.527,1.4,-0.11,0.9883758575229692,0.35980409994028784,0.9350310142064601,0.14213661521833007,0.9006311347675312,0.8278812388706785
12,1.588,1.46,-0.04,0.9871571302150514,0.3605740244358222,0.9291842176587884,0.15456775767371042,0.9049221419592638,0.8129232835158046
13,1.648,1.51,-0.21,0.9859120964402425,0.3613449231630781,0.9233557977901017,0.1668954277867492,0.9091336661325071,0.7981025210458501
14,1.689,1.57,-0.22,0.9846409516778875,0.36211637407812186,0.9175476332989263,0.17911486487679973,0.9132640219916879,0.7834236932206238
15,1.75,1.62,-0.04,0.9833439004702328,0.36288796783325,0.911761576596895,0.19122139370115618,0.9173115805851699,0.7688914139710985
16,1.791,1.68,-0.18,0.9820211560179412,0.36365930868794943,0.9059994522519241,0.2032104281533508,0.921274770118546,0.7545101663267514
17,1.893,1.73,-0.27,0.9806729397773822,0.3644300153738307,0.9002630554736714,0.2150774748483625,0.9251520766968965,0.7402842995212344
18,1.914,1.79,-0.14,0.9792994810606311,0.36519972191067435,0.8945541506424137,0.22681813659219535,0.9289420449968447,0.7262180262771113
19,1.957,1.84,-0.15,0.9779010166390165,0.365968078370822,0.8888744698823716,0.23842811573340283,0.9326432788693655,0.7123154202699062
20,2.019,1.9,-0.33,0.9764777903509824,0.3667347515892924,0.8832257116804956,0.2499032173942115,0.9362544418744134,0.6985804137713573
21,2.081,1.95,-0.24,0.9750300527149601,0.36749942581731593,0.8776095395517459,0.2612393525790158,0.9397742577485249,0.6850167954715073
22,2.124,2.01,-0.16,0.9735580605478836,0.3682618033173837,0.8720275807519335,0.2724325411581397,0.9432015108066306,0.6716282084790901
23,2.185,2.06,-0.32,0.972062076589961,0.36902160489830854,0.8664814250392869,0.28347891472480025,0.9465350462793989,0.6584181484995204
24,2.267,2.12,-0.37,0.9705423691362732,0.3697785703892313,0.8609726234859788,0.29437471932324333,0.9497737705874808,0.6453899621896586
25,2.287,2.17,-0.24,0.9689992116756944,0.37053245905197607,0.855502687340858,0.30511631804609846,0.952916651554104,0.6325468456882908
26,2.369,2.23,-0.35,0.967432882537545,0.3712830499315483,0.8500730869446234,0.31570019349902373,0.9559627185575096,0.619891843320942
27,2.41,2.28,-0.51,0.9658436645463124,0.3720301421448148,0.8446852506985901,0.32612295013067344,0.9589110626247476,0.6074278464772723
28,2.471,2.34,-0.39,0.9642318446847057,0.37277355510751703,0.8393405640880572,0.33638131642600516,0.9617608364683463,0.5951575926589308
29,2.512,2.39,-0.4,0.9625977137652958,0.37351312869976866,0.8340403687611092,0.34647214696096,0.9645112544673566,0.5830836646953941
30,2.574,2.45,-0.59,0.9609415661109797,0.37424872337015685,0.8287859616635161,0.35639242431661944,0.9671615925942328,0.5712084901251082
31,2.636,2.5,-0.52,0.9592636992444658,0.3749802201787004,0.8235785942302174,0.3661392608511649,0.9697111882889583,0.5595343407391702
32,2.676,2.56,-0.4,0.9575644135868778,0.3757075207792583,0.8184194716336948,0.3757099003283409,0.9721594402817765,0.5480633322847899
33,2.739,2.61,-0.58,0.9558440121654652,0.37643054734243914,0.8133097520894066,0.3851017194015753,0.9745058083658411,0.5367974243257984
34,2.799,2.67,-0.64,0.9541028003302789,0.37714924242054415,0.8082505462182752,0.3943122289534206,0.976749813121057,0.5257384202574954
35,2.861,2.72,-0.48,0.9523410854795451,0.37786356875647154,0.8032429164660109,0.4033390752904776,0.978891035590362,0.5148879674730907
36,2.903,2.78,-0.54,0.9505591767933893,0.3785735090387461,0.7982878765788693,0.4121800411942455,0.9809291169096834,0.5042475576789182
37,3.025,2.83,-0.65,0.9487573849754904,0.3792790656049354,0.7933863911353253,0.42083304682836575,0.9828637578927588,0.49381852735552056
38,3.045,2.89,-0.53,0.9469360220022077,0.3799802600957199,0.7885393751330692,0.4292961505026092,0.9846947185719841,0.4836020583616179
39,3.066,2.94,-0.51,0.9450954008787674,0.3806771330617672,0.7837476936307292,0.4375675492937851,0.9864218176964469,0.473599178677828
40,3.127,3.0,-0.71,0.9432358354021837,0.3813697435253833,0.7790121614437646,0.4456455795236299,0.9880449321883085,0.46381076328689214
41,3.168,3.05,-0.7,0.941357639930694,0.38205816849883484,0.7743335428940153,0.45352871709380627,0.9895639965586946,0.4542375351871069
42,3.23,3.11,-0.56,0.9394611291595424,0.38274250246129715,0.7697125516124155,0.46121557767836674,0.990979002284234,0.4448800665356844
43,3.292,3.16,-0.71,0.937546617902984,0.3834228567965108,0.7651498503944342,0.46870491677425363,0.9922899971453211,0.43573877991884397
44,3.355,3.22,-0.75,0.9356144208823719,0.38409935919342,0.7606460511077766,0.4759956296106542,0.9934970845270823,0.4268139497455314
45,3.394,3.27,-0.52,0.9336648525201175,0.3847721530122705,0.7562017146517299,0.48308675091834624,0.9946004226839426,0.4181057037616583
46,3.456,3.33,-0.53,0.931698226739276,0.3854413966187534,0.751817350967379,0.4899774545604567,0.9956002239686385,0.4096140246816454
47,3.498,3.38,-0.63,0.929714856768487,0.3861072626887669,0.7474934190978026,0.49666705302621783,0.9964967540265127,0.4013387519338964
48,3.558,3.44,-0.47,0.9277150549520216,0.38676993748627975,0.743230327297293,0.5031549967894005,0.9972903309559711,0.3932795835166466
49,3.618,3.49,-0.39,0.9256991325647671,0.38742962011663207,0.7390284331886544,0.5094408735331758,0.9979813244360992,0.3854360779604236
50,3.741,3.55,-0.6,0.9236673996321171,0.38808652175743086,0.7348880439676798,0.515524407243265,0.9985701548225608,0.3778076563932287
51,3.762,3.6,-0.57,0.9216201647548762,0.38874086486905973,0.7308094166539083,0.5214054571715465,0.9990572922130103,0.3703936047045149
52,3.804,3.66,-0.44,0.9195577349394124,0.3893928823867564,0.7267927583867245,0.5270840166727557,0.9994432554833506,0.36319307580406945
53,3.844,3.71,-0.63,0.9174804154333414,0.3900428168962236,0.7228382267658024,0.5325602119173838,0.9997286112961871,0.35620509197197636
54,3.886,3.77,-0.66,0.9153885095669922,0.3906909197948799,0.7189459302347913,0.537834300484296,0.9999139730828143,0.3494285472958986
55,3.946,3.82,-0.48,0.9132823186007847,0.391337450441091,0.7151159285069771,0.5429066698369467,1.0,0.3428622101919316
56,4.007,3.88,-0.51,0.911162141578507,0.3919826752938996,0.7113482330314915,0.5477778356872568,0.9999873958627867,0.3365047260052239
57,4.131,3.93,-0.62,0.9090282751863294,0.39262686704587446,0.7076428074985015,0.5524484402512787,0.9998769080544637,0.3303546196865227
58,4.152,3.99,-0.41,0.9068810136172334,0.39327030375174027,0.7039995683816793,0.5569192504008146,0.9996693264148705,0.32441029854077685
59,4.172,4.04,-0.35,0.9047206484404425,0.39391326795542886,0.700418385516193,0.5611911557152109,0.999365482108228,0.31867005504393775
60,4.212,4.1,-0.52,0.9025474684754367,0.3945560458181225,0.6968990827105146,0.565265166437611,0.9989662464717889,0.31313206972414964
61,4.293,4.15,-0.49,0.9003617596701611,0.3951989262498479,0.693441438390409,0.5691424113401398,0.998472529846701,0.3077944141036087
62,4.333,4.21,-0.35,0.8981638049831256,0.39584220004725384,0.6900451862735559,0.5728241355027784,0.9978852803926025,0.30265505369741164
63,4.395,4.26,-0.53,0.8959538842691561,0.39648615904027174,0.6867100160734038,0.5763116980108229,0.9972054828875601,0.2977118510657351
64,4.477,4.32,-0.61,0.8937322741686068,0.3971310952504277,0.6834355742310027,0.5796065695757366,0.9964341575149925,0.29296256891570294
65,4.497,4.37,-0.44,0.8914992479998565,0.3977773000635268,0.6802214646736622,0.5827103300839924,0.9955723586392068,0.28840487324927055
66,4.539,4.43,-0.43,0.8892550756549322,0.3984250634192213,0.6770672495993606,0.585624666078162,0.9946211735711532,0.2840363365534049
67,4.6,4.48,-0.63,0.8870000234981259,0.39907467301963173,0.6739724502858976,0.5883513681741519,0.9935817213259396,0.27985444102882534
68,4.662,4.54,-0.49,0.8847343542674714,0.3997264135588674,0.6709365479238374,0.5908923284182147,0.992455151373625,0.27585658185358664
69,4.724,4.59,-0.44,0.8824583269789597,0.4003805659750636,0.6679589844723536,0.5932495375872205,0.9912426423848066,0.27204007047781525
70,4.764,4.65,-0.6,0.8801721968333895,0.4010374067264424,0.6650391635371207,0.5954250824356883,0.9899454009725278,0.2684021379459986
71,4.826,4.7,-0.6,0.8778762151257816,0.40169720709293155,0.6621764512693465,0.597421142893342,0.9885646604320214,0.26493993824337236
72,4.889,4.76,-0.46,0.8755706291573353,0.40236023250491465,0.659370177284944,0.5992399892173705,0.9871016794797945,0.2616505516630739
73,4.93,4.81,-0.62,0.8732556821500227,0.40302674190059357,0.6566196356028261,0.600883979103789,0.9855577409935523,0.2585309881908178
74,4.992,4.87,-0.74,0.8709316131640168,0.4036969871132454,0.6539240856013838,0.6023555547622075,0.9839341507544141,0.2555781909039235
75,5.055,4.92,-0.56,0.8685986570182179,0.40437121228941525,0.6512827529923159,0.6036572399579778,0.9822322361928345,0.25278903938157343
76,5.119,4.98,-0.6,0.8662570442142034,0.40504965333876586,0.6486948308111316,0.604791637025223,0.9804533451395744,0.25016035312322027
77,5.199,5.03,-0.76,0.8639070008639903,0.4057325374159162,0.6461594804237784,0.6057614238537603,0.9785988445829925,0.24768889497212582
78,5.219,5.09,-0.62,0.8615487486220634,0.4064200824342286,0.6436758325489274,0.6065693508526183,0.9766701194338443,0.24537137454110283
79,5.261,5.14,-0.61,0.8591825046221808,0.40711249661123833,0.6412429882954858,0.6072182378927256,0.9746685712987426,0.243204451637603
80,5.324,5.2,-0.76,0.8568084814194994,0.40780997804533275,0.6388600202149105,0.6077109712314203,0.9725956172634005,0.24118473968541485
81,5.449,5.25,-0.74,0.8544268869385203,0.4085127143234404,0.6365259733678357,0.6080505004217158,0.9704526886867493,0.23930880914040817
82,5.47,5.31,-0.58,0.8520379244272797,0.409220882159756,0.6342398664044182,0.6082398352096343,0.968241230007,0.23757319089790832
83,5.49,5.36,-0.74,0.8496417924181648,0.4099346470656712,0.6320006926577719,0.6082820424230915,0.9659626975606753,0.2359743796893621
84,5.592,5.42,-0.85,0.847238684695737,0.4106541630510106,0.6298074212498892,0.608180242855654,0.9636185584156081,0.23450883746595874
85,5.612,5.47,-0.68,0.8448287902719677,0.41137957235643324,0.6276589982095145,0.6079376081481316,0.9612102892188702,0.2331729967667887
86,5.654,5.53,-0.7,0.8424122933693514,0.41211100521648253,0.6255543476014834,0.6075573576705532,0.9587393750605712,0.23196326406902776
87,5.717,5.58,-0.84,0.8399893734123628,0.4128485796524118,0.6234923726670578,0.6070427554067613,0.9562073083544026,0.23087602311761982
88,5.778,5.64,-0.71,0.8375602050276854,0.4135924012937208,0.6214719569747106,0.6063971068438013,0.9536155877357473,0.22990763823199012
89,5.819,5.69,-0.66,0.83512495805354,0.414342563227356,0.6194919655807113,0.6056237558684233,0.9509657169781542,0.22905445758738294
90,5.879,5.75,-0.83,0.8326837975583505,0.4150991458736958,0.617551246198778,0.6047260816732892,0.948259203928984,0.22831281646849622
91,5.94,5.8,-0.84,0.8302368838688824,0.41586221688870695,0.6156486303779487,0.603707495675872,0.9454975594650326,0.2276790404931726
92,6.003,5.86,-0.69,0.8277843726079273,0.41663183109189617,0.6137829346877156,0.6025714384534422,0.9426822964689588,0.22714944880395718
93,6.043,5.91,-0.86,0.8253264147415907,0.41740803041975855,0.611952961909406,0.6013213766977106,0.9398149288273189,0.22672035722533665
94,6.103,5.97,-0.94,0.822863156636255,0.41819084390432604,0.6101575022327927,0.5999608001925674,0.9368969704509732,0.22638808138444097
95,6.165,6.02,-0.83,0.8203947401253171,0.41898028767618,0.6083953344569198,0.5984932188180522,0.9339299343185771,0.2261489397928949
96,6.206,6.08,-0.85,0.817921302585812,0.41977636499098164,0.6066652271941277,0.5969221595832934,0.9309153315438013,0.22599925688739464
97,6.328,6.13,-1.03,0.8154429770250105,0.420579066278277,0.6049659400762432,0.5952511636908041,0.9278546704668441,0.2259353660265516
98,6.349,6.19,-0.91,0.8129598921770225,0.4213883692111948,0.6032962249618349,0.5934837836343659,0.9247494557707062,0.22595361244161882
99,6.369,6.24,-0.85,0.8104721726093739,0.42220423879566255,0.6016548271434032,0.591623580332739,0.9216011876226279,0.2260503561388447
100,6.409,6.3,-0.99,0.8079799388394756,0.42302662747794617,0.6000404865533938,0.5896741203015028,0.9184113608410215,0.2262219747513882
101,6.47,6.35,-1.02,0.805483307460816,0.42385547526967604,0.5984519389679351,0.5876389728654791,0.9151814640881821,0.22646486633892876
102,6.533,6.41,-0.86,0.8029823912786149,0.42469070988993995,0.5968879172071635,0.5855217074143823,0.9119129790890318,0.22677545213325126
103,6.593,6.46,-1.02,0.8004772994546365,0.42553224692431907,0.5953471523309646,0.5833258907044439,0.9086073798761432,0.22715017922816
104,6.695,6.52,-1.11,0.7979681376608216,0.4263799900008608,0.5938283748289332,0.5810550842086963,0.9052661320612407,0.2275855232121042
105,6.737,6.57,-0.99,0.7954550082413857,0.4272338309829755,0.5923303158033048,0.5787128415184193,0.9018906921333475,0.2280779907418658
106,6.756,6.63,-1.02,0.7929380103830005,0.42809365017914863,0.5908517081436117,0.5763027057979163,0.898482506783681,0.22862412205560564
107,6.839,6.68,-1.2,0.7904172402926076,0.4289593165692583,0.5893912876918247,0.5738282072944335,0.8950430122573261,0.2292204934235755
108,6.859,6.74,-1.11,0.7878927913823189,0.42983068804728386,0.5879477943966903,0.5712928609048344,0.8915736337316236,0.22986371953489554
109,6.921,6.79,-1.03,0.7853647544607557,0.43070761168027094,0.5865199734559144,0.5687001638006577,0.8880757847211397,0.23055045581894948
110,6.961,6.85,-1.18,0.782833217930115,0.4315899239835574,0.5851065764448073,0.5660535931132689,0.8845508665089981,0.23127740070016725
111,7.043,6.9,-1.18,0.7802982679882126,0.43247745121242626,0.5837063624299903,0.5633566036809352,0.8810002676042771,0.2320412977852094
112,7.105,6.96,-1.0,0.7777599888347673,0.43337000967048656,0.5823180990668084,0.5606126258596806,0.8774253632251406,0.2328389379817458
113,7.147,7.01,-1.12,0.7752184628812305,0.4342674060350883,0.5809405636792384,0.5578250633995909,0.8738275148073493,0.23366716154809905
114,7.21,7.07,-1.18,0.7726737709635132,0.43516943770001154,0.5795725443212695,0.5549972913878003,0.8702080695378012,0.23452286007303633
115,7.273,7.12,-1.06,0.7701259925569583,0.4360758931355557,0.5782128408189022,0.5521326542588637,0.8665683599127793,0.23540297838494548
116,7.315,7.18,-1.09,0.7675752059929173,0.4369865522659341,0.5768602657920416,0.5492344638726661,0.8629097033206156,0.23630451638955913
117,7.419,7.23,-1.26,0.7650214886763154,0.43790118686357005,0.5755136456556744,0.5463059976595257,0.8592334016485023,0.2372245308353685
118,7.439,7.29,-1.16,0.7624649173036179,0.4388195609596337,0.5741718215998133,0.5433504968318258,0.8555407409131819,0.2381601370059112
119,7.5,7.34,-1.15,0.759905568080591,0.4397414312700931,0.5728336505477943,0.540371164661327,0.8518329909152312,0.23910851033819017
120,7.521,7.4,-1.29,0.7573435169392209,0.44066654763670937,0.5714980060926247,0.5373711648212576,0.84811140491663,0.240066887966598
121,7.582,7.45,-1.32,0.7547788397530676,0.4415946534827263,0.5701637794110889,0.5343536197924448,0.8443772193412395,0.2410325701918765
122,7.622,7.51,-1.16,0.7522116125502829,0.4425254862833262,0.5688298801552166,0.5313216093330624,0.8406316534977718,0.24200292187477418
123,7.685,7.56,-1.32,0.7496419117234961,0.44345877805107375,0.5674952373205921,0.5282781690118236,0.8368759093247563,0.24297537375415365
124,7.786,7.62,-1.37,0.7470698142358088,0.44439425583652425,0.5661588000908933,0.5252262888044688,0.8331111711569589,0.24394742368932779
125,7.807,7.67,-1.23,0.744495397822181,0.44533164224392047,0.5648195386580018,0.5221689117532573,0.8293386055126506,0.24491663782636136
126,7.849,7.73,-1.22,0.7419187411855854,0.44627065596149296,0.563476445017025,0.5191089326889176,0.8255593609011138,0.24588065168801573
127,7.911,7.78,-1.43,0.7393399241874099,0.44721101230543253,0.5621285337355779,0.5160491970143294,0.8217745676497455,0.24683717118702814
128,7.952,7.84,-1.31,0.736759028031638,0.44815242377632686,0.5607748426966169,0.5129924995492672,0.8179853377501178,0.2477839735625062
129,8.034,7.89,-1.22,0.7341761354423805,0.4490946006268062,0.559414433814037,0.509941583435812,0.8141927647223781,0.24871890823934953
130,8.075,7.95,-1.35,0.7315913308343205,0.4500372514392947,0.5580463937202127,0.5068991391043252,0.8103979234973757,0.24963989761078975
131,8.178,8.0,-1.36,0.7290047004756011,0.45098008371309356,0.5566698344246505,0.5038678033001305,0.8066018703159049,0.25054493774433456
132,8.199,8.06,-1.2,0.7264163326426465,0.4519228044603861,0.5552838939429312,0.5008501581712201,0.8028056426444864,0.2514320990115074
133,8.241,8.11,-1.37,0.7238263177664104,0.45286512081094243,0.5538877368951792,0.49784873041728306,0.7990102591071628,0.2522995266417763
134,8.302,8.17,-1.47,0.7212347485695959,0.4538067406252274,0.5524805550733585,0.49486599050012137,0.795216719432822,0.2531454412010034
135,8.343,8.22,-1.38,0.7186417201944747,0.4547473731153238,0.5510615679767341,0.49190435191521176,0.791426004417587,0.25396813899465026
136,8.406,8.28,-1.41,0.7160473303210337,0.45568672947265115,0.5496300233148694,0.4889661705238375,0.787639075901805,0.25476599239588765
137,8.51,8.33,-1.59,0.7134516792752812,0.4566245235010217,0.5481851974775753,0.486053743944955,0.7838568767611094,0.25553745009877227
138,8.53,8.39,-1.5,0.7108548701276477,0.457560472253277,0.5467263959712624,0.4831693110058681,0.7800803309109455,0.25628103729678203
139,8.572,8.44,-1.41,0.7082570087815278,0.45849429666958763,0.5452529538212235,0.4803150512508071,0.7763103433238759,0.25699535578720667
140,8.634,8.5,-1.53,0.7056582040521655,0.4594257222154529,0.5437642359395,0.47749308450657235,0.7725478000589153,0.25767908400214845
141,8.675,8.55,-1.53,0.7030585677361928,0.4603544795175351,0.5422596374580855,0.47470547050451234,0.7687935683021057,0.2583309769671312
142,8.736,8.61,-1.36,0.7004582146721663,0.4612803049956595,0.5407385840272884,0.4719542085582251,0.7650484964175543,0.2589498661884322
143,8.778,8.66,-1.49,0.6978572627924684,0.4622029414894464,0.5392005320791379,0.46924123729632145,0.7613134140082103,0.25953465947022636
144,8.881,8.72,-1.64,0.6952558331669612,0.46312213887800574,0.5376449690558097,0.4665684344493263,0.7575891319857168,0.26008434066251973
145,8.901,8.77,-1.52,0.6926540500388428,0.4640376546908808,0.5360714136031158,0.4639376166894243,0.7538764426487355,0.26059796934070045
146,8.962,8.83,-1.54,0.6900520408532507,0.4649492547080163,0.5344794157291942,0.46135053952136623,0.7501761197691822,0.261074680417431
147,9.023,8.88,-1.73,0.687449936279243,0.4658567135461062,0.5328685569286565,0.4588088972225292,0.7464889186857807,0.2615136836876481
148,9.064,8.94,-1.66,0.6848478702258057,0.46675981522847465,0.531238450272576,0.4563143228299891,0.7428155764043023,0.26191426330761974
149,9.105,8.99,-1.56,0.6822459798524835,0.46765835373569375,0.529588740464836,0.45386838817252406,0.7391568117037842,0.2622757772092395
150,9.167,9.05,-1.68,0.6796444055751473,0.4685521335344112,0.5279191038654785,0.4514726039456592,0.7355133252479805,0.2625976564509712
151,9.25,9.1,-1.69,0.6770432910672939,0.4694409700822831,0.5262292484817055,0.4491284198282167,0.731885799701237,0.2628794045070406
152,9.271,9.16,-1.5,0.6744427832571773,0.4703246903073604,0.5245189139270995,0.4468372246392266,0.7282748998479976,0.2631205964965307
153,9.353,9.21,-1.62,0.6718430323210377,0.4712031330605828,0.522787871349573,0.44460034653427194,0.7246812727151938,0.2633208783539782
154,9.417,9.27,-1.71,0.6692441916727202,0.4720761495401304,0.521035923328548,0.44241905324033276,0.7211055476968454,0.26347996594293843
155,9.458,9.32,-1.56,0.6666464179500013,0.47294360368633503,0.5192629037418738,0.4402945523280523,0.717548336680305,0.2635976441138091
156,9.52,9.38,-1.54,0.6640498709979809,0.4738053725457436,0.5174686776030611,0.4382279915201186,0.7140102341736673,0.2636737657070154
157,9.602,9.43,-1.73,0.6614547138498822,0.4746613466028903,0.5156531408694953,0.4362204590341942,0.7104918174339486,0.26370825050253627
158,9.623,9.49,-1.73,0.6588611127055464,0.4755114300785076,0.5138162202223571,0.4342729839587035,0.7069936465957077,0.2637010841167151
159,9.665,9.54,-1.65,0.6562692369078486,0.4763555411931935,0.5119578728189997,0.4323865366598376,0.7035162647998453,0.2636523168473285
160,9.727,9.6,-1.79,0.6536792589172287,0.4771936123958991,0.5100780860185312,0.430562029218287,0.7000601983223513,0.2635620624680496
161,9.769,9.65,-1.83,0.651091354284466,0.4780255905570219,0.5081768770812783,0.42880031589446727,0.6966259567027326,0.2634304969737466
162,9.83,9.71,-1.66,0.6485057016217248,0.47885143712636186,0.5062542928427086,0.4271021936213047,0.6932140328718076,0.26325785727835394
163,9.893,9.76,-1.78,0.6459224825717756,0.479671128256565,0.5043104093622915,0.4254684025238583,0.689824903278524,0.26304443986720455
164,9.975,9.82,-1.9,0.643341881775224,0.480484654892847,0.5023453315477185,0.4238996264651026,0.6864590280154549,0.2627905994056904
165,9.996,9.87,-1.78,0.6407640868355401,0.4812920228297284,0.5003591927548612,0.42239649361707876,0.6831168509426553,0.2624967473059732
166,10.058,9.93,-1.77,0.6381892882817435,0.48209325273523895,0.498352154363888,0.4209595770563093,0.6797987998095978,0.262163350253313
167,10.099,9.98,-1.97,0.6356176795286524,0.4828883801426955,0.4963244053320684,0.41958939538198897,0.6765052863749159,0.2617909286935252
168,10.159,10.04,-1.88,0.6330494568346401,0.4836774554099492,0.4942761617238677,0.4182864133552606,0.67323670652368,0.2613800552831488
169,10.221,10.09,-1.78,0.6304848192568082,0.48446054364602625,0.492207666218966,0.4170510425579366,0.6699934403819444,0.260931353304043
170,10.263,10.15,-1.91,0.6279239686033948,0.48523772460536646,0.49011918759882955,0.4158836420692281,0.6667758524283063,0.2604454950443309
171,10.346,10.2,-1.93,0.6253671093831071,0.48600909255038494,0.4880110202124144,0.4147845191593414,0.6635842916022328,0.25992320014781856
172,10.387,10.26,-1.76,0.6228144487509343,0.4867747560836519,0.4858834834215323,0.41375392999907373,0.6604190914089595,0.25936523393413496
173,10.428,10.31,-1.89,0.6202661964499538,0.48753483795134367,0.4837369210264258,0.4127920803846136,0.6572805700208442,0.2587724056918097
174,10.49,10.37,-2.01,0.6177225647486912,0.48828947481962925,0.4815717006721729,0.41189912647656585,0.6541690303751316,0.2581455669463777
175,10.551,10.42,-1.92,0.6151837683736863,0.4890388170254008,0.4793882132366213,0.4110751755519377,0.6510847602681705,0.25748560970541756
176,10.612,10.48,-1.96,0.6126500244370675,0.48978302830232084,0.4771868722006275,0.4103202867675311,0.6480280324461763,0.25679346468225384
177,10.738,10.53,-2.11,0.6101215523590552,0.49052228548271093,0.4749681130014544,0.40963447193297386,0.6449991046926418,0.25607009950000653
178,10.758,10.59,-2.07,0.6075985737853775,0.49125677817552804,0.47273239237022335,0.40901769629157275,0.6419982199124614,0.2553165168777471
179,10.778,10.64,-1.97,0.6050813124996005,0.49198670842059633,0.47048018765433824,0.40846987930728695,0.6390256062127971,0.2545337528006527
180,10.819,10.7,-2.13,0.6025699943303341,0.4927122903193993,0.46821199612579945,0.40799089545638556,0.6360814769806701,0.25372287467619914
181,10.88,10.75,-2.17,0.6000648470531953,0.4934337496430727,0.4659283342762174,0.4075805750228316,0.6331660309572312,0.25288497947857136
182,10.922,10.81,-2.02,0.5975661002873327,0.4941513234186635,0.46362973709919475,0.40723870489698394,0.63027945230867,0.2520211918835478
183,10.983,10.86,-2.12,0.5950739853862761,0.49486525949503624,0.4613167573606674,0.406965029377531,0.627421910693725,0.2511326623961166
184,11.085,10.92,-2.23,0.5925887353229021,0.49557581608991635,0.45898996485779064,0.406759250976594,0.6245935613277745,0.2502205654730509
185,11.106,10.97,-2.12,0.5901105845683576,0.49628326131945283,0.456649945666975,0.40662103122780935,0.6217945450435002,0.24928609764258972
186,11.148,11.03,-2.13,0.587639768964879,0.49698787271141176,0.4542973013817051,0.4065499914970113,0.6190249883481446,0.24833047562326885
187,11.209,11.08,-2.32,0.5851765255925183,0.49768993670281186,0.45193264834081626,0.4065457137949435,0.6162850034773992,0.24735493444392134
188,11.27,11.14,-2.17,0.5827210926298039,0.498389748122663,0.44955661684790305,0.4066077415913599,0.6135746884459565,0.2463607255669408
189,11.33,11.19,-2.13,0.5802737092083344,0.4990876096604997,0.44716985038252804,0.40673558062995285,0.6108941270947601,0.2453491150170242
190,11.393,11.25,-2.31,0.5778346152612753,0.4997838313215677,0.4447730048038779,0.40692869974373935,0.6082433891349901,0.24432138151773775
191,11.455,11.3,-2.29,0.5754040513656922,0.5004787298697865,0.4423667475474399,0.40718653167084545,0.6056225301888354,0.24327881463832265
192,11.475,11.36,-2.16,0.5729822585786291,0.5011726282598987,0.43995175681516685,0.4075084738709561,0.6030315918271439,0.24222271295313055
193,11.538,11.41,-2.26,0.5705694782668328,0.5018658550603687,0.43752872075953153,0.40789388934285614,0.6004706016040791,0.2411543822159803
194,11.579,11.47,-2.37,0.5681659519300671,0.5025587438685492,0.43509833666186554,0.40834210744344845,0.5979395730889291,0.2400751335516096
195,11.641,11.52,-2.26,0.5657719210180332,0.5032516327194037,0.4326613101053895,0.4088524247084771,0.595438505895252,0.2389862816662497
196,11.702,11.58,-2.3,0.5633876267410262,0.5039448634886886,0.4302183541433908,0.40942410567493687,0.5929673857075748,0.237889143079213
197,11.743,11.63,-2.44,0.5610133098745385,0.5046387812911443,0.4277701884630612,0.41005638370487746,0.5905261843058759,0.23678503437734222
198,11.825,11.69,-2.29,0.5586492105580324,0.5053337338741112,0.42531753854555976,0.41074846181011765,0.5881148595880751,0.23567527049424625
199,11.865,11.74,-2.23,0.5562955680880691,0.5060300710070642,0.42286113482297777,0.4114995134772895,0.5857333555907482,0.23456116301638638
200,11.968,11.8,-2.39,0.5539526207059429,0.5067281438677996,0.4204017118330925,0.4123086834926328,0.5833816025083118,0.2334440185182263
201,11.989,11.85,-2.42,0.5516206053799497,0.5074283044263546,0.4179400073729855,0.41317508876613873,0.5810595167109714,0.23232513692874565
202,12.05,11.91,-2.25,0.5492997575824272,0.5081309048280616,0.4154767616527085,0.4140978191549216,0.5787670007618251,0.23120580993158368
203,12.113,11.96,-2.4,0.5469903110617692,0.5088362967772858,0.4130127164502382,0.41507593828584205,0.5765039434335756,0.2300873194009702
204,12.175,12.02,-2.47,0.5446924976097062,0.509544830923342,0.4105486142689857,0.41610848437731823,0.5742702197253488,0.2289709358754599
205,12.196,12.07,-2.31,0.5424065468242191,0.5102568562499,0.4080851974991345,0.4171944710600299,0.5720656908801323,0.22785791707129044
206,12.257,12.13,-2.35,0.5401326858685311,0.5109727194689264,0.4056232075841072,0.41833288819594583,0.5698902044033961,0.2267495064369477
207,12.298,12.18,-2.51,0.5378711392266984,0.5116927644199258,0.4031633841935169,0.4195227026948547,0.567743594083484,0.22564693175032094
208,12.359,12.24,-2.37,0.5356221284563724,0.512417331475067,0.40070646440401403,0.4207628593274508,0.5656256800144098,0.22455140375969923
209,12.42,12.29,-2.34,0.5333858719393564,0.5131467569507154,0.39825318188951025,0.42205228153402596,0.5635362686217527,0.2234641148697804
210,12.46,12.35,-2.54,0.5311625846305998,0.5138813725259449,0.3958042661223141,0.4233898722279592,0.5614751526923931,0.22238623787384942
211,12.544,12.4,-2.55,0.5289524778062852,0.5146215046687331,0.3933604415866992,0.4247745145935391,0.5594421114088749,0.22131892473330447
212,12.604,12.46,-2.46,0.5267557588116468,0.5153674740707662,0.3909224270063675,0.42620507287806897,0.5574369103892096,0.22026330540571562
213,12.625,12.51,-2.63,0.5245726308091607,0.5161195950919558,0.38849093458723327,0.4276803931784181,0.5554593017329396,0.21922048672259034
214,12.687,12.57,-2.67,0.5224032925277291,0.516878175215886,0.3860666692769077,0.4291993042221388,0.5535090240742163,0.21819155131799903
215,12.75,12.62,-2.55,0.5202479380134679,0.5176435145173889,0.3836503280421709,0.4307606181431091,0.5515858026425788,0.21717755660912144
216,12.813,12.68,-2.59,0.5181067563826963,0.5184159051432677,0.38124259916558734,0.4323631312514805,0.5496893493320572,0.21617953382959196
217,12.855,12.73,-2.8,0.5159799315776928,0.5191956308069188,0.37884416156227674,0.4340056247975651,0.5478193627791715,0.21519848711627707
218,12.917,12.79,-2.67,0.5138676421257298,0.5199829662973791,0.3764556841176997,0.4356868657292559,0.5459755284503777,0.2142353926498361
219,12.979,12.84,-2.63,0.5117700609018171,0.5207781770031673,0.3740778250471832,0.43740560744262047,0.5441575187394936,0.21329119784915065
220,13.042,12.9,-2.82,0.509687354895529,0.5215815184511752,0.37171123127781514,0.43916059052545486,0.5423649930755995,0.21236682061953943
221,13.083,12.95,-2.8,0.5076196849822072,0.5223932358609109,0.36935653785321776,0.4409505434938971,0.5405975980418588,0.21146314865460145
222,13.145,13.01,-2.68,0.5055672056987675,0.5232135637146139,0.36701436736159043,0.44277418352261994,0.5388549675056742,0.2105810387914738
223,13.207,13.06,-2.86,0.503530065024245,0.52404272534409,0.36468532938735776,0.4446302171694118,0.5371367227605716,0.20972131641923805
224,13.31,13.12,-2.92,0.5015084041651321,0.5248809325354271,0.3623700199867398,0.4465173410950158,0.5354424726801575,0.208884774940154
225,13.33,13.17,-2.77,0.4995023573454874,0.5257283851529345,0.3600690211875332,0.4484342427789821,0.5337718138844583,0.20807217528330024
226,13.35,13.23,-2.8,0.4975120516017872,0.5265852707835911,0.35778290051336115,0.45037960123207027,0.5321243309189003,0.2072842454700665
227,13.412,13.28,-2.98,0.4955376065825001,0.5274517644030758,0.35551221053259935,0.4523520877055161,0.5304995964461349,0.20652168023082024
228,13.474,13.34,-2.84,0.4935791343523828,0.528328028064239,0.3532574884320945,0.454350366397371,0.5288971714508754,0.20578514067195997
229,13.536,13.39,-2.85,0.4916367392015299,0.5292142106086457,0.3510192556157188,0.456373095156071,0.5273166054579163,0.20507525399246573
230,13.557,13.45,-3.05,0.4897105174592854,0.5301104474016086,0.34879801732778787,0.4584189261813657,0.5257574367634915,0.20439261324902291
231,13.659,13.5,-3.01,0.4878005573131878,0.5310168600909668,0.3465942623013595,0.4604865067227806,0.5242191926800951,0.20373777716883132
232,13.68,13.56,-2.91,0.4859069386331937,0.5319335563897979,0.3444084624314481,0.46257447977588956,0.5227013897948398,0.2031112700092578
233,13.742,13.61,-3.05,0.4840297328014812,0.5328606298832439,0.34224107247323005,0.4646814847767149,0.5212035342413471,0.2025135814635402
234,13.784,13.67,-3.1,0.4821690025481419,0.5337981598597412,0.34009252976531884,0.46680615829456645,0.5197251219850634,0.20194516661180034
235,13.844,13.72,-2.9,0.4803248017930169,0.5347462111671296,0.3379632539781109,0.4689471347236441,0.5182656391218315,0.20140644591661308
236,13.906,13.78,-2.96,0.4784971754938617,0.5357048340942047,0.3358536468870717,0.471103046973713,0.5168245621894996,0.20089780526228204
237,13.946,13.83,-3.13,0.47668615950096216,0.5366740642782521,0.3337640921706867,0.47327252716014495,0.5154013584923299,0.20041959603684417
238,14.029,13.89,-3.02,0.47489178041826774,0.5376539226390327,0.3316949552326341,0.4754542072936582,0.5139954864379832,0.19997213525567556
239,14.071,13.94,-2.97,0.47311405547108426,0.5386444153396026,0.32964658304763206,0.4776467199701363,0.5126063958868763,0.19955570572546208
240,14.113,14.0,-3.17,0.4713529923804032,0.5396455337742172,0.3276193040303968,0.47984869906087624,0.5112335285137003,0.19917055624731309
241,14.176,14.05,-3.12,0.4696085892440123,0.5406572545834006,0.3256134279271855,0.4820587804035904,0.5098763181808476,0.19881690185792508
242,14.237,14.11,-3.01,0.46788083442463785,0.5416795396960672,0.3236292457294776,0.48427560249446683,0.508534191323453,0.19849492410784939
243,14.279,14.16,-3.19,0.46616970644546024,0.5427123363984293,0.32166702960946747,0.48649780718151925,0.507206567345708,0.1982047713760439
244,14.339,14.22,-3.18,0.46447517389337367,0.5437555774294153,0.31972703287711723,0.4887240403593389,0.5058928590280388,0.1979465592199804
245,14.401,14.27,-2.96,0.46279719533032687,0.5448091811024081,0.3178094899585112,0.49095295266523914,0.5045924729446978,0.1977203707605706
246,14.442,14.33,-3.04,0.4611357192130232,0.5458730514531409,0.3159146163951873,0.4931832001766436,0.5033048098912751,0.19752625710103797
247,14.524,14.38,-3.16,0.4594906838212068,0.5469470784134632,0.31404260886404234,0.4954134451094072,0.5020292653216433,0.19736423777862808
248,14.565,14.44,-3.03,0.4578620171947337,0.5480311380104601,0.3121936452173363,0.497642356516654,0.5007652297938975,0.1972343012477421
249,14.627,14.49,-3.04,0.45624963707965516,0.5491250925900875,0.31036788454233777,0.49986861098760216,0.4995120894249393,0.19713640539278435
250,14.668,14.55,-3.25,0.4546534508835882,0.5502287910642003,0.3085654672402439,0.5020908933457298,0.4982692263533952,0.19707047806888037
251,14.77,14.6,-3.17,0.4530733556406732,0.5513420691797525,0.3067865151241089,0.5043078973455741,0.4970360192105553,0.19703641766867516
252,14.811,14.66,-3.07,0.4515092379863931,0.5524647498090671,0.305031131535605,0.5065183263674695,0.49581184359898683,0.19703409371360042
253,14.832,14.71,-3.22,0.4499609741424956,0.5535966432603253,0.30329940148051704,0.5087208941095732,0.4945960725784101,0.19706334746824905
254,14.894,14.77,-3.25,0.4484284299122035,0.5547375476077324,0.30159139178288036,0.5109143252766541,0.493388077158347,0.19712399257673374
255,14.934,14.82,-3.08,0.44691146068586873,0.5558872490410433,0.29990715125759415,0.5130973562653073,0.4921872267970051,0.19721581572003205
256,14.996,14.88,-3.17,0.445409911457246,0.557045522234121,0.29824671090124655,0.5152687358453697,0.4909928899058393,0.19733857729331333
257,15.057,14.93,-3.26,0.4439236168506164,0.5582121307319623,0.29661008410076867,0.5174272258372987,0.48980443435920823,0.1974920121021524
258,15.119,14.99,-3.13,0.44245240115905404,0.5593868273552162,0.29499726685941274,0.5195716017852102,0.4886212280085483,0.19767583007637177
259,15.16,15.04,-3.09,0.4409960783942091,0.560569354620747,0.29340823803945815,0.5217006536251201,0.48744263920050096,0.19788971700006508
260,15.221,15.1,-3.27,0.43955445234803014,0.5617594451763768,0.29184295962101314,0.5238131863477092,0.48626803729843654,0.1981333352562473
261,15.282,15.15,-3.17,0.4381273166668567,0.5629568222477457,0.29030137697625996,0.5259080206547984,0.4850967932068302,0.19840632458457516
262,15.344,15.21,-3.07,0.4367144549382774,0.5641612000952811,0.2887834191584509,0.5279839936087805,0.4839282798979668,0.19870830285063848
263,15.427,15.26,-3.23,0.4353156407911145,0.5653722844795114,0.2872889992049015,0.5300399592745321,0.48276187294046996,0.1990388668254207
264,15.447,15.32,-3.21,0.4339306380088466,0.5665897731333455,0.28581801445312843,0.532074789353729,0.48159695102916644,0.19939759297365944
265,15.488,15.37,-3.05,0.43255920065673337,0.5678133562403337,0.2843703468691914,0.5340873738118944,0.4804328965158166,0.19978403824993007
266,15.549,15.43,-3.21,0.431201073222913,0.5690427169181206,0.2829458633872934,0.5360766214986435,0.4792690959402716,0.20019774090129402
267,15.611,15.48,-3.31,0.4298559907737714,0.5702775317063005,0.28154441625975474,0.5380414607614771,0.47810494056164016,0.20063822127532163
268,15.674,15.54,-3.19,0.4285236791239107,0.571517471057703,0.28016584341652484,0.5399808400532444,0.4769398268890583,0.20110498263223195
269,15.714,15.59,-3.21,0.4272038550210798,0.5727621998318524,0.2788099688334708,0.541893728533135,0.475773157211646,0.2015975119598401
270,15.776,15.65,-3.39,0.4258962263464512,0.5740113777890543,0.2774766029087428,0.5437791166607989,0.47460434012717556,0.20211528079005098
271,15.86,15.7,-3.26,0.4246004923305932,0.5752646600834316,0.27616554284655637,0.5456360167830637,0.47343279106890374,0.20265774601578113
272,15.88,15.76,-3.21,0.4233163437854098,0.5765216977532871,0.27487657304776325,0.5474634637126832,0.4722579328299641,0.20322435070739045
273,15.941,15.81,-3.35,0.4220434633521843,0.5777821382074251,0.273609465506617,0.5492605152986324,0.4710791960846642,0.2038145249279536
274,16.004,15.87,-3.34,0.4207815257656758,0.5790456257065107,0.27236398021315805,0.5510262529876471,0.4698960199059933,0.20442768654693974
275,16.065,15.92,-3.18,0.41953019813399667,0.5803118018390984,0.27113986556063996,0.5527597823769516,0.46870785227862855,0.20506324205202542
276,16.126,15.98,-3.35,0.41828914023383373,0.5815803059924208,0.26993685875745266,0.5544602337582355,0.46751415060672535,0.20572058735882626
277,16.147,16.03,-3.41,0.4170580048204771,0.5828507758182885,0.2687546862430455,0.5561267626528841,0.4663143822157624,0.2063991086183486
278,16.23,16.09,-3.26,0.4158364379521071,0.5841228476944257,0.26759306410738287,0.5577585503383147,0.4651080248477141,0.20709818302193408
279,16.292,16.14,-3.27,0.41462407932783035,0.5853961571813042,0.266451698513493,0.5593548043650689,0.4638945671488118,0.20781717960344837
280,16.333,16.2,-3.36,0.41342056263897536,0.5866703394741921,0.26533028612269227,0.5609147590641095,0.462673509149121,0.20855546003850992
281,16.375,16.25,-3.2,0.41222551593312867,0.5879450298499208,0.2642285145220799,0.5624376760436838,0.4614443627331501,0.2093123794406276
282,16.459,16.31,-3.2,0.4110385619903319,0.5892198641077647,0.26314606265392626,0.5639228446751208,0.46020665210073664,0.2100872871541433
283,16.479,16.36,-3.38,0.409859318710819,0.5904944790038321,0.262082601246642,0.5653695825669667,0.4589599142175222,0.21087952754385467
284,16.542,16.42,-3.36,0.40868739951361316,0.5917685126785512,0.2610377932470397,0.5667772360269827,0.4577036992543995,0.21168844078115934
285,16.603,16.47,-3.21,0.40752241374522574,0.5930416050771461,0.260011294253589,0.56814518051168,0.45643757101536403,0.212513363626526
286,16.644,16.53,-3.34,0.40636396709762507,0.5943133983633158,0.2590027529503757,0.5694728210631004,0.45516110735319715,0.21335363020809645
287,16.724,16.58,-3.31,0.4052116620345741,0.5955835373265623,0.2580118115414827,0.5707595927324834,0.4538739005723671,0.21420857279623276
288,16.765,16.64,-3.12,0.4040650982253646,0.5968516697837645,0.2570381061854937,0.572004960990319,0.4525755578185239,0.21507752257375565
289,16.826,16.69,-3.21,0.4029238729849294,0.598117446975576,0.2560812674297915,0.5732084221221048,0.45126570145400546,0.2159598104014256
290,16.887,16.75,-3.3,0.4017875817193022,0.5993805239580527,0.2551409206442976,0.5743695036089027,0.44994396941885834,0.2168547675779547
291,16.97,16.8,-3.16,0.4006558183754352,0.600640559989602,0.25421668645429324,0.5754877644915889,0.44861001557699687,0.21776172659356652
292,16.99,16.86,-3.13,0.39952817589450934,0.6018972189129242,0.253308181172022,0.5765627957175231,0.44726351004724624,0.21868002187593774
293,17.031,16.91,-3.33,0.39840424666808877,0.6031501695311811,0.25241501722688986,0.5775942204682296,0.4459041395190972,0.2196089905273268
294,17.092,16.97,-3.28,0.3972836229966891,0.6043990859773293,0.2515368035941549,0.5785816944667098,0.4445316075530593,0.22054797305178359
295,17.156,17.02,-3.23,0.39616589755050774,0.6056436480754638,0.25067314622200976,0.5795249062632092,0.4431456348655443,0.2214963140714409
296,17.195,17.08,-3.39,0.39505066383217,0.6068835416930672,0.2498236484569303,0.5804235774985056,0.44174595959822427,0.22245336303100346
297,17.258,17.13,-3.42,0.3939375166413363,0.6081184590832893,0.24898791146709737,0.5812774631440238,0.44033233757176193,0.22341847488965944
298,17.339,17.19,-3.2,0.392826052540937,0.6093480992166412,0.24816553466359628,0.5820863517182947,0.4389045425237442,0.2243910107997116
299,17.359,17.24,-3.27,0.3917158703247085,0.6105721681016435,0.24735611611901487,0.5828500654793829,0.4374623663305882,0.22537033877123847
300,17.441,17.3,-3.39,0.3906065714856339,0.611790379093903,0.24655925298298093,0.5835684605929082,0.43600561921315756,0.22635583432207124
301,17.481,17.35,-3.25,0.389497760684874,0.6130024531928825,0.24577454189412928,0.5842414272752435,0.4345341299258588,0.2273468811122778
302,17.523,17.41,-3.25,0.38838904622081455,0.6142081193253115,0.24500157938800304,0.584868889911375,0.43304774592907014,0.22834287156220542
303,17.584,17.46,-3.45,0.3872800404978949,0.6154071146139067,0.24423996230047199,0.5854508071468099,0.4315463335448197,0.22934320745306708
304,17.645,17.52,-3.39,0.38617036049489484,0.6165991846299781,0.24348928816629525,0.5859871719529555,0.43002977809566933,0.23034730050910915
305,17.728,17.57,-3.31,0.38505962823231427,0.6177840836285926,0.24274915561245886,0.5864780116656212,0.4284979840267666,0.23135457296055367
306,17.749,17.63,-3.46,0.3839474712384239,0.6189615747652095,0.24201916474593133,0.5869233879965717,0.4269508750110029,0.23236445808674006
307,17.811,17.68,-3.47,0.38283352301347223,0.6201314302930663,0.24129891753548607,0.5873233970183276,0.42538839403716006,0.23337640073914598
308,17.852,17.74,-3.3,0.38171742349144105,0.6212934317409985,0.24058801818724584,0.5876781691225943,0.4238105034808851,0.23438985784411764
309,17.913,17.79,-3.44,0.3805988194987011,0.6224473700716647,0.23988607351364138,0.5879878689526896,0.4222171851583082,0.23540429888515493
310,17.975,17.85,-3.5,0.3794773652089309,0.6235930458202453,0.23919269329554368,0.5882526953101029,0.4206084403621089,0.2364192063645263
311,18.077,17.9,-3.35,0.378352722593725,0.6247302692135951,0.23850749063741344,0.5884728810349849,0.4189842898798477,0.23743407624386859
312,18.097,17.96,-3.35,0.3772245618684149,0.6258588602695809,0.23783008231539735,0.5886486928600384,0.4173447739943997,0.238448418363331
313,18.137,18.01,-3.5,0.3760925619327167,0.6269786488760444,0.23716008911835343,0.5887804312371117,0.4156899524663496,0.23946175683881887
314,18.198,18.07,-3.36,0.3749564108058362,0.6280894748487206,0.23649713618174095,0.5888684301359419,0.4140199044982444,0.2404736304369814
315,18.239,18.12,-3.3,0.37381580605563774,0.6291911879675269,0.2358408533141931,0.5889130568149086,0.4123347286806607,0.241483592927699
316,18.3,18.18,-3.44,0.3726704552214491,0.6302836479908629,0.23519087531646488,0.5889147115641314,0.410634542920105,0.2424912134139427
317,18.361,18.23,-3.43,0.3715200762300554,0.6313667246478879,0.2345468422923233,0.5888738274217382,0.408919484348823,0.24349607663898304
318,18.423,18.29,-3.26,0.37036439780441516,0.6324402976090981,0.23390839995084362,0.5887908698645267,0.4071897092166685,0.24449778327095817
319,18.463,18.34,-3.39,0.36920315986460567,0.6335042564358269,0.23327519989956758,0.5886663364743778,0.40544539276524455,0.24549595016476933
320,18.526,18.4,-3.49,0.3680361139204632,0.6345585005095098,0.23264689992805,0.5885007565816033,0.4036867290845907,0.24649021060117507
321,18.609,18.45,-3.34,0.3668630234553593,0.6356029389416482,0.2320231642814155,0.5882946908860524,0.4019139309527499,0.24748021450280616
322,18.63,18.51,-3.37,0.3656836643005547,0.636637490465341,0.23140366392364753,0.5880487310563854,0.4001272296586115,0.2484656286266674
323,18.692,18.56,-3.53,0.3644978249995783,0.6376620833091425,0.23078807679041038,0.5877634993075486,0.39832687480844775,0.24944613673262045
324,18.756,18.62,-3.42,0.3633053071620375,0.6386766550540103,0.23017608803123313,0.5874396479562891,0.3965131341165763,0.250421439727349
325,18.818,18.67,-3.41,0.3621059258062158,0.6396811524742116,0.22956739024088943,0.5870778589545046,0.39468629318059906,0.25139125578334115
326,18.84,18.73,-3.6,0.3608995096897843,0.6406755313631972,0.2289616836798133,0.5866788434002885,0.39284665524167417,0.25235532043249553
327,18.899,18.78,-3.59,0.35968590162796005,0.6416597563455999,0.2283586764833488,0.5862433410267653,0.3909945409302627,0.25331338663405645
328,18.962,18.84,-3.44,0.3584649587984573,0.6426338006766865,0.22775808485957763,0.5857721196690758,0.38913028799776705,0.2542652248166973
329,19.024,18.89,-3.6,0.35723655303262075,0.6435976460306972,0.2271596332754673,0.5852659747099959,0.38725425103442057,0.2552106228946981
330,19.065,18.95,-3.64,0.35600057109216904,0.6445512822795555,0.22656305463112503,0.5847257285046075,0.38536680117373534,0.2561493862582913
331,19.168,19.0,-3.51,0.35475691493102085,0.6454947072633334,0.22596809042197616,0.5841522297843021,0.3834683257837839,0.25708133773830566
332,19.188,19.06,-3.61,0.3535055019417363,0.6464279265535857,0.2253744908887053,0.5835463530402469,0.38155922814558896,0.25800631754520703
333,19.228,19.11,-3.74,0.35224626518615937,0.647350953210266,0.22478201515479435,0.5829089978863302,0.37963992711888406,0.25892418318260596
334,19.31,19.17,-3.63,0.35097915360986415,0.6482638075326299,0.22419043135145617,0.5822410884016,0.37771085679549593,0.25983480933530484
335,19.351,19.22,-3.58,0.34970413223999464,0.6491665168043473,0.223599516729775,0.5815435724522249,0.37577246614056514,0.2607380877320261
336,19.392,19.28,-3.77,0.3484211823660553,0.6500591150330747,0.22300905775997612,0.580817420992944,0.3738252186217813,0.2616339269831123
337,19.455,19.33,-3.74,0.3471303017031479,0.6509416426849369,0.22241885021791538,0.5800636273478864,0.3718695918267714,0.2625222523936763
338,19.535,19.39,-3.61,0.34583150453707034,0.651814146414716,0.22182869925905527,0.5792832064705913,0.36990607706876155,0.26340300575283465
339,19.557,19.44,-3.76,0.3445248218505972,0.6526766787929046,0.22123841948036455,0.5784771941830136,0.3679351789806201,0.2642761450997722
340,19.64,19.5,-3.79,0.3432103014301286,0.6535292980311781,0.2206478349706873,0.5776466463932632,0.36595741509735763,0.2651416444674821
341,19.68,19.55,-3.62,0.3418880079517369,0.6543720677081631,0.22005677935015305,0.5767926382918136,0.36397331542714256,0.2659994936050407
342,19.721,19.61,-3.7,0.34055802304553834,0.6552050564975045,0.2194650957991569,0.5759162635259569,0.3619834220108912,0.2668496976792386
343,19.783,19.66,-3.81,0.3392204453372873,0.6560283379001219,0.21887263707730997,0.5750186333524347,0.3599882884705008,0.2676922769563428
344,19.845,19.72,-3.69,0.33787539046613746,0.6568419899822476,0.2182792655325737,0.5741008757684383,0.3579884795458247,0.2685272664647223
345,19.907,19.77,-3.66,0.3365229910776421,0.6576460951204286,0.2176848531006603,0.5731641346213736,0.3559845706205253,0.2693547156390244
346,19.967,19.83,-3.8,0.33516339679123014,0.6584407397542565,0.2170892812947526,0.5722095686978036,0.3539771472369725,0.2701746879465942
347,20.008,19.88,-3.67,0.33379677414155595,0.6592260141473038,0.2164924411856269,0.5712383507919535,0.3519668046003719,0.27098726049688476
348,20.089,19.94,-3.61,0.33242330649328405,0.6600020121565995,0.2158942333723035,0.5702516667541915,0.34995414707235,0.27179252363464873
349,20.151,19.99,-3.75,0.3310431939290191,0.6607688310109662,0.21529456794342433,0.5692507145199424,0.34793978765427713,0.272590580517723
350,20.172,20.05,-3.8,0.3296566531102046,0.6615265710986693,0.21469336442958784,0.568236703119587,0.34592434746068246,0.27338154668020814
351,20.253,20.1,-3.65,0.32826391711088343,0.6622753357649903,0.21409055174686295,0.567210851670027,0.34390845518319113,0.2741655495817959
352,20.294,20.16,-3.78,0.32686523522430494,0.6630152311203853,0.21348606813168566,0.5661743883486215,0.3418927465454558,0.27494272814392035
353,20.355,20.21,-3.88,0.3254608727424659,0.6637463658597763,0.21287986106732615,0.5651285493500954,0.33987786374955714,0.27571323227331146
354,20.417,20.27,-3.76,0.32405111070878223,0.6644688510932639,0.21227188720208426,0.5640745778268721,0.33786445491433126,0.2764772223734041
355,20.457,20.32,-3.77,0.3226362456441869,0.6651828001882243,0.2116621122593622,0.5630137228131213,0.3358531735060693,0.27723486884392207
356,20.517,20.38,-3.96,0.32121658924701474,0.6658883286224181,0.21105051093978128,0.5619472381326932,0.3338446777620042,0.2779863515689289
357,20.578,20.43,-3.85,0.319792468067075,0.6665855538475255,0.21043706681551483,0.56087638129115,0.33183963010696027,0.2787318593937418
358,20.661,20.49,-3.78,0.31836422315432233,0.6672745951624495,0.209821772217013,0.5598024123522772,0.32983869656352466,0.27947158959129237
359,20.682,20.54,-3.88,0.3169322096825427,0.6679555735958566,0.2092046281122962,0.5587265927997492,0.3278425461560693,0.2802057473187724
360,20.723,20.6,-3.85,0.3154967965484365,0.6686286117977481,0.20858564397896165,0.5576501843850626,0.32585185030894454,0.2809345450656509
361,20.765,20.65,-3.68,0.3140583659464734,0.6692938339402439,0.20796483766898424,0.5565744479633282,0.32386728223919337,0.28165820209428677
362,20.828,20.71,-3.85,0.31261731291996886,0.6699513656279439,0.20734223526637002,0.5555006423187782,0.3218895163442048,0.2823769438743398
363,20.889,20.76,-3.97,0.31117404488897366,0.6706013338181698,0.20671787093773822,0.5544300229818103,0.31991922758481606,0.28309100151203465
364,20.93,20.82,-3.81,0.3097289811557194,0.6712438667511696,0.20609178677593837,0.5533638410391768,0.3179570908644589,0.2838006111751206
365,21.014,20.87,-3.83,0.30828255238847874,0.6718790938900706,0.20546403263685786,0.5523033419386496,0.31600378040499466,0.2845060135142099
366,21.056,20.93,-4.01,0.3068352000847743,0.67250714587007,0.20483466596961578,0.5512497642892618,0.3140599691198695,0.28520745308115747
367,21.116,20.98,-3.85,0.305387376014884,0.6731281544561779,0.20420375164033563,0.550204338658166,0.3121263279851925,0.2859051777452115
368,21.198,21.04,-3.79,0.30393954164659,0.6737422525087331,0.20357136174968965,0.549168286365206,0.3102035254093388,0.2865994381077232
369,21.219,21.09,-3.97,0.30249216755213093,0.6743495739559392,0.20293757544442842,0.5481428182764396,0.308292226601701,0.28729048691625875
370,21.26,21.15,-3.99,0.301045732798325,0.6749502537727986,0.20230247872311977,0.5471291335981024,0.30639309294124895,0.28797857847900094
371,21.362,21.2,-3.88,0.2996007243208381,0.6755444279660298,0.20166616423633152,0.5461284186728033,0.30450678134560527,0.28866396808035183
372,21.383,21.26,-4.05,0.2981576362835947,0.6761322335647382,0.2010287310815501,0.5451418457799169,0.3026339436413732,0.2893469113986913
373,21.445,21.31,-4.1,0.2967169694243448,0.6767138086167609,0.20039028459320324,0.5441705719421124,0.300775225936427,0.2900276639273566
374,21.507,21.37,-3.92,0.29527923038742027,0.6772892921906735,0.1997509361282182,0.5432157377397989,0.2989312679948196,0.29070648040002994
375,21.568,21.42,-3.94,0.29384493104477094,0.6778588243833622,0.19911080284759455,0.5422784661350045,0.29710270261491223,0.2913836142217931
376,21.589,21.48,-4.07,0.29241458780641605,0.6784225463328707,0.19847000749448648,0.5413598613059553,0.2952901550112929,0.29205931690713394
377,21.649,21.53,-3.91,0.2909887209214634,0.6789806002360633,0.19782867816923547,0.5404610074935053,0.2934942422010659,0.2927338375261317
378,21.752,21.59,-3.92,0.289567853770878,0.6795331293705064,0.19718694810170598,0.5395829678606364,0.291715572395173,0.29340742215994314
379,21.772,21.64,-4.07,0.28815251215325205,0.680080278119858,0.19654495542121192,0.5387267833664352,0.2899547443954977,0.2940803133666209
380,21.812,21.7,-3.98,0.28674322356490567,0.680622192002058,0.19590284292424906,0.5378934716563678,0.2882123469985786,0.2947527496582592
381,21.892,21.75,-3.89,0.285340516475692,0.6811590176997527,0.19526075784018893,0.5370840259711686,0.28648895840682215,0.29542496499043785
382,21.954,21.81,-4.08,0.2839449196018799,0.6816909030926446,0.19461885159507872,0.5362994140770432,0.2847851456481561,0.29609718826491327
383,21.995,21.86,-4.14,0.2825569611774339,0.682217997291784,0.19397727957370903,0.5355405772200469,0.28310146400509556,0.29676964284647167
384,22.057,21.92,-3.98,0.28117716822491245,0.6827404506761681,0.1933362008801263,0.5348084291074484,0.2814384564542224,0.29744254609478105
385,22.098,21.97,-4.08,0.2798060658271175,0.683258414932203,0.19269577809681687,0.5341038549186539,0.2797966531170865,0.29811610891198814
386,22.158,22.03,-4.22,0.2784441764005465,0.6837720430965927,0.19205617704284983,0.533427710347901,0.2781765707234947,0.29879053530675104
387,22.199,22.08,-4.12,0.27709201897165214,0.6842814896030514,0.19141756653129036,0.5327808206805948,0.2765787120881153,0.2994660219753443
388,22.262,22.14,-4.14,0.2757501084569149,0.6847869103329312,0.1907801181262194,0.5321639799048745,0.2750035656013022,0.3001427579004202
389,22.323,22.19,-4.35,0.27441895494781865,0.685288462669424,0.19014400589973632,0.5315779498597822,0.2734516047349948,0.30082092396802373
390,22.384,22.25,-4.28,0.2730990630019544,0.6857863055546225,0.18950940618936413,0.5310234594213205,0.27192328756447776,0.30150069260354134
391,22.465,22.3,-4.23,0.27179093094163526,0.6862805995484711,0.1888764973563174,0.5305012037276949,0.2704190563066985,0.30218222742735057
392,22.506,22.36,-4.38,0.270495050161521,0.6867715068885988,0.1882454595451513,0.530011843445052,0.2689393368757401,0.3028656829310113
393,22.527,22.41,-4.38,0.26921190444673687,0.6872591915502045,0.18761647444533083,0.5295560040750069,0.26748453845593406,0.3035512041748659
394,22.589,22.47,-4.2,0.26794196930286296,0.6877438193054469,0.18698972505522532,0.529134275305228,0.26605505309300753,0.30423892650785056
395,22.652,22.52,-4.31,0.26668571129906393,0.688225557781922,0.1863653954489945,0.5287472104041945,0.26465125530360506,0.30492897531014124
396,22.693,22.58,-4.41,0.2654435874255495,0.6887045765197604,0.18574367054681135,0.5283953256609524,0.26327350170348685,0.3056214657590284
397,22.775,22.63,-4.3,0.2642160444665103,0.689181047026719,0.185124735888866,0.5280790998703435,0.26192213065472414,0.3063165026181447
398,22.878,22.69,-4.32,0.26300351838965563,0.6896551428304379,0.18450877741364058,0.5277989738637964,0.2605974619322439,0.3070141800499481
399,22.899,22.74,-4.5,0.2618064337534849,0.6901270395268508,0.18389598124102557,0.5275553500853798,0.25929979641007056,0.307714581451267
400,22.941,22.8,-4.43,0.26062520313343224,0.6905969148236264,0.18328653346088683,0.5273485922125947,0.25802941576757965,0.30841777931175013
401,22.983,22.85,-4.34,0.2594602265680318,0.6910649485775332,0.1826806199276621,0.5271790248213734,0.2567865822160241,0.30912383509517366
402,23.045,22.91,-4.48,0.25831189102623364,0.6915313228248201,0.18207842606149682,0.5270469330949056,0.25557153824551715,0.3098327991437122
403,23.107,22.96,-4.5,0.2571805698969192,0.6919962218040793,0.18148013665631918,0.5269525625762043,0.2543845063925881,0.3105447106054307
404,23.149,23.02,-4.37,0.25606662250153645,0.6924598319715025,0.18088593569510822,0.5268961189646441,0.2532256890283789,0.3112595973852975
405,23.233,23.07,-4.49,0.25497039363066415,0.6929223420087198,0.18029600617250482,0.5268777679568452,0.2520952681675252,0.31197747611994087
406,23.254,23.13,-4.58,0.2538922131052393,0.693383942823444,0.17971052992483824,0.5268976351321683,0.25099340529772735,0.3126983521762278
407,23.316,23.18,-4.41,0.2528323953631536,0.6938448275429558,0.17912968746755328,0.5269558058828999,0.24992024122997947,0.31342221967356587
408,23.356,23.24,-4.39,0.25179123907193557,0.6943051915001023,0.17855365783994076,0.5270523253890275,0.24887589596938814,0.314149061529639
409,23.417,23.29,-4.57,0.2507690267682234,0.6947652322111346,0.17798261845699823,0.5271871986373879,0.2478604686064716,0.3148788495291327
410,23.5,23.35,-4.42,0.24976602452463847,0.6952251493445957,0.1774167449681679,0.5273603904850322,0.24687403722882745,0.3156115444148773
411,23.52,23.4,-4.38,0.24878248164449981,0.6956851446806666,0.17685621112265448,0.5275718257667961,0.24591665885308356,0.31634709600074756
412,23.582,23.46,-4.5,0.2478186303846169,0.6961454220607963,0.17630118864105848,0.5278213894471945,0.24498836937708462,0.3170854433056447
413,23.624,23.51,-4.49,0.24687468570618012,0.6966061873279642,0.1757518470930993,0.52810892681685,0.24408918355228554,0.31782651470794276
414,23.684,23.57,-4.37,0.24595084505360423,0.6970676482583886,0.17520835378122893,0.5284342437337212,0.24321909497635083,0.31857022811981844
415,23.744,23.62,-4.49,0.24504728816108567,0.6975300144857179,0.17467087362995357,0.528797106909363,0.2423780761059841,0.319316491180874
416,23.806,23.68,-4.54,0.24416417688661637,0.697993497418729,0.17413956908066572,0.5291972442403436,0.2415660782900171,0.32006520147040796
417,23.887,23.73,-4.4,0.24330165507322873,0.6984583101533316,0.17361459999172735,0.5296343451848318,0.24078303182279426,0.3208162467375707
418,23.95,23.79,-4.42,0.24245984843728935,0.6989246673793582,0.1730961235434711,0.5301080611842058,0.24002884601788896,0.3215695051484708
419,23.969,23.84,-4.57,0.24163886448365968,0.6993927852823136,0.17258429414773238,0.5306180061293417,0.23930340930218186,0.3223248455491339
420,24.011,23.9,-4.44,0.24083879244746834,0.6998628814401013,0.17207926336145846,0.531163756871102,0.2386065893303407,0.32308212774307854
421,24.137,23.95,-4.37,0.24005970326214188,0.7003351747146809,0.17158117980387058,0.5317448537745396,0.23793823311976436,0.3238412027821653
422,24.157,24.01,-4.56,0.23930164955327,0.7008098851386148,0.17109018907659881,0.5323608013164557,0.23729816720606722,0.3246019132693299
423,24.198,24.06,-4.56,0.23856466565785628,0.7012872337965675,0.1706064336861486,0.5330110687262162,0.23668619781919323,0.3253640936718236
424,24.259,24.12,-4.43,0.23784876766851712,0.7017674427019738,0.1701300529680226,0.5336950906700452,0.2361021110802574,0.3261275706436003
425,24.321,24.17,-4.56,0.23715395350221677,0.7022507346692562,0.16966118301186045,0.5344122679791132,0.23554567321920172,0.3268921633555195
426,24.342,24.23,-4.67,0.23648020299312605,0.7027373331821263,0.169199956587053,0.5351619684215515,0.23501663081330423,0.3276576838320762
427,24.404,24.28,-4.52,0.23582747800915316,0.7032274622586232,0.1687465030684192,0.5359435275180312,0.2345147110465209,0.32842393729336655
428,24.468,24.34,-4.58,0.2351957225916833,0.7037213463135121,0.16830094836169568,0.5367562493999086,0.23403962198959052,0.3291907225009884
429,24.508,24.39,-4.74,0.23458486311808477,0.7042192100184329,0.16786341482872072,0.5375994077083665,0.23359105290075838,0.3299578321066387
430,24.569,24.45,-4.58,0.23399480848657495,0.7047212781598842,0.16743402121224776,0.5384722465326893,0.23316867454690274,0.3307250530023168
431,24.63,24.5,-4.54,0.23342545032308873,0.705227775494788,0.16701288256034647,0.5393739813857413,0.23277213954478126,0.33149216667119913
432,24.671,24.56,-4.71,0.23287666320985412,0.7057389266030741,0.16660011015038886,0.5403038002147542,0.2324010827220566,0.33225894953840013
433,24.732,24.61,-4.66,0.23234830493541134,0.7062549557365699,0.166195811412623,0.5412608644456901,0.23205512149771607,0.33302517332094217
434,24.793,24.67,-4.55,0.23184021676578104,0.7067760866635252,0.16580008985332725,0.5422443100596961,0.23173385628148901,0.3337906053763078
435,24.854,24.72,-4.69,0.23135222373641198,0.7073025425083305,0.1654130449775188,0.5432532487004056,0.23143687089185014,0.3345550090489867
436,24.895,24.78,-4.73,0.23088413496442106,0.7078345455863105,0.16503477221114574,0.5442867688110431,0.23116373299216517,0.33531814401447907
437,24.958,24.83,-4.56,0.23043574398050296,0.7083723172337962,0.1646653628226323,0.5453439368004386,0.23091399454450393,0.3360797666202408
438,25.06,24.89,-4.63,0.23000682907979075,0.7089160776338524,0.16430490384361074,0.5464237982370631,0.2306871922806204,0.33683963022305263
439,25.081,24.94,-4.73,0.22959715369090267,0.7094660456380099,0.16395347798865784,0.5475253790701211,0.23048284818956827,0.3375974855222963
440,25.121,25.0,-4.6,0.22920646676242307,0.7100224385841599,0.16361116357380623,0.5486476868766565,0.23030047002140724,0.3383530808886145
441,25.203,25.05,-4.56,0.22883450316613596,0.7105854721104488,0.16327803443358413,0.5497897121335584,0.23013955180645998,0.3391061626874037
442,25.224,25.11,-4.73,0.22848098411639658,0.7111553599647448,0.16295415983637587,0.5509504295131981,0.22999957438958463,0.33985647559661375
443,25.286,25.16,-4.65,0.22814561760503455,0.7117323138091833,0.16263960439798658,0.5521287992012781,0.22988000597892486,0.34060376291841665
444,25.347,25.22,-4.56,0.22782809885113403,0.712316543019449,0.16233442799342399,0.5533237682353472,0.2297803027086049,0.3413477668844277
445,25.451,25.27,-4.69,0.2275281107649791,0.7129082544787173,0.16203868566707882,0.5545342718623035,0.22969990921483785,0.3420882289543223
446,25.491,25.33,-4.73,0.22724532442538364,0.7135076523665329,0.16175242754160488,0.5557592349131198,0.22963825922489328,0.3428248901078559
447,25.512,25.38,-4.54,0.22697939956956698,0.7141149379432391,0.16147569872583412,0.5569975731930059,0.2295947761583563,0.34355749113041506
448,25.553,25.44,-4.64,0.22672998509470768,0.7147303093307413,0.1612085392220738,0.5582481948851431,0.2295688737400976,0.34428577289229073
449,25.615,25.49,-4.72,0.22649671957031248,0.7153539612903146,0.16095098383315373,0.5595100019659285,0.22955995662435094,0.34500947662189274
450,25.676,25.55,-4.61,0.22627923176055623,0.7159860849979298,0.16070306206960924,0.5607818916293789,0.22956742102928296,0.34572834417310105
451,25.717,25.6,-4.62,0.2260771411558035,0.7166268678172774,0.16046479805741978,0.5620627577180571,0.22959065538145065,0.34644211828686355
452,25.82,25.66,-4.79,0.2258900585125864,0.7172764930704029,0.16023621044677067,0.5633514921576152,0.22962904096953513,0.34715054284708047
453,25.841,25.71,-4.71,0.2257175864013558,0.7179351398057573,0.16001731232234523,0.56464698639192,0.22968195260671045,0.34785336313079945
454,25.882,25.77,-4.62,0.2255593197613435,0.7186029825634528,0.15980811111571325,0.5659481328157224,0.22974875930096442,0.3485503260527951
455,25.943,25.82,-4.73,0.22541484646186827,0.7192801911376026,0.15960860852043493,0.5672538262019041,0.22982882493262236,0.3492411804047075
456,26.004,25.88,-4.73,0.22528374786938662,0.7199669303357786,0.15941880041046655,0.5685629651205856,0.2299215089382595,0.3499256770890178
457,26.046,25.93,-4.59,0.22516559941953504,0.7206633597358373,0.1592386767623184,0.569874453347721,0.23002616700015033,0.3506035693481361
458,26.148,25.99,-4.73,0.22505997119335125,0.7213696334405579,0.15906822158126527,0.571187201261071,0.23014215174039768,0.35127461298874657
459,26.169,26.04,-4.8,0.2249664284967767,0.7220858998307561,0.15890741283180576,0.5725001272215157,0.23026881341888286,0.35193856660137196
460,26.21,26.1,-4.72,0.22488453244244902,0.7228123013176581,0.1587562223725117,0.5738121589375852,0.23040550063416518,0.3525951917749509
461,26.27,26.15,-4.68,0.2248138405327549,0.7235489740952773,0.1586146158954426,0.5751222348108966,0.23055156102642102,0.3532442533061439
462,26.333,26.21,-4.83,0.2247539072431348,0.7242960478932944,0.1584825528703441,0.5764293052599908,0.23070634198143503,0.3538855194031434
463,26.375,26.26,-4.72,0.22470428460465672,0.7250536457307089,0.15835998649386027,0.5777323340200796,0.23086919133457864,0.3545187618839343
464,26.457,26.32,-4.65,0.22466452278493315,0.7258218836703981,0.15824686364398766,0.5790302994163898,0.2310394580736562,0.3551437563691167
465,26.518,26.37,-4.79,0.22463417066648977,0.7266008705747541,0.1581431248400366,0.5803221956090209,0.23121649303946715,0.3557602824695484
466,26.539,26.43,-4.8,0.2246127764216985,0.7273907078628298,0.15804870420838413,0.5816070338074761,0.2313996496229055,0.3563681239691717
467,26.601,26.48,-4.66,0.22459988808334347,0.7281914892698224,0.15796352945429332,0.582883843453242,0.23158828445741092,0.3569670690034162
468,26.685,26.54,-4.76,0.22459505410986025,0.7290033006099943,0.1578875218400797,0.5841516733688462,0.23178175810555582,0.3575569102335365
469,26.705,26.59,-4.8,0.22459782394428757,0.7298262195442075,0.15782059616993985,0.5854095928716998,0.23197943573851443,0.35813744501717276
470,26.766,26.65,-4.63,0.22460774856598664,0.730660315353082,0.15776266078177298,0.5866566928507878,0.23218068780711673,0.35870847557530033
471,26.828,26.7,-4.64,0.22462438103421054,0.7315056487165033,0.15771361754637198,0.5878920868040022,0.23238489070318089,0.35926980915558004
472,26.89,26.76,-4.76,0.22464727702261403,0.7323622714999015,0.15767336187438327,0.5891149118336821,0.23259142740981578,0.35982125819200406
473,26.95,26.81,-4.63,0.22467599534378024,0.7332302265475729,0.15764178273142,0.590324329597912,0.23279968813940957,0.3603626404606682
474,27.01,26.87,-4.58,0.22471009846283033,0.7341095474833111,0.1576187626616567,0.5915195272153692,0.2330090709580758,0.3608937792314934
475,27.052,26.92,-4.68,0.22474915299916706,0.7350002585187968,0.15760417782013061,0.5926997181219965,0.2332189823953684,0.36141450341578263
476,27.115,26.98,-4.65,0.22479273021535817,0.7359023742705457,0.1575978980137828,0.5938641428784949,0.23342883803811298,0.36192464770960964
477,27.177,27.03,-4.49,0.224840406492134,0.7368158995865849,0.15759978675105069,0.5950120699283995,0.2336380631072422,0.3624240527331238
478,27.26,27.09,-4.62,0.22489176378850123,0.7377408293841866,0.15760970129969157,0.596142796306989,0.23384609301656648,0.36291256516589854
479,27.282,27.14,-4.67,0.22494639008603656,0.7386771484999128,0.15762749275250085,0.5972556483013416,0.23405237391244663,0.3633900378784567
480,27.322,27.2,-4.53,0.22500387981648573,0.7396248315529822,0.1576530061006417,0.5983499820616381,0.23425636319337803,0.36385633006005197
481,27.384,27.25,-4.54,0.22506383427184315,0.7405838428226503,0.15768608031439,0.5994251841634697,0.23445753000853423,0.36431130734270484
482,27.445,27.31,-4.67,0.2251258619961236,0.7415541361399791,0.15772654843117861,0.6004806721205646,0.23465535573432247,0.3647548419214282
483,27.507,27.36,-4.51,0.2251895791580514,0.7425356547941251,0.1577742376508738,0.6015158948471251,0.23484933442800904,0.36518681267054637
484,27.548,27.42,-4.42,0.22525460990392168,0.7435283314531159,0.15782896943827485,0.6025303330688359,0.23503897325749737,0.3656071052559705
485,27.631,27.47,-4.54,0.22532058668995097,0.7445320880989763,0.15789055963292442,0.6035234996815477,0.23522379290638365,0.3660156122433106
486,27.652,27.53,-4.49,0.22538715059351974,0.7455468359770668,0.15795881856637436,0.6044949400567401,0.23540332795347801,0.3664122332017515
487,27.694,27.58,-4.33,0.22545395160282333,0.746572475559599,0.15803355118708268,0.6054442322930925,0.23557712722608581,0.3667968748036516
488,27.776,27.64,-4.47,0.2255206488845747,0.7476088965234093,0.15811455719315484,0.6063709874137003,0.23574475412645776,0.3671694509197988
489,27.839,27.69,-4.5,0.2255869110295055,0.7486559777421962,0.15820163117318284,0.6072748495085785,0.23590578693092232,0.36752988271019293
490,27.882,27.75,-4.33,0.2256524162754801,0.7497135872934843,0.15829456275544215,0.6081554958221367,0.2360598190613053,0.3678780987100999
491,28.003,27.8,-4.38,0.22571685270811614,0.7507815824804898,0.15839313676571498,0.6090126367852435,0.23620645932831985,0.3682140349109738
492,28.024,27.86,-4.48,0.225779918438874,0.75185980986883,0.15849713339401403,0.6098460159913811,0.2363453321466619,0.36853763483571306
493,28.045,27.91,-4.37,0.22584132176063829,0.7529481053377667,0.15860632837045727,0.6106554101163542,0.2364760777216064,0.3688488496076156
494,28.106,27.97,-4.33,0.22590078128087565,0.7540462941454278,0.15872049315049752,0.6114406287810998,0.23659835220696934,0.36914763801230926
495,28.166,28.02,-4.5,0.22595802603254564,0.7551541910072915,0.15883939510959166,0.6122015143573837,0.2367118278343567,0.3694339665519374
496,28.206,28.08,-4.45,0.2260127955630231,0.7562716001871749,0.1589627977471306,0.6129379417166626,0.23681619301365578,0.3697078094909706
497,28.269,28.13,-4.33,0.22606484000133992,0.757398315600128,0.15909046089906387,0.6136498179230638,0.2369111524047507,0.3699691488931361
498,28.351,28.19,-4.43,0.22611392010405787,0.7585341209268736,0.15922214095828255,0.614337081872027,0.23699642696045464,0.3702179746490796
499,28.372,28.24,-4.46,0.22615980728004798,0.7596787897397307,0.159357591101553,0.6149997038765546,0.23707175394065186,0.37045428449447904
500,28.413,28.3,-4.25,0.22620228359437647,0.7608320856402184,0.1594965615216596,0.6156376852031543,0.2371368868976667,0.37067808401834823
501,28.475,28.35,-4.29,0.2262411417514591,0.7619937624085921,0.15963879966342753,0.6162510575594042,0.23719159563294148,0.3708893866612092
502,28.536,28.41,-4.39,0.22627618505763616,0.7631635641654703,0.15978405046237154,0.6168398825347825,0.23723566612518449,0.37108821370272177
503,28.618,28.46,-4.25,0.22630722736334324,0.7643412255455183,0.15993205658478313,0.6174042509962467,0.23726890043026208,0.3712745942382561
504,28.639,28.52,-4.23,0.22633409298512136,0.7655264718829362,0.1600825586681348,0.6179442824400714,0.23729111655324828,0.37144856514378816
505,28.721,28.57,-4.39,0.22635661660782888,0.7667190194082834,0.16023529556079913,0.6184601243015437,0.23730214829316618,0.3716101710284712
506,28.742,28.63,-4.37,0.22637464316754463,0.7679185754560679,0.1603900045602257,0.618951951224226,0.23730184506104054,0.371759464174306
507,28.805,28.68,-4.27,0.2263880277157587,0.7691248386825293,0.1605464216488675,0.6194199642905893,0.23729007167195376,0.3718965044624591
508,28.866,28.74,-4.43,0.22639663526550885,0.770337499293146,0.1607042817272773,0.6198643902159089,0.2372667081118188,0.37202135928595403
509,28.907,28.79,-4.47,0.22640034062009606,0.771556239279623,0.16086331884382352,0.6202854805074586,0.2372316492795638,0.3721341034486304
510,28.969,28.85,-4.26,0.22639902818491955,0.7727807326664151,0.16102326642039344,0.6206835105912727,0.23718480470540138,0.3722348190503692
511,29.031,28.9,-4.32,0.22639259176285528,0.7740106457670511,0.16118385747333644,0.6210587789088986,0.2371260982458341,0.37232359535860093
512,29.093,28.96,-4.42,0.22638093433350223,0.7752456374505693,0.16134482482879894,0.6214116059866137,0.23705546775604314,0.3724005286660692
513,29.133,29.01,-4.27,0.22636396781657128,0.7764853594182651,0.16150590133150572,0.6217423334795947,0.23697286474034357,0.37246572213473406
514,29.196,29.07,-4.26,0.22634161281973428,0.7777294564906977,0.1616668200460213,0.6220513231935315,0.23687825398148624,0.3725192856255808
515,29.256,29.12,-4.41,0.22631379837137947,0.7789775669045907,0.16182731444960827,0.622338956086114,0.2367716131496768,0.37256133551406423
516,29.298,29.18,-4.35,0.2262804616388415,0.7802293226191163,0.1619871186159435,0.6226056312507677,0.2366529323922632,0.3725919944909863
517,29.359,29.23,-4.25,0.22624154763276513,0.7814843496311131,0.1621459673891344,0.6228517648850002,0.23652221390510858,0.3726113913487437
518,29.464,29.29,-4.39,0.2261970088983039,0.7827422682990333,0.1623035965477074,0.6230777892456796,0.23637947148671087,0.3726196607530669
519,29.484,29.34,-4.41,0.2261468051938312,0.7840026936757296,0.1624597429584267,0.6232841515935194,0.23622473007614314,0.3726169430005627
520,29.526,29.4,-4.26,0.2260909031577696,0.7852652358505133,0.16261414471991975,0.6234713131289668,0.2360580252759191,0.37260338376249846
521,29.588,29.45,-4.33,0.22602927596406652,0.7865295003010567,0.16276654129615056,0.623639747921539,0.23587940286091622,0.3725791338152882
522,29.651,29.51,-4.5,0.22596190296678212,0.7877950882556906,0.1629166736398161,0.6237899418344168,0.23568891827451435,0.3725443487580944
523,29.692,29.56,-4.37,0.2258887693342356,0.7890615970664515,0.16306428430576247,0.6239223914458534,0.23548663611313816,0.37249918871786114
524,29.734,29.62,-4.31,0.22580986567322753,0.7903286205928816,0.1632091175545616,0.6240376029686981,0.23527262960041018,0.37244381804201226
525,29.836,29.67,-4.5,0.22572518764400248,0.7915957495961068,0.163350919446485,0.6241360911691209,0.23504698005211314,0.37237840497906843
526,29.857,29.73,-4.39,0.22563473556679522,0.792862572142335,0.16348943792620715,0.6242183782855426,0.23480977633313868,0.3723031213475605
527,29.897,29.78,-4.32,0.22553851402095249,0.7941286740146821,0.16362442289866957,0.6242849929488558,0.2345611143075989,0.37221814219374116
528,29.96,29.84,-4.44,0.22543653143774686,0.7953936391321613,0.16375562629661405,0.6243364691051633,0.23430109628330598,0.3721236454387215
529,30.021,29.89,-4.51,0.22532879968806513,0.7966570499747448,0.16388280214030987,0.6243733449424798,0.2340298304518462,0.3720198115157655
530,30.083,29.95,-4.39,0.2252153336661801,0.797918488013541,0.16400570658995262,0.624396161823052,0.233747430325502,0.3719068229985391
531,30.125,30.0,-4.47,0.2250961508708266,0.799177534145234,0.16412409799117475,0.6244054632230117,0.23345401417228512,0.37178486422111606
532,30.186,30.06,-4.56,0.2249712709847905,0.8004337691299349,0.16423773691405824,0.624401793680969,0.23314970445031974,0.3716541208905501
533,30.247,30.11,-4.47,0.22484071545419196,0.8016867740315284,0.16434638618595013,0.6243856977570339,0.23283462724276974,0.3715147796928136
534,30.308,30.17,-4.46,0.224704507068633,0.8029361306594226,0.164449810918301,0.624357719003646,0.23250891169447394,0.371367027892875
535,30.349,30.22,-4.62,0.22456266954339743,0.8041814220103753,0.16454777852772273,0.6243183989494766,0.23217268945141187,0.37121105292968404
536,30.432,30.28,-4.59,0.22441522710490985,0.8054222327088535,0.1646400587514817,0.6242682760976,0.23182609410409064,0.3710470420068895
537,30.453,30.33,-4.52,0.22426220408065908,0.8066581494442964,0.16472642365771267,0.6242078849391085,0.23146926063590179,0.37087518168020805
538,30.576,30.39,-4.59,0.22410362449474502,0.807888761403762,0.16480664765075081,0.6241377549833342,0.23110232487745036,0.3706956574425192
539,30.596,30.44,-4.6,0.22393951167010062,0.8091136606987722,0.16488050747206714,0.6240584098058268,0.2307254229677844,0.3705086533079455
540,30.636,30.5,-4.45,0.22376988783830337,0.8103324427856388,0.16494778219734263,0.6239703661152121,0.23033869082340627,0.37031435139630686
541,30.696,30.55,-4.54,0.22359477375778153,0.8115447068789361,0.16500825323024587,0.6238741328399814,0.22994226361594128,0.37011293151934377
542,30.779,30.61,-4.6,0.22341418834114307,0.812750056358032,0.1650617042934822,0.623770210236181,0.22953627525936193,0.369904570769994
543,30.799,30.66,-4.52,0.22322814829231033,0.8139480991666723,0.1651079214176379,0.6236590890169359,0.22912085790772097,0.3696894431158126
544,30.861,30.72,-4.51,0.2230366677541246,0.8151384482055604,0.16514669292829243,0.6235412495047039,0.2286961414643866,0.36946771899742953
545,30.944,30.77,-4.66,0.2228397579670984,0.8163207217176731,0.16517780943183555,0.6234171608071132,0.22826225310379356,0.3692395649328234
546,30.964,30.83,-4.59,0.22263742693997832,0.8174945436659209,0.1652010638003939,0.6232872800172862,0.22781931680671222,0.3690051431281888
547,31.027,30.88,-4.54,0.22242967913273304,0.8186595441027501,0.16521625115625715,0.623152051439708,0.22736745291002095,0.3687646110962344
548,31.068,30.94,-4.63,0.22221651515251803,0.8198153595314336,0.16522316885623073,0.6230119058428345,0.22690677767192857,0.36851812128283945
549,31.129,30.99,-4.7,0.22199793146307126,0.8209616332590587,0.16522161647636754,0.622867259739767,0.22643740285355096,0.3682658207030529
550,31.17,31.05,-4.57,0.22177392010789074,0.8220980157414768,0.16521139579750607,0.6227185146984223,0.22595943531770332,0.3680078505873898
551,31.231,31.1,-4.7,0.2215444684474289,0.8232241649206543,0.165192310792005,0.6225660566826393,0.22547297664574104,0.3677443460392705
552,31.292,31.16,-4.8,0.22130955891044204,0.8243397465548955,0.16516416761203692,0.6224102554255408,0.2249781227732223,0.3674754357043396
553,31.354,31.21,-4.69,0.2210691687595685,0.8254444345422963,0.16512677457976666,0.6222514638363036,0.22447496364509242,0.3672012414523122
554,31.396,31.27,-4.65,0.22082326987119422,0.8265379112375274,0.16507994217971161,0.6220900174412829,0.22396358289099946,0.3669218780719619
555,31.456,31.32,-4.81,0.22057182852969312,0.8276198677617306,0.16502348305353734,0.6219262338602087,0.22344405752124863,0.3666374529798945
556,31.517,31.38,-4.77,0.22031480523611435,0.8286900043051135,0.16495721199747987,0.6217604123180116,0.22291645764382173,0.3663480659438099
557,31.578,31.43,-4.69,0.22005215453134602,0.8297480304218069,0.16488094596251365,0.6215928331927598,0.22238084620284032,0.3660538088209918
558,31.6,31.49,-4.8,0.2197838248337237,0.8307936653167312,0.16479450405734467,0.6214237576002053,0.2218372787388115,0.3657547653128313
559,31.661,31.54,-4.82,0.21950975829098085,0.8318266381245594,0.1646977075542507,0.6212534270155385,0.22128580317092975,0.3654510107362889
560,31.723,31.6,-4.67,0.21922989064636592,0.8328466881812674,0.16459037989773054,0.6210820629330868,0.2207264596016466,0.3651426118132636
561,31.804,31.65,-4.75,0.21894415111871782,0.8338535652890422,0.16447234671590177,0.6209098665646843,0.2201592801436761,0.36482962647879635
562,31.824,31.71,-4.86,0.2186524622962969,0.8348470299753765,0.16434343583456368,0.6207370185773023,0.21958428876956865,0.36451210370889153
563,31.885,31.76,-4.77,0.2183547400442345,0.8358268537470186,0.16420347729376902,0.6205636788703506,0.21900150118397252,0.3641900833685052
564,31.936,31.82,-4.77,0.21805089342556674,0.8367928193390971,0.16405230336665202,0.6203899863929253,0.21841092471869122,0.36386359608001173
565,32.034,31.87,-4.92,0.21774082463590091,0.8377447209594178,0.16388974858017216,0.6202160590011792,0.21781255825059284,0.36353266311231736
566,32.054,31.93,-4.85,0.2174244289517548,0.8386823645277913,0.16371564973736058,0.6200419933559904,0.2172063921423498,0.3631972962907847
567,32.116,31.98,-4.77,0.2171015946925275,0.8396055679103333,0.1635298459406029,0.6198678648611831,0.216592408205894,0.3628574979281851
568,32.177,32.04,-4.87,0.21677220319597276,0.8405141611488638,0.16333217861547664,0.6196937276426419,0.21597057968838926,0.362513260776989
569,32.239,32.09,-4.87,0.21643612880696422,0.8414079866857819,0.16312249153463823,0.6195196145687528,0.21534087128043727,0.36216456800338126
570,32.259,32.15,-4.73,0.2160932388792777,0.8422868995849867,0.1629006308412434,0.6193455373126499,0.21470323914618655,0.36181139318338756
571,32.32,32.2,-4.82,0.21574339379010854,0.8431507677495198,0.16266644507140438,0.6191714864566557,0.2140576309750022,0.36145370032139346
572,32.404,32.26,-4.92,0.21538644696707773,0.8439994721365229,0.16241978517524297,0.6189974316390889,0.2134039860543385,0.36109144389118925
573,32.445,32.31,-4.78,0.21502224492752875,0.8448329069699292,0.1621605045361693,0.6188233217433495,0.2127422353634587,0.3607245688994936
574,32.507,32.37,-4.78,0.21465062732999785,0.8456509799509938,0.16188845898816195,0.6186490851288746,0.21207230168762764,0.36035301097173655
575,32.569,32.42,-4.93,0.21427142703780078,0.8464536124664588,0.1616035068310157,0.6184746299032353,0.21139409975236859,0.359976696459778
576,32.61,32.48,-4.89,0.2138844701946845,0.8472407397939035,0.16130550884368103,0.6182998442344106,0.2107075363773307,0.3595955425711919
577,32.671,32.53,-4.79,0.2134895763124668,0.8480123113037685,0.1609943282959124,0.6181245967021897,0.21001251064927728,0.3592094575197141
578,32.773,32.59,-4.88,0.213086558370531,0.8487682906576526,0.16066983095849552,0.6179487366876726,0.20930891411365585,0.35881834069647106
579,32.794,32.64,-4.9,0.21267522292696217,0.8495086560027694,0.1603318851123107,0.6177720948000063,0.2085966309841388,0.35842208286167626
580,32.834,32.7,-4.73,0.2122553702410237,0.8502334001628135,0.1599803615563966,0.6175944833397278,0.20787553836948083,0.3580205663565258
581,32.895,32.75,-4.79,0.21182679440664262,0.8509425308257109,0.15961513361511165,0.6174156967982245,0.20714550651701513,0.35761366533498645
582,32.936,32.81,-4.87,0.2113892834965876,0.8516360707287166,0.15923607714451268,0.6172355123926878,0.20640639907212005,0.35720124601505143
583,32.998,32.86,-4.77,0.21094261971708458,0.8523140578411066,0.1588430705381646,0.6170536906356108,0.2056580733530202,0.3567831669488615
584,33.142,32.92,-4.73,0.2104865795726826,0.8529765455442818,0.15843599473273695,0.6168699759374638,0.20490038064032548,0.3563592793109201
585,33.162,32.97,-4.87,0.21002093404125763,0.8536236028086256,0.15801473321385398,0.6166840972408453,0.20413316648073251,0.35592942720354204
586,33.182,33.03,-4.82,0.20954544875906625,0.8542553143661208,0.15757917202269503,0.6164957686842808,0.2033562710043212,0.3554934479786744
587,33.202,33.08,-4.74,0.20905988421576754,0.8548717808776112,0.1571291997638495,0.6163046902938842,0.20256952925487576,0.35505117257526125
588,33.263,33.14,-4.88,0.20856399595931444,0.8554731190936553,0.156664707614978,0.61611054870111,0.20177277153264883,0.3546024258713549
589,33.325,33.19,-4.94,0.20805753481058537,0.8560594620080941,0.1561855893388883,0.6159130178848484,0.20096582374895736,0.3541470270502259
590,33.366,33.25,-4.81,0.20754024708759197,0.8566309590036104,0.1556917412986556,0.6157117599361329,0.20014850779195528,0.35368478997973934
591,33.448,33.3,-4.87,0.20701187483911815,0.8571877759885247,0.15518306247641225,0.6155064258437171,0.1993206419028675,0.35321552360427333
592,33.511,33.36,-4.94,0.20647215608770322,0.8577300955238503,0.15465945449640373,0.615296656298667,0.1984820410618835,0.3527390323484593
593,33.531,33.41,-4.83,0.2059208250819622,0.858258116939271,0.15412082165287166,0.6150820825159796,0.19763251738282966,0.3522551165320105
594,33.593,33.47,-4.78,0.20535761255832746,0.8587720564363308,0.15356707094332153,0.6148623270710893,0.1967718805156958,0.35176357279485254
595,33.634,33.52,-4.91,0.20478224601235037,0.8592721471768644,0.15299811210773745,0.6146370047490514,0.19589993805607087,0.35126419453177754
596,33.718,33.58,-4.81,0.20419444997968264,0.8597586393547056,0.15241385767427137,0.6144057234043128,0.19501649596054355,0.3507567723359411
597,33.76,33.63,-4.71,0.20359394632678904,0.8602318002488971,0.15181422301187864,0.6141680848292375,0.19412135896714697,0.3502410944506628
598,33.82,33.69,-4.81,0.20298045455136948,0.8606919142569208,0.15119912639034483,0.6139236856297788,0.1932143310199592,0.34971694722913693
599,33.862,33.74,-4.82,0.20235369209240586,0.8611392829067271,0.1505684890481146,0.613672118106866,0.19229521569701627,0.34918411560174845
600,33.922,33.8,-4.67,0.20171337464971195,0.8615742248465982,0.14992223526827042,0.6134129711422129,0.19136381664075275,0.3486423835506601
601,33.982,33.85,-4.78,0.2010592165128651,0.8619970758120106,0.14926029246295752,0.6131458310873005,0.19041993799024953,0.34809153459120945
602,34.024,33.91,-4.85,0.20039093089941218,0.8624081885687095,0.14858259126652873,0.6128702826541714,0.18946338481461725,0.3475313522595089
603,34.085,33.96,-4.76,0.19970823030225396,0.8628079328311353,0.14788906563766294,0.6125859098065026,0.1884939635468768,0.3469616206055048
604,34.147,34.02,-4.69,0.19901082684613908,0.8631966951551793,0.1471796529706867,0.612292296649258,0.18751148241771975,0.3463821246906697
605,34.249,34.07,-4.84,0.19829843265320954,0.863574878804097,0.14645429421629896,0.6119890283151467,0.18651575188852434,0.34579265108949
606,34.269,34.13,-4.73,0.19757076021749156,0.8639429035864483,0.14571293401183272,0.6116756918462013,0.1855065850829976,0.3451929883939627
607,34.311,34.18,-4.65,0.19682752278814478,0.8643012056651722,0.14495552082111135,0.611351877069018,0.18448379821683927,0.34458292772037735
608,34.371,34.24,-4.72,0.1960684347612032,0.8646502373372401,0.144182007083909,0.6110171774624489,0.18344721102486813,0.34396226321773926
609,34.433,34.29,-4.76,0.19529321207947947,0.8649904667836927,0.14339234937496897,0.6106711910167941,0.18239664718510418,0.34333079257725957
610,34.474,34.35,-4.61,0.19450157264024057,0.8653223777902069,0.14258650857247065,0.6103135210837531,0.18133193473937775,0.34268831754233564
611,34.516,34.4,-4.71,0.19369323671024147,0.8656464694385769,0.14176445003580476,0.6099437772165025,0.1802529065101111,0.34203464441833514
612,34.599,34.46,-4.8,0.19286792734770244,0.865963255769545,0.1409261437924963,0.609561575999232,0.17915940051298054,0.341369584581367
613,34.64,34.51,-4.7,0.1920253708308237,0.8662732654173444,0.14007156473406995,0.6091665418653902,0.17805126036520508,0.3406929549850874
614,34.701,34.57,-4.67,0.19116529709245997,0.8665770412161422,0.1392006928206096,0.6087583079038232,0.17692833568923574,0.340004578664512
615,34.762,34.62,-4.85,0.19028744016060406,0.8668751397783974,0.13831351329372352,0.6083365166519722,0.17579048251162052,0.3393042852358124
616,34.824,34.68,-4.79,0.18939153860434677,0.8671681310450085,0.13741001689754992,0.6079008208754768,0.17463756365680974,0.33859191139115974
617,34.884,34.73,-4.69,0.18847733598500246,0.8674565978071096,0.1364902001073504,0.6074508843338765,0.1734694491356603,0.3378673013877856
618,34.904,34.79,-4.77,0.1875445813121257,0.8677411351994055,0.1355540653651844,0.6069863825324574,0.17228601652838577,0.3371303075305645
619,34.967,34.84,-4.82,0.18659302950414322,0.8680223501651414,0.13460162132209336,0.6065070034606072,0.1710871513616677,0.3363807906475572
620,35.008,34.9,-4.67,0.18562244185329566,0.8683008608930738,0.13363288308615615,0.6060124483172533,0.16987274747965656,0.3356186205580236
621,35.068,34.95,-4.74,0.18463258649450529,0.8685772962270739,0.1326478724757072,0.6055024322240187,0.16864270740861875,0.33484367653239216
622,35.129,35.01,-4.86,0.1836232388776829,0.8688522950491466,0.1316466182769652,0.60497668492662,0.16739694271502795,0.3340558477436192
623,35.192,35.06,-4.78,0.18259418224288002,0.8691265056366899,0.1306291565052645,0.6044349514848883,0.16613537435693457,0.3332550337093135
624,35.231,35.12,-4.71,0.1815452080976482,0.8694005849947601,0.12959553066905732,0.6038769929516458,0.16485793302847518,0.33244114472398284
625,35.332,35.17,-4.83,0.1804761166959797,0.869675198164011,0.12854579203588334,0.6033025870405373,0.16356455949738322,0.3316141022808379
626,35.352,35.23,-4.82,0.17938671751822813,0.8699510175049957,0.1274799998995523,0.6027115287828793,0.16225520493535128,0.33077383948272543
627,35.394,35.28,-4.7,0.17827682975145154,0.8702287219596219,0.12639822184786143,0.6021036311736107,0.16092983124111213,0.32992030144187373
628,35.455,35.34,-4.82,0.17714628276964717,0.8705089962907111,0.1253005340302792,0.6014787258064541,0.1595884113561395,0.32905344566817923
629,35.515,35.39,-4.88,0.1759949166133316,0.8707925303008172,0.12418702142511223,0.6008366634983767,0.15823092957290058,0.3281732424457943
630,35.576,35.45,-4.75,0.17482258246786214,0.8710800180316944,0.12305777810571966,0.6001773149034002,0.15685738183561282,0.3272796751977562
631,35.659,35.5,-4.8,0.17362914313986616,0.871372156945902,0.12191290750536347,0.5995005711157023,0.1554677760334733,0.3263727408383439
632,35.719,35.56,-4.92,0.1724144735311527,0.8716696470919699,0.12075252268029353,0.5988063442618043,0.15406213228632915,0.32545245011279755
633,35.759,35.61,-4.85,0.17117846110952212,0.8719731902543598,0.11957674657063584,0.5980945680815483,0.152640483222747,0.3245188279239945
634,35.8,35.67,-4.83,0.16992100637595306,0.8722834890892203,0.11838571225863513,0.5973651984974917,0.15120287425043932,0.32357191364565924
635,35.861,35.72,-5.0,0.1686420233277217,0.872601246246719,0.11717956322383062,0.5966182141722276,0.14974936381898538,0.3226117614217461
636,35.922,35.78,-4.99,0.16734143991707323,0.8729271634806396,0.11595845359480267,0.595853617053025,0.14828002367474233,0.3216384404517915
637,35.963,35.83,-4.9,0.1660191985051115,0.87326194074596,0.11472254839716885,0.5950714329031461,0.1467949391077877,0.3206520352622319
638,36.066,35.89,-4.99,0.1646752563105967,0.8736062752852835,0.11347202379753683,0.5942717118192492,0.14529420919066888,0.31965264596388815
639,36.087,35.94,-5.06,0.16330958585332078,0.8739608607052263,0.11220706734307036,0.5934545287344507,0.14377794700865462,0.318640388495992
640,36.128,36.0,-4.92,0.16192217539166287,0.8743263860441177,0.11092787819621733,0.5926199839068106,0.14224627988112942,0.3176153948572101
641,36.169,36.05,-4.92,0.16051302935384146,0.8747035348325201,0.10963466736407118,0.5917682033930339,0.14069934957373778,0.3165778133240981
642,36.23,36.11,-5.0,0.1590821687623099,0.8750929841480526,0.1083276579218327,0.5908993395069877,0.13913731250086725,0.3155278086573467
643,36.291,36.16,-4.92,0.1576296316506896,0.8754954036658915,0.10700708522986252,0.5900135712623483,0.13756033991807495,0.31446556229603656
644,36.351,36.22,-4.86,0.1561554734726559,0.8759114547060955,0.10567319714384525,0.5891111047984362,0.13596861810410416,0.31339127253993027
645,36.434,36.27,-4.98,0.15465976750223587,0.8763417892787322,0.10432625421762522,0.5881921737880897,0.1343623485322101,0.31230515471965664
646,36.454,36.33,-4.99,0.15314260522501597,0.8767870491277306,0.10296652989830501,0.5872570398264004,0.13274174803057132,0.31120744135457373
647,36.515,36.38,-4.86,0.15160409671975783,0.8772478647745655,0.10159431071320156,0.5863059927992531,0.13110704893162167,0.31009838229808506
648,36.556,36.44,-4.94,0.15004437102988166,0.8777248545631166,0.10020989644826894,0.5853393512307805,0.12945849921016728,0.3089782448702019
649,36.618,36.49,-5.0,0.14846357652422343,0.8782186237073311,0.09881360031758757,0.5843574626089708,0.12779636261017616,0.3078473139771371
650,36.68,36.55,-4.86,0.14686188124640254,0.8787297633434966,0.09740574912348318,0.5833607036887475,0.1261209187601476,0.3067058922176431
651,36.722,36.6,-4.9,0.14523947325212755,0.8792588495888908,0.09598668340679424,0.5823494807718195,0.12443246327701792,0.30555429997568617
652,36.802,36.66,-5.04,0.1435965609338007,0.8798064426083098,0.0945567575867859,0.5813242299625236,0.12273130785860621,0.3043928754989471
653,36.844,36.71,-4.96,0.1419333733318615,0.8803730856895903,0.09311634009016696,0.5802854173988325,0.12101778036464447,0.3032219749625868
654,36.885,36.77,-4.91,0.14025016043241956,0.8809593043288239,0.09166581346864851,0.5792335394577331,0.11929222488647162,0.3020419725176874
655,36.947,36.82,-5.02,0.13854719345085126,0.8815656053256296,0.09020557450447515,0.5781691229342806,0.1175550018054768,0.30085326032381043
656,37.007,36.88,-5.02,0.13682476510109812,0.8821924758888425,0.08873603430333822,0.5770927251938632,0.11580648784036594,0.2996562485651837
657,37.07,36.93,-4.88,0.13508318985037693,0.8828403827532375,0.08725761837404909,0.5760049342975408,0.1140470760833303,0.2984513654500696
658,37.172,36.99,-5.0,0.1333228041589515,0.8835097713082528,0.08577076669434308,0.5749063691005789,0.11227717602522003,0.2972390571928515
659,37.191,37.04,-5.06,0.13154396670454868,0.8842010647399162,0.08427593376218666,0.5737976793244194,0.11049721356985169,0.29601978797831474
660,37.231,37.1,-4.99,0.12974705859096627,0.8849146631872704,0.08277358863194059,0.5726795456023325,0.10870763103762321,0.29479403990749475
661,37.294,37.15,-4.94,0.12793248354042924,0.8856509429145062,0.08126421493474323,0.5715526794988719,0.10690888715864832,0.29356231292435053
662,37.335,37.21,-5.07,0.1261006680693076,0.8864102554997628,0.07974831088252665,0.5704178235030447,0.10510145705563537,0.29232512472246247
663,37.419,37.26,-5.0,0.12425206164686135,0.8871929270412738,0.07822638925516924,0.5692757509949015,0.10328583221674247,0.2910830106309447
664,37.481,37.32,-4.95,0.12238713683671822,0.8879992573813655,0.0766989773704521,0.5681272661851502,0.10146252045867232,0.28983652347880523
665,37.501,37.37,-5.07,0.12050638942079366,0.8888295193487875,0.07516661703670197,0.5669732040274257,0.09963204588031173,0.2885862334371024
666,37.563,37.43,-5.11,0.11861033850533413,0.8896839580200427,0.07362986448816096,0.5658144301030585,0.09779494880726154,0.28733272783842073
667,37.604,37.48,-4.99,0.11669952660870851,0.8905627900005837,0.0720892903031797,0.564651840478422,0.09595178572763051,0.28607661097330067
668,37.666,37.54,-5.11,0.11477451973056792,0.8914662027268259,0.07054547930537097,0.5634863615349416,0.09410312921947486,0.28481850386325724
669,37.707,37.59,-5.2,0.11283590740201097,0.8923943537898307,0.06899903044790881,0.5623189497715708,0.09224956787025353,0.2835590440099486
670,37.771,37.65,-5.13,0.11088430271641991,0.8933473702813493,0.06745055668121455,0.5611505915791508,0.09039170618863886,0.2822988851199334
671,37.831,37.7,-5.18,0.10892034234066489,0.8943253481626873,0.06590068480433424,0.5599823029857117,0.08853016450899191,0.2810386968043463
672,37.911,37.76,-5.35,0.10694468650639063,0.8953283516567013,0.06435005530037065,0.5588151293715141,0.08666557888875098,0.2797791642528163
673,37.932,37.81,-5.27,0.10495801898105965,0.8963564126633143,0.06279932215638247,0.5576501451525381,0.08479860099889647,0.27852098788107893
674,37.994,37.87,-5.17,0.10296104701835947,0.8974095301992174,0.061249152668205145,0.556488453431167,0.08292989800756465,0.27726488295198926
675,38.055,37.92,-5.28,0.10095450128753272,0.8984876698627539,0.05970022723072165,0.5553311856129054,0.08106015245677335,0.2760115791699771
676,38.095,37.98,-5.34,0.09893913578113951,0.8995907633253425,0.058153239114129965,0.5541795009881525,0.0791900621321523,0.27476182024928114
677,38.157,38.03,-5.19,0.0969157277007442,0.9007187078510739,0.05660889422670981,0.553034586278311,0.07732033992555055,0.2735163634564244
678,38.219,38.09,-5.26,0.09488507732002463,0.9018713658462629,0.055067910864522264,0.5518976551456602,0.07545171369041674,0.272275979127373
679,38.281,38.14,-5.41,0.09284800782483477,0.9030485644406829,0.0535310194484209,0.5507699476664212,0.07358492608985964,0.27104145015975883
680,38.342,38.2,-5.28,0.09080536512979824,0.9042500951020078,0.05199896224868832,0.5496527297663363,0.07172073443729932,0.2698135714804587
681,38.404,38.25,-5.25,0.08875801767108386,0.9054757132846851,0.05047249309756588,0.5485472926179527,0.06985991052960916,0.26859314948870966
682,38.425,38.31,-5.37,0.08670685617508439,0.9067251381141547,0.0489523770899311,0.5474549519986291,0.06800324047263348,0.26738100147483773
683,38.486,38.36,-5.36,0.08465279340277998,0.907998052107065,0.04743939027238385,0.5463770476081258,0.0661515244989308,0.26617795501460717
684,38.546,38.42,-5.26,0.08259676386965266,0.9092941009279376,0.04593431932105911,0.5453149423444995,0.06430557677760429,0.26498484733913613
685,38.588,38.47,-5.39,0.08053972354111848,0.9106128931825738,0.04443796120857609,0.544270021536916,0.06246622521608435,0.26380252468028625
686,38.65,38.53,-5.44,0.07848264950350944,0.9119540002484314,0.04295112286058006,0.5432436921339636,0.06063431125372738,0.26263184159144237
687,38.711,38.58,-5.29,0.07642653961066531,0.9133169561422256,0.04147462080230197,0.5422373818461407,0.05881068964708407,0.26147366024360247
688,38.773,38.64,-5.28,0.07437241210621943,0.9147012574249537,0.04000928079546192,0.541252538241222,0.05699622824667685,0.26032884969669384
689,38.815,38.69,-5.43,0.07232130522168329,0.91610636314443,0.03855593746574301,0.5402906277911362,0.0551918077651099,0.2591982851460206
690,38.878,38.75,-5.32,0.07027427675047675,0.9175316948152866,0.037115433920960686,0.5393531348688352,0.05339832153635775,0.2580828471437099
691,38.919,38.8,-5.3,0.06823240359812924,0.9189766364362185,0.03568862136000512,0.5384415606934888,0.051616675266135385,0.256983420794948
692,39.003,38.86,-5.43,0.06619678130900578,0.9204405345440091,0.03427635867265652,0.5375574222222613,0.049847786773310164,0.25590089492876755
693,39.044,38.91,-5.4,0.06416852357007499,0.9219226983036486,0.03287951203040906,0.5367022509870285,0.048092585722340805,0.2548361612432307
694,39.085,38.97,-5.29,0.0621487616923882,0.9234223996337612,0.031498954468495786,0.5358775918746693,0.046352013346741716,0.25379011342506436
695,39.147,39.02,-5.41,0.06013864407108738,0.9249388733666505,0.030135565459432453,0.535085001849824,0.04462702216357245,0.2527636462441193
696,39.209,39.08,-5.5,0.05813933562485049,0.9264713174425093,0.02879023047856408,0.5343260486191946,0.04291857567895168,0.2517576546234015
697,39.251,39.13,-5.35,0.05615201721569103,0.9280188931376462,0.027463840562239408,0.5336023092366557,0.041227648084590646,0.2507730326857719
698,39.313,39.19,-5.34,0.05417788504999235,0.929580725326773,0.02615729185933744,0.5329153686486799,0.03955522394536078,0.24981067277871383
699,39.395,39.24,-5.49,0.052218150061604664,0.931155902779488,0.02487148517690203,0.5322668181799279,0.03790229787789064,0.2488714644788429
700,39.415,39.3,-5.44,0.05027403727775241,0.9327434784911826,0.02360732552061224,0.5316582539593225,0.036269874220197416,0.24795629357803337
701,39.498,39.35,-5.37,0.04834678516842794,0.9343424700487606,0.0223657216308049,0.5310912752874226,0.03465896669238766,0.247066041053132
702,39.539,39.41,-5.52,0.046437644979881364,0.9359518600317568,0.02114758551481222,0.5305674829463228,0.033070598048483626,0.24620158202131667
703,39.601,39.46,-5.57,0.04454788005274784,0.9375705964497281,0.01995383197640522,0.5300884774537081,0.03150579971943185,0.24536378468328734
704,39.682,39.52,-5.43,0.04267876512528105,0.9391975932171468,0.018785378143114054,0.5296558572631185,0.029965611447326092,0.244553509256606
705,39.744,39.57,-5.54,0.040831585622131926,0.9408317306672446,0.017643142992162537,0.5292712169128242,0.028451080910849767,0.24377160690157487
706,39.764,39.63,-5.64,0.0390076369291269,0.9424718561062371,0.01652804687570333,0.528936145125953,0.026963263341883852,0.24301891864205866
707,39.807,39.68,-5.53,0.03720822365456016,0.9441167844091588,0.015441011045931374,0.5286522228647774,0.02550322113318549,0.24229627428360795
708,39.869,39.74,-5.51,0.035434658877566486,0.9457652986582313,0.014382957180541356,0.528421021342319,0.02407202343701057,0.24160449133117728
709,39.909,39.79,-5.68,0.03368826338416288,0.9474161508244623,0.013354806908919518,0.5282440999945822,0.02267074575450778,0.24094437390870294
710,39.971,39.85,-5.64,0.03197036489149305,0.9490680624931215,0.012357481339417584,0.5281230044168064,0.02130046951567709,0.2403167116828248
711,40.033,39.9,-5.57,0.030282297260732744,0.9507197256338386,0.01139190058805538,0.5280592642671966,0.019962281649656903,0.23972227879306646
712,40.136,39.96,-5.66,0.02862539969905914,0.9523698034162147,0.01045898330900801,0.5280543911416485,0.018657274145073642,0.23916183279087616
713,40.157,40.01,-5.66,0.027001015951024457,0.9540169310720085,0.009559646227208153,0.5281098764230873,0.017386543600136008,0.23863611359007367
714,40.197,40.07,-5.51,0.02541049347962679,0.9556597168050193,0.00869480367332646,0.5282271891091515,0.016151190762117795,0.23814584243130998
715,40.238,40.12,-5.58,0.02385518263735643,0.9572967427496676,0.007865367121306659,0.528407773621954,0.014952320055876716,0.23769172086304818
716,40.301,40.18,-5.67,0.022336435827496642,0.9589265659788685,0.007072244728558096,0.5286530476035411,0.013791039101090087,0.2372744297413292
717,40.363,40.23,-5.57,0.020855606655994015,0.9605477195612575,0.006316340878825339,0.5289643997005321,0.012668458217944571,0.2368946282502768
718,40.403,40.29,-5.53,0.0194140490742753,0.9621587136671965,0.005598555727698906,0.5293431873413207,0.01158568992108378,0.23655295294501286
719,40.486,40.34,-5.67,0.018013116513490326,0.963758036722438,0.004919784750710334,0.529790734509157,0.010543848401651993,0.23625001681848792
720,40.527,40.4,-5.65,0.016654161010739413,0.9653441566079608,0.004280918293933278,0.5303083295145039,0.00954404899729952,0.23598640839367302
721,40.569,40.45,-5.54,0.015338532327901102,0.9669155219043798,0.0036828411270104964,0.5308972227702263,0.008587407650026765,0.2357626908425302
722,40.631,40.51,-5.65,0.014067577063677603,0.9684705631794723,0.003126431998564196,0.531558624573297,0.007675040351762897,0.2355794011331759
723,40.673,40.56,-5.71,0.012842637759407787,0.9700076943176811,0.002612563193977297,0.5322937028967619,0.006808062577566614,0.23543704920665953
724,40.754,40.62,-5.58,0.011665051999100985,0.971525313890769,0.002142100095503089,0.5331035811957219,0.00598758870633937,0.23533611718474712
725,40.795,40.67,-5.6,0.01053615150408993,0.9730218065688961,0.0017159007446137108,0.5339893362310139,0.00521473142894866,0.23527705861000614
726,40.857,40.73,-5.7,0.009457261222710034,0.9744955445712388,0.0013348154064387276,0.5349519959141221,0.004490601143656102,0.2352602977193922
727,40.898,40.78,-5.58,0.008429698415476057,0.9759448891549958,0.0009996861360962533,0.5359925371767094,0.0038163053387578923,0.23528622875244265
728,40.96,40.84,-5.51,0.007454771736348243,0.9773681921412865,0.0007113463467124777,0.5371118838680748,0.0031929479623859975,0.23535521529507455
729,41.02,40.89,-5.64,0.006533780310804993,0.9787637974761805,0.0004706203789492685,0.538310904683839,0.00262162877946133,0.23546758965989695
730,41.061,40.95,-5.65,0.005668012811503644,0.9801300428250915,0.00027832307186176776,0.5395904111292857,0.0021034427158589416,0.23562365230388702
731,41.123,41.0,-5.5,0.004858746532269433,0.9814652611990586,0.00013525933490161077,0.5409511555210127,0.0016394791899259323,0.23582367128421608
732,41.227,41.06,-5.61,0.004107246461052511,0.9827677826118981,4.222372090895359e-05,0.5423938290306342,0.0012308214315566795,0.23606788175295276
733,41.248,41.11,-5.69,0.0034147643523606713,0.9840359357675895,0.0,0.5439190597741711,0.0008785457890755499,0.23635648549130533
734,41.29,41.17,-5.55,0.0027825377995839853,0.9852680497774078,9.36073432067229e-06,0.5455274109505094,0.0005837210242034006,0.2366896504839358
735,41.352,41.22,-5.54,0.0022117893075723847,0.9864624559061488,7.106685372648519e-05,0.5472193790319209,0.0003474075954214511,0.23706751053369202
736,41.415,41.28,-5.67,0.001703725365804377,0.9876174893464476,0.0001858672325367496,0.5489953920092414,0.00017065693006922342,0.23749016491692387
737,41.478,41.33,-5.6,0.0012595355224688553,0.988731491019839,0.00035449826754762784,0.5508558076940046,5.4510685540737375e-05,0.23795767807938856
738,41.499,41.39,-5.55,0.000880391459787027,0.9898028094028698,0.0005776834574851172,0.5528009120796956,0.0,0.2384700793725851
739,41.582,41.44,-5.64,0.0005674460709571465,0.9908298023762582,0.000856132984050732,0.5548309177642975,8.144733080344938e-06,0.2390273628302467
740,41.624,41.5,-5.66,0.0003218325391530807,0.9918108390949255,0.0011905432946415094,0.5569459624364829,7.995269705646989e-05,0.23962948698467942
741,41.665,41.55,-5.51,0.0001446634190232506,0.9927443018766536,0.001581596686746289,0.5591461074280225,0.00021641887900433475,0.24027637472261554
742,41.728,41.61,-5.58,3.702972115419056e-05,0.9936285881070318,0.0020299608940202093,0.5614313363350163,0.00041852465449579554,0.24096791318021038
743,41.789,41.66,-5.67,0.0,0.9944621121582049,0.0025362886741069216,0.5638015537103046,0.0006872369934124661,0.24170395367673084
744,41.852,41.72,-5.58,3.461944583328002e-05,0.9952433073187391,0.003101217398348702,0.5662565838290672,0.001023507658523857,0.2424843116863467
745,41.893,41.77,-5.56,0.00014190898137906747,0.9959706277316571,0.0037253686435824718,0.5687961695292693,0.001428272397540629,0.24330876684726768
746,41.955,41.83,-5.69,0.0003228643638895302,0.9966425503374174,0.004409347786245634,0.5714199711283869,0.0019024501293861827,0.2441770630073621
747,42.017,41.88,-5.65,0.0005784552934785869,0.99725757681843,0.005153743598977892,0.5741275654178268,0.0024469421254487054,0.24508890830537755
748,42.058,41.94,-5.56,0.0009096245285549479,0.9978142355416474,0.00595912784984397,0.5769184447365651,0.0030626311865914746,0.24604397528692315
749,42.119,41.99,-5.67,0.001317287009171243,0.9983110834958496,0.00682605490425032,0.5797920161256681,0.00375038081670901,0.2470419010544627
750,42.161,42.05,-5.7,0.0018023289890449572,0.998746708220411,0.007755061329566145,0.5827476005654891,0.004511034393621214,0.24808228745068153
751,42.222,42.1,-5.53,0.0023656071769456344,0.9991197297225122,0.00874666550238345,0.5857844322974511,0.005345414338108273,0.24916470127464516
752,42.324,42.16,-5.64,0.003007947888120205,0.9994288023797583,0.009801367218299134,0.5889016582323352,0.00625432128191253,0.2502886745301338
753,42.364,42.21,-5.75,0.003730146206459747,0.9996726168249845,0.010919647304082836,0.5920983374468467,0.007238533235551609,0.25145370470543504
754,42.385,42.27,-5.62,0.004532965158153872,0.9998499018097746,0.012101967232080764,0.5953734407700417,0.008298804756817229,0.2526592550837475
755,42.447,42.32,-5.57,0.005417134897639236,0.9999594260429359,0.013348768736744352,0.598725850460965,0.009435866120860675,0.2539047550832576
756,42.508,42.38,-5.71,0.006383351906695652,1.0,0.014660473433245447,0.6021543599786193,0.010650422492763831,0.2551896006259752
757,42.55,42.43,-5.68,0.007432278207574584,0.9999704776997342,0.016037482438206577,0.6056576738452497,0.011943153103487788,0.2565131545345197
758,42.611,42.49,-5.56,0.008564540591078291,0.9998697584436875,0.017480175992591294,0.6092344076039555,0.013314710430114628,0.2578747469561627
759,42.714,42.54,-5.68,0.009780729860555568,0.9996967885148732,0.018988913086818177,0.612883087871733,0.014765719381330087,0.2592736758135276
760,42.734,42.6,-5.76,0.0110814000928053,0.9994505628318409,0.02056403108814664,0.6166021524891728,0.01629677648910823,0.2607092072814415
761,42.797,42.65,-5.61,0.012467067916912046,0.9991301265545399,0.022205845370350214,0.6203899507681147,0.01790844910756943,0.2621805762894613
762,42.858,42.71,-5.6,0.01393821181209515,0.9987345766384087,0.023914648945655953,0.6242447438385081,0.019601274619991393,0.26368698704957
763,42.899,42.76,-5.68,0.01549527142571905,0.9982630633330437,0.02569071209888426,0.6281647050955884,0.02137575965493252,0.2652276136085069
764,42.961,42.82,-5.59,0.01713864691266625,0.9977147916216843,0.027534282023671523,0.6321479207483534,0.02323237931243666,0.26680160042416246
765,43.062,42.87,-5.56,0.01886869829734055,0.997089022597639,0.029445582460657472,0.636192390470251,0.025171576401339733,0.26840806296540043
766,43.082,42.93,-5.69,0.020685744859616217,0.9963850747737883,0.031424813337575554,0.6402960281529395,0.027193760688761393,0.27004608833462307
767,43.123,42.98,-5.71,0.02259006454603842,0.9956023253215217,0.03347215041124053,0.6444566627640291,0.029299308162926835,0.27171473591240747
768,43.184,43.04,-5.57,0.02458189340752701,0.9947402112358356,0.03558774491144771,0.6486720393098427,0.03148856031048436,0.2734130380235941
769,43.225,43.09,-5.64,0.026661425064777925,0.9937982304236601,0.0377717231867908,0.6529398199042887,0.033761823409477316,0.2751400006242765
770,43.287,43.15,-5.72,0.028828810202504364,0.9927759427127157,0.040024186352379865,0.6572575849448827,0.036119367839082345,0.27689460400917154
771,43.328,43.2,-5.62,0.031084156093603835,0.9916729707783672,0.042345209939393495,0.6616228343967925,0.0385614274072178,0.2786758035387846
772,43.431,43.26,-5.6,0.03342752615427952,0.9904890009860716,0.044734843546376885,0.6660329891855375,0.041088198697116496,0.2804825303856284
773,43.451,43.31,-5.81,0.03585893953105787,0.9892237841472024,0.0471931104922119,0.6704853926986264,0.04369984043395771,0.28231369229859593
774,43.491,43.37,-5.73,0.038378370720533135,0.9878771361862863,0.0497200074707137,0.6749773123960809,0.046396472872620734,0.2841681743844935
775,43.552,43.42,-5.64,0.040985749222568535,0.9864489387179801,0.05231550420684012,0.6795059415295195,0.049178177207579304,0.28604483990574703
776,43.613,43.48,-5.73,0.0436809592276304,0.984939139532366,0.05497954311454748,0.6840684009692479,0.0520449950058888,0.28794253109344686
777,43.674,43.53,-5.71,0.046463839338871965,0.9833477529875219,0.05771203895636033,0.6886617411387448,0.05499692766412585,0.28986006997512326
778,43.715,43.59,-5.54,0.04933418232953115,0.9816748603087881,0.060512878504715956,0.6932829440559466,0.0580339358900928,0.2917962592167957
779,43.798,43.64,-5.6,0.05229173493618626,0.9799206097945145,0.06338192020517001,0.6979289254807152,0.06115593921009915,0.2937498829788285
780,43.819,43.7,-5.71,0.055336197688430934,0.9780852169282722,0.06631899384157965,0.7025965371676963,0.06436281550266408,0.29571970778498696
781,43.881,43.75,-5.6,0.05846722477555424,0.9761689643975314,0.06932390020340748,0.7072825692234689,0.06765440055955257,0.2977044834038655
782,43.942,43.81,-5.55,0.06168442395083057,0.9741722020187172,0.07239641075534135,0.711983752566437,0.0710304876750986,0.2997029437416193
783,43.984,43.86,-5.71,0.06498735647400287,0.9720953465684831,0.07553626730951486,0.7166967614873611,0.0744908272647823,0.3017138077447609
784,44.047,43.92,-5.63,0.0683755370924598,0.9699388815210848,0.07874318170071463,0.7214182163079437,0.07803512651400593,0.30373578031166987
785,44.151,43.97,-5.51,0.07184843406149606,0.9677033566919389,0.08201683546511147,0.7261446861345024,0.08166304905798405,0.3057675532113948
786,44.172,44.03,-5.62,0.07540546920393153,0.9653893877877329,0.08535687952324265,0.7308726917035135,0.08537421469363451,0.3078078060083374
787,44.193,44.08,-5.64,0.07904601800923654,0.9629976558638886,0.0887629338681291,0.7355987083157266,0.08916819912433332,0.30985520699154095
788,44.255,44.14,-5.5,0.08276940977217785,0.9605289066906992,0.09223458725948576,0.7403191688557373,0.09304453373839153,0.31190841410749504
789,44.316,44.19,-5.6,0.08657492777089963,0.9579839500299238,0.09577139692507178,0.7450304668940873,0.09700270542212006,0.31396607589557635
790,44.377,44.25,-5.68,0.09046180948429895,0.9553636588239215,0.0993728882703602,0.7497289598690594,0.10104215640833719,0.31602683242549096
791,44.419,44.3,-5.59,0.09442924684852609,0.952668968299537,0.10303855459790442,0.7544109723453026,0.10516228416113609,0.31808931623634545
792,44.521,44.36,-5.57,0.09847638655246459,0.949900874988899,0.10676785683800478,0.7590727993462684,0.10936244129768166,0.32015215327721486
793,44.542,44.41,-5.73,0.10260233037204929,0.9470604356692451,0.1105602232924858,0.7637107097573029,0.11364193554771866,0.3222139638492879
794,44.603,44.47,-5.72,0.10680613554322008,0.9441487662239294,0.11441504939350834,0.7683209497961729,0.11800002975136585,0.3242733635498221
795,44.644,44.52,-5.6,0.11108681517321842,0.9411670404269677,0.11833169747936514,0.7728997465478029,0.12243594189567254,0.3263289642182087
796,44.705,44.58,-5.71,0.11544333868985251,0.9381164886536626,0.12230949658919962,0.7774433115599566,0.126948845190282,0.3283793748844861
797,44.745,44.63,-5.78,0.1198746323282803,0.9349983965200317,0.12634774227852894,0.7819478444965028,0.1315378681823982,0.33042320272069503
798,44.807,44.69,-5.59,0.12437957965476751,0.9318141034539106,0.1304456964573369,0.7864095368448089,0.13620209491111188,0.3324590539954843
799,44.889,44.74,-5.61,0.12895702212679436,0.928565001200679,0.13460258725237717,0.7908245756736431,0.14094056510102657,0.3344855350323493
800,44.909,44.8,-5.71,0.1336057596887953,0.9252525322665375,0.1388176088951917,0.7951891474377506,0.14575227439501343,0.3365012531718198
801,44.993,44.85,-5.56,0.13832455140273756,0.9218781883021918,0.14308992163721324,0.7994994418250884,0.15063617462584364,0.3385048177378175
802,45.034,44.91,-5.49,0.14311211611269303,0.9184435084297015,0.14741865169320267,0.8037516556425782,0.15559117412640983,0.34049484100825994
803,45.097,44.96,-5.61,0.14796713314251575,0.9149500775151649,0.15180289121417867,0.8079419967361593,0.16061613807821315,0.34246993918985796
804,45.158,45.02,-5.57,0.15288824302568763,0.9113995243899647,0.1562416982908767,0.8120666879409777,0.16570988889776953,0.34442873339694563
805,45.261,45.07,-5.43,0.15787404826632082,0.9077935200234653,0.16073409698864383,0.8161219710576658,0.17087120666057404,0.3463698506340691
806,45.303,45.13,-5.53,0.1629231141302114,0.9041337756503398,0.16527907741457373,0.8201041108506674,0.17609882956224449,0.34829192478194976
807,45.324,45.18,-5.56,0.16803396946469645,0.900422040856034,0.16987559581761974,0.8240093990643749,0.18139145441641327,0.35019359758633906
808,45.365,45.24,-5.37,0.17320510754592636,0.8966601016241798,0.17452257472234703,0.8278341584525202,0.18674773718888527,0.352073519649172
809,45.427,45.29,-5.34,0.17843498695209992,0.8928497783498552,0.17921890309691252,0.8315747468158793,0.1921662935675362,0.3539303514213096
810,45.509,45.35,-5.44,0.18372203246125943,0.888992923822392,0.1839634365557828,0.8352275610430209,0.1976456995673761,0.3557627641960892
811,45.529,45.4,-5.33,0.18906463597235373,0.8850914211811334,0.18875499759762474,0.8387890411486641,0.20318449217019524,0.35756944110287475
812,45.612,45.46,-5.31,0.1944611574483992,0.8811471818472649,0.19359237587876846,0.8422556743041264,0.20878116999822596,0.35934907809980626
813,45.632,45.51,-5.41,0.19990992588065118,0.8771621434347211,0.198474328522701,0.8456239988542444,0.21443419402127067,0.36110038496501967
814,45.694,45.57,-5.38,0.20540924027268373,0.8731382676432784,0.2033995804660887,0.8488906083150952,0.22014198829670276,0.36282208628572726
815,45.756,45.62,-5.22,0.2109573706432237,0.8690775381371962,0.2083668248418033,0.8520521553468263,0.22590294074168416,0.36451292244466355
816,45.796,45.68,-5.26,0.21655255904655105,0.864981958412936,0.21337472339935007,0.8551053556958494,0.23171540393684814,0.3661716506034572
817,45.859,45.73,-5.31,0.22219302060929155,0.8608535496595152,0.21842190696299166,0.8580469921004468,0.23757769596061076,0.3677970456824445
818,45.901,45.79,-5.12,0.22787694458245752,0.8566943486149523,0.22350697592773874,0.8608739181535862,0.24348810125322554,0.3693879013362682
819,46.004,45.84,-5.06,0.233602495407644,0.8525064054220496,0.22862850079326028,0.8635830621164088,0.24944487150969266,0.370943030924344
820,46.025,45.9,-5.18,0.23936781379632135,0.8482917814865745,0.2337850227356442,0.8661714306755471,0.25544622660063965,0.3724612684750405
821,46.066,45.95,-5.1,0.24517101782114747,0.8440525473408244,0.2389750542167844,0.8686361126372708,0.26149035552031263,0.37394146964221936
822,46.127,46.01,-4.98,0.25101020401816665,0.8397907805156826,0.24419707963101125,0.8709742825514332,0.2675754173608544,0.37538251265263334
823,46.19,46.06,-5.07,0.2568834484986954,0.8355085634244893,0.24944955598846075,0.873183204258226,0.273699542312059,0.37678329924259457
824,46.231,46.12,-5.06,0.2627888080696499,0.8312079812623214,0.254730913634567,0.8752602343508366,0.2798608326857679,0.3781427555823266
825,46.293,46.17,-4.89,0.2687243213610778,0.8268911199244997,0.2600395570049346,0.877202825547244,0.2860573639640404,0.3794598331863836
826,46.356,46.23,-4.94,0.27468800995972076,0.8225600639481827,0.2653738654147544,0.8790085299644074,0.29228718587020686,0.380733509808412
827,46.418,46.28,-5.0,0.2806778795474841,0.8182168944808254,0.27073219388185266,0.8806750022879033,0.29854832346187893,0.38196279031834185
828,46.481,46.34,-4.89,0.28669192104368,0.8138636872791536,0.2761128739824021,0.8822000028298119,0.30483877824497635,0.3831467075598563
829,46.542,46.39,-4.82,0.29272811174987773,0.809502510742118,0.2815142147382605,0.8835814004674174,0.31115652930780724,0.3842843231857284
830,46.562,46.45,-4.95,0.29878441649617865,0.8051354239810488,0.28693450353480354,0.8848171754552431,0.31749953447420576,0.38537472846844567
831,46.623,46.5,-4.83,0.30485878878773814,0.8007644749300288,0.2923720070679479,0.8859054221031012,0.32386573147466735,0.38641704508344815
832,46.684,46.56,-4.7,0.3109491719503698,0.7963916984993675,0.29782497231888344,0.8868443513129958,0.3302530391343744,0.3874104258622035
833,46.724,46.61,-4.75,0.3170535002741088,0.792019114774925,0.3032916275549469,0.8876322929676385,0.3366593585769512,0.38835405551215413
834,46.806,46.67,-4.76,0.32316970015365004,0.7876487272658942,0.3087701833550058,0.8882676981630631,0.34308257444275425,0.3892471513002966
835,46.846,46.72,-4.57,0.32929569122463775,0.7832825212034389,0.31425883365767143,0.8887491412774671,0.34952055612050814,0.39008896369682444
836,46.909,46.78,-4.6,0.33542938749487905,0.7789224618922858,0.319755756830641,0.8890753218681291,0.3559711589911167,0.3908787769750272
837,46.972,46.83,-4.69,0.3415686984696706,0.7745704931169916,0.32525911675946056,0.8892450663882127,0.36243222568250455,0.3916159097635987
838,47.012,46.89,-4.53,0.34771153027053026,0.7702285356041935,0.3307670639539675,0.8892573297156025,0.3689015873343622,0.3922997155476337
839,47.094,46.94,-4.45,0.3538557867467569,0.7658984855416794,0.3362777366706692,0.8891111964864717,0.3753770648716778,0.39292958311481996
840,47.115,47.0,-4.6,0.3599993705793704,0.7615822131546058,0.3417892620493632,0.8888058822269344,0.3818564702859256,0.39350493694364946
841,47.176,47.05,-4.49,0.3661401843771069,0.7572815613387917,0.3472997572623356,0.8883407342770338,0.38833760792275585,0.39402523753087043
842,47.237,47.11,-4.33,0.37227613176422847,0.7529983443507494,0.3528073306744489,0.8877152325026422,0.394818275775012,0.394489981655842
843,47.278,47.16,-4.43,0.37840511845994784,0.7487343465540172,0.3583100830123698,0.886928989792392,0.40129626677988145,0.3948987025799349
844,47.34,47.22,-4.45,0.38452505334920417,0.7444913212214466,0.36380610854107176,0.8859817523383106,0.407769370118958,0.39525097017959077
845,47.4,47.27,-4.27,0.3906338495444115,0.7402709893932747,0.36929349624563873,0.8848733997001835,0.4142353725199839,0.3955463910120075
846,47.462,47.33,-4.28,0.39672942543768897,0.7360750387908863,0.3747703310163469,0.8836039446546966,0.4206920595590365,0.39578460831264917
847,47.525,47.38,-4.37,0.4028097057430288,0.7319051227860606,0.38023469483504574,0.8821735328311412,0.42713721696190077,0.3959653019239839
848,47.608,47.44,-4.22,0.408872622527848,0.7277628594252312,0.3856846679609325,0.8805824421360661,0.4335686319033414,0.39608818815509234
849,47.628,47.49,-4.12,0.41491611623342534,0.7236498305078594,0.39111833011396185,0.8788310819697639,0.43998409430298224,0.39615301957209487
850,47.669,47.55,-4.22,0.4209381366838394,0.7195675807175201,0.39653376165435567,0.876919992237931,0.4463813981164845,0.3961595847197869
851,47.73,47.6,-4.13,0.42693664408313375,0.7155176168038822,0.40192904475684965,0.8748498421624784,0.45275834262070086,0.39610770777543935
852,47.874,47.66,-3.96,0.4329096100005122,0.7115014068135761,0.4073022645784122,0.8726214288964124,0.4591127336914937,0.3959972481363359
853,47.895,47.71,-4.05,0.43885501834339696,0.7075203793679978,0.4126515104182172,0.8702356759487793,0.46544238507292596,0.3958280999432125
854,47.916,47.77,-4.06,0.4447708663181571,0.703575922986326,0.41797487686862816,0.8676936314268168,0.47174511963655613,0.3956001915423303
855,47.937,47.82,-3.87,0.4506551653782468,0.6996693854523026,0.4232704649558791,0.8649964661035489,0.4780187706296036,0.3953134848893689
856,47.998,47.88,-3.85,0.4565059421594304,0.695802073223463,0.4285363832691214,0.8621454713198877,0.48426118291078846,0.3949679748986846
857,48.059,47.93,-3.98,0.4623212394017109,0.6919752508815044,0.4337707490765611,0.8591420567308452,0.4904702141726656,0.3945636887417873
858,48.141,47.99,-3.78,0.4680991168575233,0.6881901406224207,0.43897168942747655,0.8559877479058744,0.49664373614929,0.3941006850991819
859,48.203,48.04,-3.67,0.4738376521857367,0.6844479217849659,0.4441373422389949,0.8526841837936643,0.5027796358080793,0.39357905336998844
860,48.223,48.1,-3.78,0.47953494183101186,0.6807497304159863,0.44926585736665553,0.8492331140618279,0.5088758165247566,0.39299891284401883
861,48.264,48.15,-3.71,0.48518910188811026,0.6770966588712172,0.45435539765796834,0.8456363963218436,0.5149301992402867,0.39236041184121273
862,48.328,48.21,-3.51,0.490798268950824,0.6734897554502112,0.45940413998837093,0.8418959932494612,0.5209407235987784,0.3916637268234466
863,48.39,48.26,-3.57,0.496360600945296,0.6699300240641617,0.4644102762791955,0.8380139696105239,0.5269053490653929,0.390909061483768
864,48.453,48.32,-3.6,0.5018742779475558,0.6664184239355366,0.46937201449740446,0.8339924892018872,0.5328220560233606,0.39009664581807296
865,48.515,48.37,-3.49,0.5073375029850908,0.662955869328648,0.4742875796368983,0.8298338117168919,0.5386888468492762,0.38922673518412326
866,48.557,48.43,-3.44,0.5127485028222657,0.659543229310373,0.47915521468119626,0.8255402895445703,0.5445037469659144,0.3882996093525948
867,48.618,48.48,-3.52,0.5181055287294171,0.6561813275401768,0.48397318154728236,0.8211143645114125,0.5502648058718443,0.38731557155465013
