,Time_Host,Time_Arduino,easingdata,CH1_Oxy,CH1_Deoxy,CH2_Oxy,CH2_Deoxy,CH3_Oxy,CH3_Deoxy
0,0.012,45.75,8.52,0.0,0.8731664032667119,0.46040873363851,0.0,1.0,0.3492123271694949
1,1.388,0.04,0.0,0.004632222416269741,0.875275762467317,0.45180975952431424,0.016940416030115205,0.9843458538555013,0.34326773794475374
2,1.408,0.1,0.0,0.009277031485846248,0.8773911583410428,0.4432232065541245,0.033873037930609605,0.9686909472950462,0.3373198758594476
3,1.428,0.16,0.0,0.013932751759339917,0.8795117873711995,0.434652522148584,0.050790924319238526,0.9530415680955951,0.3313712028595371
4,1.449,0.21,0.0,0.018597704684670233,0.8816368398025364,0.4261011381660502,0.06768714863422592,0.9374039956925794,0.32542418108929544
5,1.469,0.27,0.0,0.023270210320818822,0.8837655002294383,0.41757246760293376,0.08455480601206722,0.921784495029765,0.3194812703745944
6,1.489,0.32,0.0,0.027948589048369117,0.8858969481853007,0.40906990132881005,0.1013870201212494,0.9061893104446214,0.3135449257076247
7,1.509,1.07,0.0,0.032631163273106244,0.8880303587321735,0.40059680486237154,0.11817694993788008,0.8906246596015408,0.3076175947380301
8,1.53,1.13,0.0,0.03731625911910568,0.8901649030498346,0.3921565151939628,0.13491779644992447,0.875096727484633,0.30170171527527007
9,1.572,1.18,0.0,0.042002208107889835,0.8922997490235217,0.3837523376601216,0.15160280927744,0.859611660461188,0.2957997128068782
10,1.632,1.24,0.0,0.046687348820378456,0.8944340618296134,0.3753875428752373,0.16822529319687782,0.8441755604263094,0.28991399803712836
11,1.694,1.29,-0.08,0.0513700285385002,0.8965670045186175,0.3670653637251335,0.18477861455817932,0.8287944790386256,0.2840469644504849
12,1.735,1.35,-0.07,0.05604860486347241,0.8986977385948816,0.3587889924270862,0.20125620758403914,0.8134744120564047,0.27820098590409265
13,1.796,1.4,-0.01,0.060721447307892105,0.9008254245925014,0.35056157766048773,0.2176515805413441,0.7982212937828299,0.2723784142534938
14,1.856,1.46,-0.05,0.06538693885891513,0.9029492226469653,0.34238622177205774,0.23395832177543982,0.7830409916286186,0.26658157701573465
15,1.917,1.51,-0.05,0.07004347750993443,0.9050682930621695,0.3342659780591795,0.2501701055985479,0.7679393007996111,0.26081277507397355
16,1.958,1.57,0.03,0.0746894777583077,0.9071817968725308,0.3262038481346344,0.2662806980243086,0.7529219391164261,0.2550742804275424
17,2.04,1.62,0.01,0.07932337206683304,0.9092888963999997,0.3182027793757319,0.28228396234101083,0.737994541972779,0.24936833399115255
18,2.061,1.68,-0.05,0.08394361228682909,0.9113887558058137,0.31026566246058396,0.2981738645165701,0.7231626574385862,0.24369714344662283
19,2.122,1.73,-0.01,0.08854867104083772,0.9134805416368158,0.30239532899404215,0.3139444784287609,0.7084317415135221,0.23806288115017865
20,2.164,1.79,-0.01,0.09313704306313489,0.9155634233661447,0.294594549225604,0.3295899909146431,0.6938071535362498,0.23246768209808355
21,2.226,1.84,-0.09,0.09770724649640054,0.9176365739280776,0.2868660298613985,0.3451047066335627,0.6792941517541079,0.22691364195318378
22,2.287,1.9,-0.11,0.10225782414305157,0.9196991702468233,0.27921241197215857,0.36048305273860354,0.6648978890575883,0.22140281513486648
23,2.329,1.95,-0.09,0.10678734466987984,0.9217503937591097,0.27163626899887733,0.37571958335189926,0.6506234088835093,0.21593721297486698
24,2.413,2.01,-0.18,0.11129440376476529,0.9237894309304593,0.26414010485761763,0.39080898383977275,0.6364756412903515,0.21051880194127812
25,2.433,2.06,-0.21,0.11577762524434838,0.9258154737650893,0.2567263521446963,0.40574607488426684,0.6224593992087936,0.20514950193299483
26,2.496,2.12,-0.14,0.12023566211165107,0.9278277203093855,0.24939737044319996,0.42052581634823905,0.6085793748700572,0.19983118464664
27,2.559,2.17,-0.14,0.1246671975627364,0.9298253751489,0.2421554447315399,0.43514331093173503,0.5948401364142485,0.19456567201776212
28,2.601,2.23,-0.19,0.12907094594158888,0.9318076498988158,0.2350027838945389,0.4495938076178081,0.5812461246804883,0.18935473473782463
29,2.663,2.28,-0.15,0.1334456536424818,0.933773763687837,0.22794151933733875,0.46387270490637206,0.5678016501802474,0.18420009084824962
30,2.726,2.34,-0.11,0.13779009995919483,0.9357229436354598,0.22097370370223074,0.4779755538350958,0.5545108902549699,0.17910340441257985
31,2.788,2.39,-0.19,0.14210309788058972,0.93765442532252,0.21410130968834784,0.49189806078677173,0.5413778864187511,0.17406628426771584
32,2.85,2.45,-0.18,0.14638349483226476,0.9395674532547289,0.20732622897401254,0.5056360900830124,0.52840654188653,0.16909028285516356
33,2.89,2.5,-0.12,0.15063017336425605,0.9414612813186785,0.20065027124139984,0.51918566636453,0.5156006192879655,0.16417689513320255
34,2.973,2.56,-0.17,0.15484205178496546,0.9433351732296272,0.19407516330306146,0.5325429767585879,0.5029637385668826,0.1593275575708322
35,2.993,2.61,-0.24,0.15901808474163456,0.9451884029703275,0.18760254832974088,0.5457043728344902,0.4904993750658978,0.15454364722427058
36,3.056,2.67,-0.21,0.16315726374775963,0.9470202552201828,0.18123398517878214,0.558666372348235,0.47821085779556594,0.1498264808966362
37,3.159,2.72,-0.25,0.16725861765790143,0.9488300257740853,0.17497094782230685,0.5714256607777013,0.46610136788713435,0.14517731438126458
38,3.18,2.78,-0.29,0.17132121309039414,0.9506170219503292,0.16881482487421265,0.5839790926500027,0.45417393722772614,0.1405973417889753
39,3.222,2.83,-0.26,0.17534415479850377,0.9523805629870595,0.162766919214918,0.5963236926629115,0.44243144727651484,0.13608769495953932
40,3.263,2.89,-0.16,0.17932658599063084,0.9541199804267766,0.15682844771265014,0.6084566566025803,0.43087662806019705,0.13164944295756142
41,3.325,2.94,-0.21,0.18326768860019454,0.955834618488482,0.1510005410399521,0.6203753520600829,0.41951205734583924,0.12728359165293632
42,3.385,3.0,-0.21,0.18716668350587723,0.9575238344271406,0.14528424358397882,0.6320773189495754,0.40834015998897294,0.12299108338589235
43,3.447,3.05,-0.16,0.19102283070295345,0.9591869988802143,0.1396805134490699,0.6435602698311008,0.3973632074546523,0.11877279671632185
44,3.527,3.11,-0.21,0.19483542942648086,0.9608234962011064,0.13419022255002613,0.6548220900412279,0.38658331750904773,0.11462954625666748
45,3.547,3.16,-0.26,0.19860381822717782,0.9624327247794123,0.12881415679445707,0.6658608376348455,0.37600245407901267,0.11056208258723871
46,3.609,3.22,-0.23,0.2023273750008614,0.964014097347911,0.1235530163524854,0.6766747431415538,0.3656224272769185,0.10657109225255319
47,3.651,3.27,-0.24,0.20600551697236935,0.9655670412762313,0.11840741601201263,0.6872622091402166,0.3554448935879079,0.10265719783714423
48,3.713,3.33,-0.31,0.20963770063494813,0.967090998851115,0.1133778856176824,0.6976218096553445,0.34547135621657016,0.09882095811925162
49,3.776,3.38,-0.32,0.21322342164613886,0.9685854275431861,0.10846487059163076,0.7077522893790978,0.3357031655898973,0.09506286830087075
50,3.817,3.44,-0.33,0.21676221468123327,0.9700498002601573,0.10366873253407585,0.7176525627228459,0.3261415200132376,0.09138336031268862
51,3.878,3.49,-0.4,0.22025365324539628,0.9714836055864433,0.09898974990177038,0.7273217127023556,0.3167874664758274,0.08778280319243685
52,3.96,3.55,-0.4,0.2236973494455674,0.9728863480092038,0.09442811876229165,0.7367589896608283,0.3076419016023418,0.08426150353513437
53,3.98,3.6,-0.34,0.22709295372325533,0.9742575481309064,0.08998395362206665,0.7459638098341445,0.29870557274676846,0.08081970601357531
54,4.044,3.66,-0.35,0.23044015454934064,0.9755967428685406,0.08565728832594359,0.7549357537627778,0.28997907922478355,0.07745759396726182
55,4.126,3.71,-0.4,0.23373867808200605,0.9769034856396497,0.08144807702604169,0.7636745645549321,0.28146287368070333,0.07417529005782059
56,4.147,3.77,-0.36,0.23698828778892878,0.9781773465353488,0.07735619521754854,0.7721801460055192,0.2731572635850078,0.07097285698877545
57,4.21,3.82,-0.35,0.24018878403491423,0.9794179124804586,0.07338144083909916,0.7804525605756736,0.2650624128583768,0.06785029828739336
58,4.272,3.88,-0.43,0.24334000363621944,0.9806247873808236,0.06952353543535698,0.7884920272375677,0.2571783436181334,0.06480755914623293
59,4.334,3.93,-0.45,0.24644181938289184,0.9817975922578167,0.06578212537940564,0.7962989191893901,0.24950493804294419,0.061844527322013225
60,4.375,3.99,-0.43,0.24949413953051436,0.9829359653699952,0.06215678315254785,0.8038737614454634,0.242041940351579,0.058961034089457125
61,4.416,4.04,-0.5,0.25249690726279467,0.9840395623218366,0.05864700867910536,0.8112172283065585,0.23478895889148632,0.05615685524784284
62,4.498,4.1,-0.54,0.2554501001264556,0.9851080561594849,0.05525223071380978,0.8183301407155035,0.2277454683328785,0.05343171217810361
63,4.54,4.15,-0.51,0.25835372943987966,0.9861411374534352,0.05197180827935654,0.8252134635031952,0.22091081196396217,0.05078527294837476
64,4.621,4.21,-0.53,0.2612078396769531,0.9871385143680825,0.04880503215167213,0.831868302530115,0.21428420408289314,0.048217153465856415
65,4.642,4.26,-0.6,0.2640125078275379,0.9880999127180202,0.04575112639042088,0.8382959017284132,0.20786473248198453,0.04572691867277699
66,4.704,4.32,-0.55,0.26676784273597515,0.9890250760109707,0.04280924991225349,0.84449764004962,0.2016513610196548,0.04331408378414839
67,4.767,4.37,-0.51,0.2694739844189755,0.9899137654772328,0.03997849810428802,0.8504750283230578,0.19564293227557444,0.040978115564944094
68,4.828,4.43,-0.56,0.2721311033642099,0.9907657600855893,0.037257904475324524,0.8562297060300551,0.18983817028445119,0.0387184336443582
69,4.869,4.48,-0.56,0.2747393998108728,0.9915808565456833,0.0346464423423144,0.8617634379991023,0.18423568334389603,0.03653441186489372
70,4.931,4.54,-0.5,0.2772991030134712,0.9923588692969454,0.0321430265496273,0.867078111027114,0.17883396689182893,0.03442537966409415
71,4.992,4.59,-0.53,0.27981047049009833,0.9930996304841914,0.029746515218682084,0.8721757304319753,0.17363140644891759,0.03239062348673526
72,5.054,4.65,-0.55,0.28227378725645763,0.9938029899200272,0.027455711525520475,0.8770584165415398,0.1686262806215787,0.03042938822525248
73,5.095,4.7,-0.51,0.2846893650469073,0.994468815034194,0.025269365503902522,0.8817284011242338,0.1638167641611152,0.0285408786860891
74,5.156,4.76,-0.53,0.28705754152379465,0.9950969908099699,0.023186175871511748,0.8861880237663835,0.1592009310746125,0.026724261079528546
75,5.237,4.81,-0.62,0.28937867947635576,0.9956874197077092,0.02120479187688344,0.8904397282013176,0.15477675778326438,0.024978664530477233
76,5.258,4.87,-0.61,0.2916531660104601,0.9962400215755717,0.01932381516470542,0.894486058595245,0.15054212632384542,0.02330318260762821
77,5.299,4.92,-0.6,0.29388141173048477,0.9967547335474704,0.017541801657191,0.8983296557948692,0.14649482758908502,0.021696874868459087
78,5.361,4.98,-0.65,0.29606384991459933,0.9972315099282794,0.015857263449291184,0.9019732535416493,0.14263256460272714,0.020158768417589554
79,5.403,5.03,-0.64,0.29820093568472045,0.9976703220663533,0.014268670715577587,0.9054196746575611,0.1389529558250849,0.018687859476090342
80,5.463,5.09,-0.57,0.3002931451723519,0.9980711582134565,0.012774453626675066,0.9086718272071531,0.13545353848492836,0.017283114959334146
81,5.525,5.14,-0.6,0.30234097468147014,0.9984340233722353,0.011373004273158542,0.9117327006406105,0.13213177193358833,0.015943474060924275
82,5.606,5.2,-0.64,0.3043449398495536,0.9987589391313989,0.010062678594851536,0.9146053619224503,0.12898504101721756,0.014667849840191805
83,5.626,5.25,-0.58,0.30630557480779597,0.999045943488813,0.008841798313483211,0.9172929516503746,0.12601065946322637,0.013455130810734345
84,5.728,5.31,-0.57,0.3082234313415113,0.9992950906627324,0.007708652866693771,0.9197986801687102,0.12320587327699552,0.012304182527495967
85,5.749,5.36,-0.63,0.3100990780517164,0.9995064508914141,0.006661501341426927,0.9221258236807746,0.12056786414505459,0.011213849169994359
86,5.83,5.42,-0.61,0.311933099518862,0.99968011022138,0.005698574404792136,0.9242777203644534,0.1180937528410004,0.010182955119476682
87,5.85,5.47,-0.59,0.31372609546967195,0.9998161702846301,0.004818076230515639,0.9262577664952676,0.11578060263051956,0.009210306527979502
88,5.911,5.53,-0.65,0.3154786799480403,0.9999147480651248,0.004018186419135183,0.9280694125811858,0.11362542267196626,0.008294692877459847
89,5.972,5.58,-0.68,0.3171914804909337,0.9999759756548793,0.00329706191012177,0.9297161595133991,0.11162517140903057,0.007434888527319132
90,6.033,5.64,-0.65,0.3188651373102336,1.0,0.0026528388841333874,0.9312015547372062,0.10977675995211224,0.006629654248702195
91,6.095,5.69,-0.67,0.3205003024814354,0.9999869826369774,0.0020836346536324225,0.9325291884470319,0.10807705544509279,0.005877738743923816
92,6.136,5.75,-0.73,0.32209763914010386,0.9999370994195087,0.001587549540129884,0.9337026898094413,0.10652288441426831,0.005177880149313417
93,6.177,5.8,-0.66,0.3236578206869394,0.9998505402360859,0.0011626687363506065,0.9347257232178416,0.1051110360962749,0.004528807519708225
94,6.238,5.86,-0.63,0.3251815300022675,0.9997275087185756,0.0008070641516579257,0.9356019845824045,0.1038382657419125,0.003929242292807657
95,6.299,5.91,-0.68,0.3266694586707056,0.999568221942028,0.0005187962391403436,0.9363351976585846,0.1027012978928548,0.0033778997316761495
96,6.361,5.97,-0.67,0.32812230621669336,0.9993729101160354,0.00029591580283503256,0.9369291104174845,0.10169682962832564,0.0028734903438440134
97,6.402,6.02,-0.61,0.3295407793514997,0.9991418162680794,0.00013646578364157814,0.9373874914611873,0.10082153377892943,0.0024147212756317044
98,6.464,6.08,-0.65,0.3309255912322406,0.9988751959194325,3.8483022564566905e-05,0.9377141264860327,0.10007206210493573,0.002000297680479768
99,6.526,6.13,-0.69,0.3322774607333787,0.998573316754271,0.0,0.9379128147966382,0.09944504843643147,0.0016289240601960254
100,6.568,6.19,-0.64,0.3335971117311248,0.9982364582826998,1.9046549837864895e-05,0.9379873658732879,0.098937111772866,0.0012993055781056943
101,6.629,6.24,-0.65,0.3348852724011106,0.9978649114983998,9.365154720425665e-05,0.9379415959951273,0.09854485933962392,0.0010101493431408386
102,6.69,6.3,-0.73,0.3361426745296677,0.9974589785316211,0.0002218445687176893,0.9377793249214159,0.09826488959936068,0.0007601656639977349
103,6.73,6.35,-0.71,0.337370052839003,0.9970189722982713,0.00040165752418182764,0.9375043726329417,0.09809379521593323,0.000548069272621141
104,6.833,6.41,-0.71,0.33856814432653826,0.9965452161458531,0.0006311262586875122,0.9371205561355795,0.09802816596885101,0.0003725805164014466
105,6.855,6.46,-0.77,0.339737687618664,0.9960380434970214,0.0009082921241540606,0.9366316863278826,0.09806459161625804,0.00023242651859349702
106,6.917,6.52,-0.75,0.340879422339149,0.9954977974915125,0.0012312035193901712,0.9360415649345003,0.09819966470453148,0.000126342306568908
107,6.979,6.57,-0.69,0.3419940884924196,0.9949248306271928,0.001597917397797291,0.9353539815071265,0.09842998332265726,5.307190754489113e-05
108,7.0,6.63,-0.72,0.34308242586189996,0.9943195044009555,0.0020065007418760506,0.9345727104945716,0.09875215379962016,1.1369411386270424e-05
109,7.062,6.68,-0.75,0.3441451734235641,0.9936821889501566,0.002455032003719449,0.9337015083834563,0.09916279334313588,0.0
110,7.124,6.74,-0.69,0.34518306877481775,0.9930132626952525,0.002941602510682188,0.9327441109109614,0.09965853261815648,1.7740942770123392e-05
111,7.206,6.79,-0.66,0.3461968475788044,0.9923131119842591,0.003464317835426743,0.931704230351019,0.1002360182636921,6.338255746643048e-05
112,7.226,6.85,-0.72,0.34718724302421444,0.9915821307395858,0.00402129912957861,0.9305855528752611,0.10089191534660286,0.00013572913614508676
113,7.287,6.9,-0.69,0.3481549853006653,0.9908207201077561,0.004610684420271185,0.9293917359899507,0.1016229097511245,0.00023359983570848361
114,7.328,6.96,-0.66,0.3491008010897162,0.9900292881124722,0.005230629868922264,0.9281264060500342,0.10242571050300857,0.000355829532937715
115,7.389,7.01,-0.73,0.3500254130715844,0.9892082493114404,0.005879310991654616,0.926793155851378,0.10329705202727162,0.0005012696439361794
116,7.45,7.07,-0.77,0.35092953944764366,0.9883580244573281,0.006554923840837949,0.9253955423021786,0.10423369633865726,0.0006687889080162747
117,7.512,7.12,-0.74,0.3518138934787835,0.9874790401631783,0.007255686147282303,0.9239370841744587,0.10523243516401436,0.0008572741360876174
118,7.554,7.18,-0.79,0.35267918303970974,0.9865717285725533,0.007979838422661461,0.9224212599364612,0.10629009199587962,0.0010656309235840232
119,7.615,7.23,-0.82,0.3535261101892405,0.9856365270346205,0.008725645021784403,0.9208515056666017,0.10740352407662161,0.001292784327943154
120,7.676,7.29,-0.76,0.35435537075662954,0.9846738777843242,0.009491395164357373,0.9192312130495197,0.10856962431256037,0.00153767951062818
121,7.737,7.34,-0.73,0.3551676539439225,0.983684227627709,0.010275403915904346,0.9175637274546231,0.10978532311753555,0.0017992823436445873
122,7.778,7.4,-0.79,0.3559636419443428,0.9826680276324038,0.011076013127552365,0.9158523460974008,0.11104759018546342,0.0020765799804863005
123,7.86,7.45,-0.78,0.35674400957668134,0.9816257328232579,0.011891592334436764,0.9141003162836759,0.1123534361915033,0.0023685813914586383
124,7.923,7.51,-0.72,0.3575094239356411,0.9805578018831529,0.012720539612540252,0.912310833736889,0.11369991442155053,0.00267431786336603
125,7.966,7.56,-0.8,0.35826054405806257,0.9794646968590545,0.013561282393848436,0.9104870410084156,0.11508412232987048,0.0029928434636356115
126,8.006,7.62,-0.83,0.3589980206049373,0.9783468828734161,0.014412278239763246,0.9086320259708078,0.1165032030247766,0.0033232354690609467
127,8.048,7.67,-0.77,0.3597224955591038,0.977204827841069,0.015272015572756772,0.9067488203937434,0.11795434668233595,0.0036645947594341885
128,8.111,7.73,-0.78,0.36043460193850724,0.9760390021917325,0.016139014366286498,0.9048403986023366,0.11943479188815766,0.004016046176384934
129,8.152,7.78,-0.84,0.3611349635248827,0.9748498785982739,0.017011826793035263,0.9029096762173405,0.12094182690738173,0.004376738847812168
130,8.233,7.84,-0.82,0.3618241946076975,0.9736379317108428,0.017889037831581075,0.9009595089766702,0.12247279088304974,0.004745846478376929
131,8.313,7.89,-0.83,0.3625028997431535,0.9724036378970102,0.018769265831648795,0.8989926916376129,0.12402507496310873,0.005122567606603539
132,8.334,7.95,-0.89,0.363171673528026,0.971147474988057,0.01965116303814679,0.897011956959048,0.12559612335636286,0.0055061258292380105
133,8.375,8.0,-0.84,0.3638311003880897,0.9698699220315646,0.020533416074231998,0.8950199747629791,0.12718343431773982,0.005895769993629581
134,8.436,8.06,-0.77,0.36448175438085123,0.9685714590504929,0.021414746383674015,0.8930193510746705,0.12878456106328368,0.006290774358941832
135,8.499,8.11,-0.8,0.36512419901228654,0.9672525668089346,0.022293910632811186,0.8910126273406497,0.1303971126153359,0.006690438726878904
136,8.56,8.17,-0.83,0.36575898706726145,0.9659137265847255,0.023169701072411092,0.8890022797237732,0.13201875457843112,0.007094088542326003
137,8.601,8.22,-0.79,0.36638666045331014,0.964555419949043,0.024040945859768705,0.8869907184744749,0.13364720984651737,0.007501074963944403
138,8.662,8.28,-0.79,0.3670077500574526,0.963178128553064,0.024906509341416038,0.8849802873772148,0.1352802592421983,0.007910774904507306
139,8.725,8.33,-0.84,0.36762277561574574,0.9617823339216874,0.025765292296872865,0.8829732632710494,0.13691574208876883,0.008322591040738781
140,8.766,8.39,-0.8,0.3682322455952691,0.9603685172542827,0.026616232143922468,0.8809718556431628,0.13855155671587982,0.008735951792573625
141,8.828,8.44,-0.77,0.3688366570882578,0.9589371592324113,0.027458303105948222,0.878978206294172,0.14018566089972423,0.009150311271968652
142,8.889,8.5,-0.82,0.36943649571810866,0.9574887398344634,0.02829051634191907,0.8769943890739976,0.14181607223869536,0.009565149201604587
143,8.951,8.55,-0.84,0.37003223555699527,0.9560237381571545,0.02911192003964652,0.8750224096871145,0.1434408684655261,0.009979970803988755
144,9.034,8.61,-0.8,0.3706243390548326,0.9545426322438293,0.02992159947295314,0.8730642055660144,0.14505818769697557,0.010394306661553675
145,9.053,8.66,-0.84,0.3712132569793297,0.9530458989195071,0.030718677023407446,0.8711216458117046,0.14666622862218445,0.010807712548347467
146,9.096,8.72,-0.91,0.37179942836686275,0.9515340136325803,0.03150231216729558,0.8691965311999978,0.14826325063086163,0.011219769233862923
147,9.158,8.77,-0.87,0.37238328048388736,0.9500074503030544,0.032271701428510914,0.867290594252266,0.1498475738825023,0.01163008225946584
148,9.199,8.83,-0.85,0.3729652287985992,0.9484666811771929,0.03302607829805655,0.865405499369247,0.15141757931786481,0.012038281687788945
149,9.262,8.88,-0.9,0.37354567696254654,0.9469121766884019,0.03376471312087494,0.8635428430264384,0.15297170861395265,0.012444021825418627
150,9.325,8.94,-0.89,0.374125016801893,0.9453444053241865,0.03448691295073741,0.8617041540296048,0.15450846408376356,0.012846980919235897
151,9.408,8.99,-0.84,0.3747036283180288,0.9437638334990195,0.03519202137395103,0.8598908938289477,0.15602640852209385,0.013246860826850258
152,9.428,9.05,-0.9,0.3752818796972255,0.9421709254329723,0.03587941830267569,0.8581044568904812,0.15752416499871869,0.013643386661674767
153,9.491,9.1,-0.91,0.3758601273290277,0.9405661430359669,0.03654851973867539,0.8563461711231427,0.15900041660030398,0.014036306413313965
154,9.553,9.16,-0.88,0.3764387158330693,0.9389499457974883,0.03719877750834074,0.8546172983601267,0.16045390612243873,0.01442539054402029
155,9.616,9.21,-0.89,0.3770179780940033,0.9373227906815894,0.03782967896982516,0.852919034892901,0.16188343571320504,0.01481043156202316
156,9.676,9.27,-0.93,0.3775982353042303,0.9356851320269886,0.03844074669314011,0.851252512056317,0.16328786646972437,0.01519124357260769
157,9.779,9.32,-0.91,0.37817979701411547,0.9340374214520379,0.03903153811405603,0.8496187968632012,0.1646661179891383,0.015567661807932405
158,9.799,9.38,-0.92,0.37876296118939456,0.9323801077643145,0.03960164516266916,0.848018892686795,0.1660171678754982,0.015939542136689744
159,9.841,9.43,-0.99,0.3793480142754985,0.930713636874536,0.04015069386752105,0.8464537399894086,0.16734005120405418,0.016306760554799925
160,9.881,9.49,-1.0,0.3799352312685404,0.9290384517144918,0.04067834393617615,0.8449242170956685,0.16863385994444088,0.016669212658367138
161,9.942,9.54,-0.95,0.3805248757927165,0.9273549921586615,0.0411842883131596,0.8434311410087761,0.16989774234425742,0.017026813100097356
162,10.003,9.6,-0.97,0.38111720018387146,0.9256636949491843,0.041668252716137874,0.84197526826821,0.17113090227452812,0.017379495030291285
163,10.044,9.65,-1.0,0.3817124455789645,0.9239649936238166,0.042129995151194054,0.8405572958472521,0.17233259853851773,0.017727209523413084
164,10.127,9.71,-0.93,0.38231084201118276,0.9222593184464596,0.04256930540802264,0.8391778620886668,0.17350214414536827,0.018069924991110188
165,10.147,9.76,-0.93,0.38291260851046355,0.9205470963397957,0.042986004535867435,0.8378375476767647,0.17463890555003328,0.018407626582470672
166,10.209,9.82,-1.01,0.38351795320922194,0.9188287508195043,0.04337994430104761,0.8365368766440048,0.17574230186100015,0.018740315572302844
167,10.251,9.87,-0.98,0.3841270734531125,0.9171047019295262,0.043751006626945727,0.8352763174102299,0.1768118040173065,0.0190680087382957
168,10.314,9.93,-0.95,0.3847401559166729,0.915375366177856,0.04409910301736754,0.8340562838525976,0.17784693393637435,0.01939073772802698
169,10.356,9.98,-1.0,0.3853573767237106,0.9136411564724146,0.04442417396422697,0.8328771364042372,0.17884726363418949,0.01970854841692572
170,10.418,10.04,-1.03,0.3859789015722988,0.9119024820566095,0.04472618834054256,0.8317391831796378,0.17981241431935102,0.020021500258437512
171,10.52,10.09,-1.0,0.38660488586425135,0.9101597484442515,0.04500514277974355,0.8306426811247606,0.1807420554625111,0.02032966562770737
172,10.541,10.15,-1.07,0.3872354748389652,0.9084133573534966,0.0452610610422815,0.8295878371898489,0.18163590384271788,0.020633129160065135
173,10.582,10.2,-1.13,0.3878708037115321,0.9066637066394573,0.04549399337053129,0.8285748095228677,0.18249372257215568,0.020931987085527615
174,10.644,10.26,-1.08,0.3885109978150386,0.9049111902250812,0.04570401583294734,0.8276037086814597,0.18331532010074708,0.021226346560464345
175,10.706,10.31,-1.05,0.38915617274697417,0.9031561980298634,0.04589122965843048,0.8266745988612721,0.1841005492020361,0.021516324997529687
176,10.768,10.37,-1.1,0.3898064345196564,0.901399115895942,0.046055760561859296,0.8257874991384846,0.18484930594172544,0.0218020493949475
177,10.81,10.42,-1.08,0.3904618797145625,0.8996403255111588,0.04619775806173433,0.8249423847243919,0.1855615286302044,0.02208365566621473
178,10.893,10.48,-1.03,0.3911225956404359,0.8978802043287128,0.04631739479088366,0.824139188229946,0.18623719676038872,0.022361287971256336
179,10.913,10.53,-1.08,0.3917886604950274,0.8961191254831011,0.04641486580119455,0.8233778009381846,0.18687632993218967,0.022635098050063328
180,10.975,10.59,-1.09,0.3924601435303165,0.8943574577021133,0.0464903878633609,0.8226580740824532,0.1874789867649232,0.022905244559893814
181,11.017,10.64,-1.01,0.39313710522103773,0.8925955652147299,0.04654419876265098,0.8219798201283075,0.18804526379896505,0.023171892417155112
182,11.077,10.7,-1.02,0.3938195974363077,0.8908338076548773,0.04657655659170903,0.8213428140569343,0.18857529438795043,0.023435212145080455
183,11.18,10.75,-1.08,0.39450766361411177,0.8890725399610713,0.04658773904140469,0.8207467946478965,0.1890692475828116,0.02369537922828825
184,11.242,10.81,-1.04,0.395201338938382,0.8873121122720729,0.046578042690736426,0.8201914657589958,0.1895273270089464,0.02395257347526812
185,11.263,10.86,-1.05,0.39590065051837636,0.8855528698187403,0.046547782296788145,0.8196764976010689,0.18994976973781272,0.024206978389773662
186,11.304,10.92,-1.12,0.3966056175700767,0.8837951528123087,0.046497290085737955,0.8192015280055766,0.1903368451542371,0.024458780552049624
187,11.366,10.97,-1.15,0.3973162515993223,0.8820392963293533,0.04642691504590725,0.8187661636829331,0.19068885382070697,0.024708169010779022
188,11.428,11.03,-1.08,0.39803255658640974,0.8802856301937213,0.046337022223809865,0.8183699814696198,0.19100612633988112,0.02495533468657081
189,11.47,11.08,-1.11,0.39875452917188314,0.8785344788557441,0.04622799202410964,0.8180125295622663,0.19128902221651184,0.025200469787725308
190,11.532,11.14,-1.13,0.39948215884323973,0.8767861612690685,0.046100219514303015,0.8176933287370663,0.19153792871992112,0.02544376723893309
191,11.594,11.19,-1.08,0.40021542812226374,0.8750409907654617,0.04595411373481316,0.8174118735531837,0.19175325974813465,0.02568542012346226
192,11.635,11.25,-1.08,0.40095431275270055,0.8732992749279709,0.045790097015057395,0.817167633539098,0.19193545469475376,0.025925621139285215
193,11.675,11.3,-1.15,0.4016987818879815,0.8715613154628311,0.04560860429596446,0.8169600543610748,0.1920849773196297,0.02616456206954581
194,11.777,11.36,-1.11,0.40244879827870805,0.8698274080705368,0.045410082459365224,0.8167885589730862,0.1922023146243897,0.026402433267795913
195,11.798,11.41,-1.08,0.4032043184596124,0.868097842316522,0.04519498966464495,0.8166525487476708,0.19228797573384748,0.02663942315852043
196,11.86,11.47,-1.13,0.40396529293573075,0.8663729015018938,0.0449637946930164,0.8165514045873613,0.19234249078430918,0.026875717753598788
197,11.922,11.52,-1.16,0.4047316663675561,0.8646528625346733,0.044716976299738476,0.8164844880164807,0.19236640981975656,0.027111500185461452
198,11.984,11.58,-1.13,0.40550337775495665,0.8629379958019889,0.0444550225745624,0.8164511422532215,0.19236030169686752,0.027346950257716277
199,12.025,11.63,-1.18,0.4062803606196591,0.8612285650436634,0.04417843031064609,0.8164506932619952,0.1923247529998008,0.027582244013951398
200,12.088,11.69,-1.24,0.40706254318609125,0.859524827227626,0.04388770438213733,0.8164824507860439,0.19226036696563334,0.027817553325333304
201,12.15,11.74,-1.2,0.4078498485603627,0.8578270324275638,0.043583357130595406,0.8165457093603106,0.1921677624212845,0.028053045497533464
202,12.213,11.8,-1.17,0.40864219490715104,0.8561354237031972,0.04326590776041292,0.8166397493045461,0.19204757273270653,0.028288882897436998
203,12.234,11.85,-1.21,0.4094394956242643,0.8544502369835315,0.042935881743411494,0.8167638376966196,0.19190044476705911,0.02852522260003176
204,12.336,11.91,-1.2,0.41024165951467106,0.8527717009534033,0.04259381023279391,0.8169172293260285,0.19172703786853718,0.028762216055843153
205,12.356,11.96,-1.15,0.41104859095580987,0.8511000369436353,0.04224022948663699,0.8170991676276601,0.19152802284848416,0.029000008779249877
206,12.397,12.02,-1.19,0.4118601900660183,0.8494354588251196,0.041875680301110677,0.8173088855959277,0.19130408099039947,0.029238740057994754
207,12.458,12.07,-1.2,0.4126763528679458,0.8477781729071505,0.04150070745360009,0.8175456066794523,0.19105590307042666,0.029478542684189354
208,12.521,12.13,-1.15,0.41349697144882513,0.8461283778403266,0.041115859155883956,0.8178085456565007,0.19078418839388858,0.02971954270706425
209,12.583,12.18,-1.16,0.41432193411749657,0.8444862645243082,0.04072168651749808,0.8180969094913919,0.19048964384841502,0.02996185920763706
210,12.644,12.24,-1.21,0.41515112555808215,0.8428520160206698,0.040318743019387274,0.8184098981720412,0.19017298297418755,0.030205604095392812
211,12.707,12.29,-1.19,0.41598442698021465,0.8412258074710492,0.03990758399792181,0.8187467055288109,0.18983492505180385,0.030450881927008528
212,12.728,12.35,-1.2,0.41682171626572556,0.8396078060207679,0.039488766139337904,0.8191065200348235,0.18947619420824713,0.03069778974710882
213,12.79,12.4,-1.3,0.41766286811170666,0.8379981707480951,0.039062846984661004,0.8194885255879227,0.1890975185414118,0.030946416951035973
214,12.831,12.46,-1.31,0.41850775416987523,0.8363970525993307,0.0386303844451703,0.819891902274491,0.1886996292635963,0.031196845169652782
215,12.892,12.51,-1.24,0.41935624318219344,0.8348045943298931,0.038191936328452095,0.8203158271153945,0.18828325986431083,0.0314491481762226
216,12.954,12.57,-1.27,0.4202082011127217,0.8332209304515781,0.03774805987507434,0.8207594747943585,0.18784914529268004,0.03170339181541509
217,13.015,12.62,-1.27,0.42106349127571224,0.83164618718612,0.037299311305888816,0.8212220183690833,0.1873980211596483,0.03195963395447136
218,13.128,12.68,-1.22,0.4219219744599716,0.8300804824251341,0.03684624537993227,0.821702629965389,0.18693062296014323,0.03221792445651235
219,13.15,12.73,-1.14,0.42278350904954487,0.8285239256964603,0.03638941496287467,0.8222004814546187,0.18644768531532607,0.032478305175898
220,13.19,12.79,-1.18,0.4236479511407943,0.8269766181368878,0.03592937060595536,0.8227147451144518,0.1859499412350418,0.032740809975482024
221,13.232,12.84,-1.15,0.424515154655961,0.825438652471212,0.03546666013534861,0.8232445942732255,0.18543812140058635,0.03300546476555915
222,13.273,12.9,-1.12,0.42538497145332077,0.8239101129975629,0.035001828251900034,0.8237892039378558,0.18491295346792286,0.03327228756424563
223,13.336,12.95,-1.18,0.42625725143406296,0.8223910755789704,0.03453541614117009,0.8243477514054888,0.18437516139150345,0.03354128857897556
224,13.397,13.01,-1.2,0.4271318426460337,0.820881607641147,0.034067961093696746,0.8249194168590857,0.18382546476886466,0.033812470308736464
225,13.438,13.06,-1.18,0.4280085913844825,0.8193817681765163,0.033599996135355636,0.8255033839472451,0.18326457820616499,0.0340858276665785
226,13.52,13.12,-1.22,0.42888734228994696,0.8178916077545328,0.03313204966766899,0.826098840348606,0.18269321070480982,0.034361348121810055
227,13.563,13.17,-1.25,0.4297679384434054,0.8164111685383232,0.03266464511789357,0.8267049783211886,0.18211206506927324,0.03463901186115501
228,13.623,13.23,-1.18,0.4306502214588306,0.814940484307628,0.03219830059870002,0.8273209952369877,0.18152183733617772,0.03491879196798528
229,13.686,13.28,-1.17,0.43153403157328324,0.8134795804879584,0.03173352857725078,0.8279460941020748,0.1809232162246495,0.03520065461857294
230,13.726,13.34,-1.22,0.4324192077346905,0.8120284741858006,0.031270835553492984,0.8285794840624015,0.18031688260793405,0.035484559294181
231,13.809,13.39,-1.2,0.43330558768745997,0.8105871742296893,0.030810721747495464,0.8292203808954656,0.17970350900623205,0.035770459007763385
232,13.83,13.45,-1.15,0.43419300805606764,0.8091556812169789,0.03035368079568192,0.8298680074880048,0.17908375910071145,0.03605830054407257
233,13.893,13.5,-1.21,0.4350813044267457,0.8077339875661937,0.02990019945584638,0.830521594299886,0.17845828726864044,0.03634802471206866
234,13.954,13.56,-1.21,0.4359703114273813,0.8063220775748743,0.029450757320868465,0.8311803798143479,0.17782773813957442,0.036639566608645355
235,14.014,13.61,-1.14,0.4368598628057214,0.8049199274828625,0.029005826541064123,0.831843610974713,0.17719274617251793,0.03693285589276101
236,14.055,13.67,-1.17,0.4377497915059669,0.8035275055409548,0.028565871555118395,0.832510543607615,0.17655393525397092,0.03722781706907136
237,14.097,13.72,-1.22,0.43863992974382165,0.802144772084824,0.02813134882954705,0.8331804428327099,0.175911918316757,0.03752436978012129
238,14.179,13.78,-1.19,0.439530109080041,0.8007716796140621,0.027702706606624192,0.8338525834588005,0.17526729697952215,0.037822429106059374
239,14.221,13.83,-1.21,0.4404201604925068,0.7994081728761707,0.027280384660711726,0.8345262503662804,0.17462066120678396,0.03812190587070617
240,14.282,13.89,-1.25,0.4413099144468587,0.7980541889552866,0.026864814062939665,0.8352007388757899,0.17397258898939394,0.03842270695270445
241,14.385,13.94,-1.24,0.442199200965699,0.7967096573654459,0.026456416954197273,0.83587535510299,0.17332364604524536,0.038724735600426066
242,14.406,14.0,-1.18,0.4430878496963732,0.7953745001482095,0.026055606326401845,0.8365494162993966,0.1726743855400271,0.03902789174927181
243,14.447,14.05,-1.23,0.44397568997729914,0.7940486319745306,0.025662785812022533,0.8372222511792379,0.17202534782779205,0.03933207233998001
244,14.548,14.11,-1.23,0.4448625509027982,0.7927319602507724,0.025278349481846225,0.8378932002322856,0.17137706021108454,0.039637171636564376
245,14.568,14.16,-1.17,0.44574826138637186,0.791424385228807,0.024902681650974,0.8385616160225956,0.1707300367203591,0.03994308154251267
246,14.609,14.22,-1.17,0.4466326502223726,0.7901258001201014,0.02453615669303775,0.8392268634730644,0.17008477791242,0.04024969191388796
247,14.67,14.27,-1.22,0.44751554614602923,0.7888360912136677,0.024179138862625342,0.8398883201356663,0.16944177068760755,0.04055689086799797
248,14.712,14.33,-1.18,0.4483967778917922,0.7875551379977328,0.023831982125891712,0.8405453764472326,0.16880148812546233,0.040864565086323947
249,14.772,14.38,-1.16,0.44927617424997396,0.7862828132849767,0.023495029999318105,0.8411974359706662,0.1681643893386028,0.04117260011043507
250,14.833,14.44,-1.22,0.45015356412166113,0.7850189833412232,0.023168615396567872,0.8418439156215693,0.167530919344557,0.04148088062969958
251,14.915,14.49,-1.29,0.4510287765718674,0.7837635080175103,0.02285306048336628,0.8424842458803758,0.1669015089552841,0.04178929075973269
252,14.936,14.55,-1.26,0.4519016408808726,0.7825162408855365,0.022548676540303778,0.8431178709902162,0.16627657468411294,0.042097714310634034
253,14.997,14.6,-1.32,0.4527719865936664,0.7812770293765415,0.022255763833436554,0.8437442491408433,0.16565651866979916,0.04240603504418468
254,15.061,14.66,-1.31,0.4536396435673811,0.780045714923724,0.021974611492532138,0.8443628526389693,0.16504172861735542,0.042714136919342456
255,15.101,14.71,-1.25,0.4545044420165712,0.7788221331083216,0.02170549739677974,0.8449731680653477,0.16443257775525233,0.043021904325564846
256,15.163,14.77,-1.24,0.455366212556174,0.7776061138094738,0.021448688067763462,0.8455746964188765,0.1638294248085383,0.04332922230363051
257,15.204,14.82,-1.29,0.4562247862419766,0.7763974813579658,0.021204438569486953,0.8461669532479352,0.1632326139873986,0.043635976753720544
258,15.286,14.88,-1.23,0.4570799946084138,0.7751960546939363,0.02097299241524261,0.8467494687691516,0.16264247499067055,0.04394205463060504
259,15.307,14.93,-1.19,0.457931669703539,0.7740016475286324,0.020754581481142946,0.8473217879737875,0.16205932302384082,0.04424734412590539
260,15.369,14.99,-1.22,0.45877964412102934,0.7728140685103063,0.020549425926169474,0.8478834707219606,0.16148345883106371,0.044551734837583276
261,15.431,15.04,-1.24,0.45962375102911385,0.7716331213943556,0.020357734118623426,0.8484340918249383,0.16091516874074868,0.044855117926979465
262,15.493,15.1,-1.19,0.460463824196332,0.7704586052178252,0.020179702568881953,0.8489732411157799,0.16035472472428475,0.045157386263802723
263,15.532,15.15,-1.21,0.46129969801405846,0.769290314478377,0.020015515868386236,0.8495005235085783,0.15980238446748432,0.045458434559455765
264,15.595,15.21,-1.26,0.4621312075157488,0.768128039317822,0.01986534663481217,0.8500155590465065,0.15925839145433784,0.0457581594890433
265,15.696,15.26,-1.22,0.4629581883928591,0.7669715657102785,0.019729355463393678,0.8505179829387796,0.1587229750626729,0.046056459802351506
266,15.716,15.32,-1.22,0.46378047700738895,0.7658206756549952,0.019607690884386325,0.851007445586565,0.15819635067130963,0.04635323642401837
267,15.758,15.37,-1.27,0.4645979104009855,0.7646751473738351,0.019500489326671696,0.8514836125978154,0.15767871977829487,0.04664839254305625
268,15.819,15.43,-1.25,0.46541032630055856,0.7635347555133682,0.01940787508750301,0.8519461647910049,0.1571702701297876,0.0469418336918437
269,15.881,15.48,-1.2,0.46621756312040635,0.7623992713514675,0.019329960308386518,0.8523947981878263,0.15667117585915744,0.0472334678146735
270,15.943,15.54,-1.24,0.4670194599609271,0.7612684630082596,0.019266844957088067,0.8528292239949902,0.15618159763585132,0.047523205325971346
271,16.023,15.59,-1.24,0.467815856604057,0.7601420956612632,0.019218616815732864,0.8532491685753811,0.1557016828235817,0.04781095915839254
272,16.044,15.65,-1.17,0.46860659350560624,0.7590199317645832,0.019185351474927486,0.8536543734089193,0.1552315656473953,0.04809664480109825
273,16.084,15.7,-1.19,0.4693915117846758,0.7579017312720568,0.019167112333798763,0.8540445950435422,0.15477136736919408,0.048380180328564344
274,16.147,15.76,-1.24,0.4701704532103487,0.7567872518642715,0.019163950605828293,0.8544196050367189,0.15432119647129375,0.04866148642029462
275,16.207,15.81,-1.21,0.47094326018585503,0.7556762491793693,0.019175905330367067,0.8547791898878746,0.1538811488476198,0.04894048637180429
276,16.287,15.87,-1.21,0.4717097757304414,0.7545684770475336,0.019203003389745576,0.8551231509620627,0.15345130800215992,0.0492171060972492
277,16.307,15.92,-1.28,0.47246984345921,0.7534636877290171,0.019245259531938872,0.8554513044051778,0.1530317452542964,0.049491274124154806
278,16.368,15.98,-1.29,0.47322330756122843,0.752361632155522,0.019302676398777842,0.8557634810510272,0.15262251995064208,0.049762921580833064
279,16.43,16.03,-1.26,0.47397001277624196,0.7512620601747029,0.0193752445597146,0.85605952632063,0.15222367968299338,0.050031982177188336
280,16.511,16.09,-1.3,0.47470980437033605,0.7501647207975077,0.019462942551159917,0.8563393001141565,0.15183526051199517,0.05029839217967948
281,16.531,16.14,-1.3,0.47544252811088805,0.7490693624480478,0.019565736921411097,0.8566026766959257,0.15145728719608845,0.05056209038122172
282,16.592,16.2,-1.22,0.47616803024111526,0.7479757332156749,0.019683582281179196,0.8568495445728462,0.15108977342528812,0.050823018066766305
283,16.652,16.25,-1.2,0.4768861574544873,0.7468835811089539,0.019816421359719026,0.8570798063666213,0.15073272205932756,0.0510811189752053
284,16.754,16.31,-1.25,0.4775967568692455,0.7457926543111908,0.019964185066565825,0.8572933786799446,0.1503861253697118,0.05133633925815501
285,16.774,16.36,-1.2,0.47829967600327444,0.7447027014371592,0.020126792558885408,0.8574901919568533,0.15004996528524495,0.05158862743608661
286,16.815,16.42,-1.17,0.4789947627495827,0.7436134717906338,0.02030415131446444,0.8576701903373598,0.14972421364063415,0.051837934352206794
287,16.876,16.47,-1.22,0.4796818653526743,0.7425247156223126,0.020496157210405385,0.8578333315064469,0.14940883242780859,0.0520842131244936
288,16.917,16.53,-1.23,0.48036083238610894,0.7414361843877266,0.020702694607623102,0.8579795865375097,0.14910377404962072,0.05232741909635361
289,16.958,16.58,-1.19,0.481031512731549,0.7403476310047664,0.020923636441257984,0.8581089397303445,0.14880898157562195,0.05256750978641935
290,17.019,16.64,-1.25,0.4816937555595936,0.7392588101105111,0.021158844317134676,0.8582213884437786,0.14852438899962242,0.052804444838014566
291,17.12,16.69,-1.29,0.482347410312678,0.7381694783170789,0.021408168614405244,0.8583169429229923,0.14824992149875055,0.05303818596878326
292,17.142,16.75,-1.26,0.482992326690301,0.7370793944662333,0.021671448594519273,0.8583956261215104,0.14798549569372507,0.05326869692089199
293,17.182,16.8,-1.26,0.4836283546368199,0.7359883198824372,0.021948512516667747,0.8584574735177536,0.14773101991004167,0.05349594341209896
294,17.244,16.86,-1.31,0.48425534433203826,0.7348960186239981,0.022239177759850376,0.8585025329259514,0.14748639443975836,0.05371989308789489
295,17.304,16.91,-1.26,0.48487314618478417,0.733802257731884,0.022543250951713723,0.8585308643011687,0.1472515118035453,0.0539405154748805
296,17.346,16.97,-1.22,0.48548161082965896,0.732706807475782,0.02286052810430763,0.8585425395381919,0.14702625701265623,0.05415778193555139
297,17.409,17.02,-1.26,0.4860805891271159,0.7316094415969762,0.02319079475691048,0.8585376422640495,0.14681050783047797,0.05437166562473181
298,17.512,17.08,-1.26,0.4866699321670091,0.7305099375476782,0.023533826126062266,0.8585162676240204,0.14660413503332725,0.054582141448011934
299,17.554,17.13,-1.19,0.4872494912757342,0.7294080767265181,0.023889387262913047,0.8584785220610885,0.14640700267018297,0.054789186022625745
300,17.575,17.19,-1.22,0.4878191180270569,0.7283036447099834,0.024257233217955844,0.8584245230888935,0.14621896832106887,0.05499277764122522
301,17.617,17.24,-1.24,0.488378664256722,0.7271964314796392,0.024637109213168876,0.8583543990582923,0.1460398833538249,0.05519289623897841
302,17.679,17.3,-1.2,0.48892798208092236,0.7260862316449835,0.025028750821547555,0.8582682889176758,0.1458695931790335,0.05538952336435045
303,17.741,17.35,-1.2,0.4894669239187062,0.724972844661795,0.025431884153979924,0.8581663419671909,0.1457079375028957,0.05558264215384317
304,17.864,17.41,-1.26,0.48999534251838783,0.723856075045827,0.025846226053415845,0.8580487176069973,0.1455547505778746,0.055772237310915344
305,17.885,17.46,-1.26,0.49051309098800666,0.7227357325817151,0.026271484296288686,0.8579155850796734,0.14540986145094145,0.055958295089278985
306,17.906,17.52,-1.25,0.4910200228298645,0.7216116325269777,0.02670735780116273,0.8577671232069056,0.14527309420926962,0.0561408032807355
307,17.947,17.57,-1.28,0.4915159919791496,0.720483595811004,0.027153536844591836,0.8576035201206295,0.14514426822322096,0.05631975120768834
308,18.009,17.63,-1.28,0.4920008528466422,0.719351449228922,0.027609703284166107,0.8574249729888608,0.14502319838646296,0.05649512972044929
309,18.069,17.68,-1.21,0.49247446036547116,0.7182150256302657,0.02807553078869376,0.8572316877365352,0.14490969535304393,0.05666693119941537
310,18.109,17.74,-1.18,0.49293667004187625,0.7170741641023461,0.028550685075434297,0.8570238787617338,0.14480356577125325,0.05683514956211271
311,18.274,17.79,-1.23,0.49338733800991524,0.715928710148223,0.02903482415427406,0.8568017686477133,0.1447046125141051,0.056999780274997885
312,18.294,17.85,-1.18,0.49382632109005836,0.7147785158591323,0.029527598578718048,0.8565655878711599,0.14461263490631426,0.05716082036978592
313,18.315,17.9,-1.17,0.49425347685162924,0.7136234400811917,0.030028651703567805,0.856315574507085,0.1445274289476777,0.057318268463984946
314,18.356,17.96,-1.24,0.4946686636790884,0.7124633485761516,0.03053761994915767,0.8560519739307624,0.14444878753281853,0.057472124785326484
315,18.398,18.01,-1.21,0.4950717408422168,0.7112981141759509,0.031054133072013258,0.8557750385171408,0.14437650066728203,0.057622391199889836
316,18.46,18.07,-1.19,0.49546256857031284,0.7101276169308262,0.03157781444178267,0.8554850273382528,0.1443103556799967,0.057769071243873565
317,18.522,18.12,-1.25,0.4958410081305661,0.708951744250767,0.0321082813242807,0.8551822058592328,0.1442501374321253,0.057912170159130014
318,18.583,18.18,-1.28,0.4962069219107652,0.7077703910401731,0.03264514517046911,0.8548668456336526,0.14419562852233506,0.05805169493270342
319,18.623,18.23,-1.25,0.4965601735064717,0.7065834598256376,0.0331880119111664,0.8545392239989578,0.14414660948851976,0.05818765434064136
320,18.664,18.29,-1.27,0.4969006278127496,0.7053908608768311,0.03373648225724994,0.8541996237728158,0.14410285900600328,0.05832005899629019
321,18.726,18.34,-1.28,0.4972281511204975,0.704192512320481,0.034290152005082335,0.8538483329511646,0.14406415408224169,0.058448921403191405
322,18.788,18.4,-1.22,0.4975426112173933,0.7029883402474332,0.03484861234686359,0.8534856444087195,0.14403027024802997,0.0585742560125814
323,18.85,18.45,-1.21,0.4978438774934402,0.7017782788127611,0.03541145018559623,0.853111855602641,0.14400098174521744,0.05869607928536572
324,18.913,18.51,-1.26,0.49813182105110987,0.7005622703288434,0.03597824845435526,0.8527272682800261,0.14397606171094618,0.05881440975833558
325,18.953,18.56,-1.24,0.4984063148201006,0.6993402653513011,0.03654858643956389,0.8523321881898811,0.1439552823584516,0.05892926811435087
326,19.015,18.62,-1.2,0.49866723367676713,0.6981122227576664,0.03712204010798087,0.8519269248002646,0.14393841515449388,0.059040677256220336
327,19.076,18.67,-1.26,0.4989144545683006,0.6968781098186398,0.03769818243710671,0.8515117910213346,0.1439252309935118,0.0591486623840502
328,19.118,18.73,-1.27,0.4991478566417469,0.6956379022618032,0.03827658374870621,0.8510871029350504,0.1439155003686099,0.05925325107588108
329,19.199,18.78,-1.23,0.49936732137792916,0.6943915843276867,0.03885681204512167,0.8506531795322898,0.143908993539501,0.05935447337144826
330,19.22,18.84,-1.26,0.499572732730298,0.6931391488181216,0.03943843334803511,0.8502103424580986,0.1439054806975381,0.05945236185888266
331,19.282,18.89,-1.34,0.49976397726870014,0.6918805971368324,0.0400210120393355,0.8497589157657085,0.14390473212797367,0.05954695176414386
332,19.323,18.95,-1.33,0.4999409443280154,0.6906159393222259,0.040604111203770256,0.8492992256798227,0.14390651836958449,0.05963828104294107
333,19.385,19.0,-1.33,0.5001035261615725,0.6893451940723464,0.041187292973122736,0.8488316003694716,0.1439106103717915,0.05972639047486016
334,19.446,19.06,-1.36,0.5002516180992134,0.6880683887619866,0.041770118871740904,0.8483563697305245,0.14391677964938304,0.059811323759412414
335,19.486,19.11,-1.36,0.5003851187098189,0.686785559451983,0.04235215016330256,0.8478738651777966,0.14392479843491926,0.05989312761374737
336,19.568,19.17,-1.29,0.5005039299680706,0.6854967508907753,0.04293294819872683,0.8473844194466461,0.14393443982887083,0.059971851871781764
337,19.609,19.22,-1.34,0.5006079574251753,0.684202016508366,0.04351207476515015,0.8468883664039457,0.14394547794753046,0.06004754958448375
338,19.69,19.28,-1.36,0.5006971103832656,0.6829014184028458,0.0440890924358873,0.8463860408682933,0.14395768806873163,0.06012027712102834
339,19.71,19.33,-1.3,0.5007713020731561,0.6815950273196663,0.04466356492129574,0.8458777784392879,0.14397084677541985,0.06019009427049454
340,19.772,19.39,-1.3,0.5008304498351347,0.68028292262382,0.04523505742045912,0.8453639153356389,0.14398473209713034,0.06025706434371869
341,19.834,19.44,-1.37,0.5008744753024509,0.6789651922650566,0.045803136973597905,0.8448447882418147,0.14399912364943612,0.060321254274890296
342,19.876,19.5,-1.33,0.5009033045871563,0.6776419327362336,0.04636737281509259,0.8443207341629305,0.14401380277143846,0.06038273472247522
343,19.939,19.55,-1.26,0.5009168684679535,0.6763132490248771,0.04692733672698505,0.8437920902875891,0.14402855266138184,0.06044158016908141
344,20.002,19.61,-1.33,0.5009151025797206,0.6749792545580137,0.047482603392819074,0.8432591938584262,0.14404315851048524,0.06049786901996797
345,20.063,19.66,-1.37,0.500897947604405,0.673640071140317,0.04803275075168547,0.8427223820501265,0.14405740763508834,0.060551683700007505
346,20.145,19.72,-1.34,0.5008653494629997,0.6722958288855972,0.04857736035234597,0.842181991854684,0.14407108960722245,0.060603110748957044
347,20.166,19.77,-1.4,0.5008172595083421,0.6709466661416302,0.049116017707319895,0.8416383599736647,0.14408399638372577,0.060652240914857804
348,20.228,19.83,-1.41,0.5007536347184756,0.6695927294082912,0.04964831264681521,0.8410918227171896,0.14409592243401156,0.06069916924531489
349,20.288,19.88,-1.35,0.5006744378903053,0.6682341732489296,0.05017383967236749,0.8405427159093188,0.1441066648665737,0.0607439951763172
350,20.329,19.94,-1.33,0.500579637833253,0.6668711601949053,0.05069219831003631,0.8399913747994369,0.1441160235542854,0.06078682261816395
351,20.431,19.99,-1.39,0.5004692095625921,0.6655038606432092,0.05120299346300577,0.8394381339791424,0.1441238012585315,0.060827760038006724
352,20.451,20.05,-1.36,0.5003431344921278,0.6641324527471103,0.05170583576343642,0.8388833273040606,0.14412980375221507,0.060866920538500124
353,20.512,20.1,-1.34,0.5002014006258866,0.6627571222997898,0.052200341923419,0.8383272878199646,0.14413383994169435,0.060904421932080004
354,20.532,20.16,-1.37,0.5000440027484956,0.6613780626109386,0.052686135084885316,0.8377703476926112,0.1441357219877188,0.060940386810490015
355,20.594,20.21,-1.38,0.49987094261393894,0.6599954743763131,0.05316284516832157,0.8372128381407647,0.1441352654254369,0.060974942609341685
356,20.655,20.27,-1.33,0.49968222913239085,0.6586095655402682,0.053630109220107525,0.8366550893719845,0.1441322892835517,0.06100822166764315
357,20.695,20.32,-1.39,0.499477878554828,0.6572205511513052,0.05408757175828489,0.8360974305208195,0.14412661620270237,0.06104036128231192
358,20.818,20.38,-1.45,0.49925791465513075,0.6558286532106737,0.0545348851165409,0.8355401895890615,0.14411807255315393,0.06107150375769871
359,20.84,20.43,-1.43,0.49902236890937257,0.6544341005140764,0.054971709786169276,0.8349836933876886,0.14410648855187436,0.06110179645009513
360,20.881,20.49,-1.43,0.49877128067198306,0.6530371284865248,0.05539771475574622,0.8344282674800947,0.1440916983790653,0.06113139180711694
361,20.921,20.54,-1.47,0.498504697348449,0.6516379790103988,0.05581257784823455,0.8338742361261732,0.14407354029418187,0.06116044740180738
362,20.983,20.6,-1.42,0.4982226745641937,0.6502369002467687,0.05621598605520221,0.8333219222268157,0.14405185675143875,0.06118912596129383
363,21.044,20.65,-1.39,0.4979252763292517,0.6488341464500665,0.05660763586782035,0.8327716472684185,0.14402649451476987,0.061217595389827247
364,21.106,20.71,-1.43,0.49761257519833607,0.6474299777762341,0.056987233604291906,0.8322237312670412,0.14399730477219227,0.061246028786038034
365,21.147,20.76,-1.43,0.4972846524258866,0.6460246600845319,0.05735449573333587,0.8316784927119549,0.14396414324952392,0.061274604454260834
366,21.208,20.82,-1.36,0.4969415981156678,0.6446184647332719,0.05770914919330401,0.8311362485084443,0.1439268703234138,0.061303505909776464
367,21.269,20.87,-1.39,0.49658351136448037,0.6432116683698024,0.058050931706449545,0.8305973139198364,0.14388535113365575,0.061332921877785135
368,21.329,20.93,-1.43,0.4962105003995338,0.6418045527151324,0.05837959208780329,0.8300620025088109,0.14383945569476514,0.06136304628587511
369,21.412,20.98,-1.38,0.4958226827090174,0.640397404343626,0.05869489054805422,0.8295306260780847,0.14378905900680855,0.061394078249685693
370,21.432,21.04,-1.39,0.49542018516540615,0.6389905144582146,0.058996598989793106,0.8290034946105796,0.14373404116548816,0.06142622205140469
371,21.474,21.09,-1.47,0.49500314414105595,0.6375841786615604,0.05928450129646149,0.8284809162091735,0.14367428747148692,0.061459687110733664
372,21.535,21.15,-1.47,0.4945717056156649,0.6361786967235967,0.0595583936133337,0.8279631970361508,0.14360968853907724,0.061494687947993495
373,21.596,21.2,-1.44,0.4941260252752052,0.6347743723458594,0.0598180846198479,0.8274506412525038,0.14354014040398141,0.06153144413908504
374,21.637,21.26,-1.48,0.4936662686019563,0.6333715129230029,0.0600633957925897,0.8269435509572745,0.14346554463044772,0.061570180262059855
375,21.7,21.31,-1.48,0.49319261095529243,0.631970429301891,0.06029416165820499,0.8264422261271758,0.14338580841747167,0.0616111258350873
376,21.761,21.37,-1.4,0.4927052376428857,0.6305714355386582,0.06051023003547302,0.8259469645567838,0.14330084470406412,0.061654515245596835
377,21.821,21.42,-1.43,0.49220434398198254,0.6291748486541479,0.060711462265722424,0.8254580617996062,0.1432105722734519,0.06170058767033195
378,21.903,21.48,-1.46,0.491690135350401,0.6277809883881567,0.06089773343073256,0.8249758111103145,0.14311491585609518,0.061749586986013794
379,21.923,21.53,-1.41,0.4911628272268859,0.6263901769529435,0.06106893255723139,0.8245005033883934,0.1430138062314155,0.061801761670286386
380,21.964,21.59,-1.39,0.4906226452204563,0.6250027387864646,0.061224962807093504,0.8240324271234185,0.14290718032814195,0.06185736469260247
381,22.048,21.64,-1.45,0.49006982508839547,0.6236190003058066,0.06136574165237638,0.8235718683421415,0.1427949813231927,0.0619166533947279
382,22.089,21.7,-1.45,0.48950461274255436,0.6222392896612844,0.06149120103444404,0.8231191105575151,0.14267715873901585,0.06197988936058603
383,22.193,21.75,-1.43,0.48892726424366595,0.6208639364916723,0.06160128750665135,0.8226744347197052,0.1425536685393171,0.06204733827520383
384,22.213,21.81,-1.5,0.48833804578341156,0.6194932716810395,0.06169596236035221,0.8222381191689851,0.14242447322310023,0.06211926977256587
385,22.254,21.86,-1.54,0.48773723365400984,0.6181276271176526,0.061775201734224475,0.8218104395902692,0.14228954191692908,0.06219595727222724
386,22.316,21.92,-1.49,0.48712511420511634,0.616767335455415,0.06183899670700238,0.8213916689689632,0.14214885046529652,0.06227767780454624
387,22.378,21.97,-1.49,0.48650198378781906,0.6154127298783193,0.061887353373710575,0.8209820775477623,0.1420023815189506,0.062364711824375425
388,22.419,22.03,-1.52,0.48586814868549527,0.6140641438683994,0.06192029290546949,0.8205819327839842,0.14185012462098937,0.06245734301302776
389,22.459,22.08,-1.46,0.48522392503127193,0.6127219109776827,0.061937851592923136,0.8201914993069769,0.14169207629050604,0.06255585806832255
390,22.522,22.14,-1.46,0.48456963871183006,0.6113863646046479,0.06194008087334498,0.8198110388751234,0.1415282401035515,0.06266054648252876
391,22.584,22.19,-1.5,0.48390562525731107,0.6100578377756819,0.06192704734149474,0.8194408103319542,0.14135862677117966,0.06277170030810461
392,22.625,22.25,-1.48,0.4832322297171094,0.608736662932036,0.06189883274430371,0.8190810695609596,0.14118325421434455,0.06288961391127663
393,22.686,22.3,-1.43,0.48254980652136725,0.6074231717227943,0.06185553395945949,0.8187320694388007,0.14100214763542604,0.06301458371365193
394,22.748,22.36,-1.48,0.4818587193280178,0.6061176948043705,0.06179726295794425,0.8183940597867378,0.14081533958616424,0.06314690792218242
395,22.809,22.41,-1.51,0.48115934085527806,0.6048205616470251,0.061724146750546556,0.8180672873202104,0.1406228700317858,0.06328688624788684
396,22.851,22.47,-1.46,0.48045205269954533,0.6035321003488373,0.0616363273183121,0.8177519955966157,0.14042478641110642,0.06343481961377362
397,22.913,22.52,-1.49,0.4797372451387179,0.602252637457466,0.06153396152685024,0.8174484249614026,0.1402211436923936,0.0635910098524143
398,22.995,22.58,-1.54,0.47901531692103755,0.6009824977998575,0.061417221024400975,0.8171568124926079,0.14001200442476544,0.06375575939362521
399,23.016,22.63,-1.49,0.4782866750396472,0.5997220043198007,0.06128629212363452,0.8168773919438955,0.13979743878488593,0.06392937094269967
400,23.078,22.69,-1.46,0.4775517344931647,0.5984714779229487,0.061141375667341936,0.8166103936860206,0.13957752461870296,0.0641121471495877
401,23.139,22.74,-1.5,0.4768109180326667,0.5972312373287033,0.06098268687842713,0.8163560446464713,0.1393523474779576,0.06430439026939348
402,23.2,22.8,-1.49,0.4760646558955283,0.5960015989282712,0.06081045519481151,0.8161145682469362,0.13912200065118263,0.06450640181457588
403,23.24,22.85,-1.43,0.4753133855265901,0.5947828766481961,0.06062492408995576,0.815886184338252,0.13888658518890676,0.06471848219928018
404,23.364,22.91,-1.47,0.47455755128715355,0.5935753818186852,0.060426350879723895,0.8156711091325216,0.13864620992278995,0.06494093037629131
405,23.384,22.96,-1.48,0.4737976041523351,0.5923794230460773,0.06021500651629977,0.8154695551321437,0.13840099147842352,0.06517404346717932
406,23.404,23.02,-1.4,0.4730340013973319,0.5911953060888286,0.05999117536983745,0.8152817310555162,0.13815105428153943,0.06541811638626542
407,23.445,23.07,-1.4,0.4722672062731624,0.5900233337364448,0.05975515499850285,0.8151078417591808,0.1378965305573845,0.06567344145905825
408,23.506,23.13,-1.45,0.4714976876724471,0.5888638056908335,0.05950725590754757,0.8149480881561465,0.13763756032302987,0.06594030803581048
409,23.568,23.18,-1.42,0.47072591978578965,0.5877170184496031,0.059247801298033226,0.8148026671301168,0.1373742913724037,0.0662190021008231
410,23.629,23.24,-1.42,0.4699523817493139,0.5865832651908823,0.05897712680579827,0.8146717714453741,0.13710687925385778,0.06650980587808303
411,23.67,23.29,-1.48,0.4691775572839171,0.5854628356592786,0.05869558023123519,0.8145555896521092,0.1368354872400924,0.06681299743380276
412,23.732,23.35,-1.47,0.46840193432678595,0.5843560160526438,0.058403521260412004,0.8144543059870885,0.13656028629026593,0.06712885027644731
413,23.792,23.4,-1.39,0.46762600465572807,0.5832630889093514,0.05810132117803095,0.8143681002696351,0.1362814550041112,0.06745763295484512
414,23.854,23.46,-1.41,0.4668502635068665,0.5821843329958019,0.057789362572676715,0.8142971477929913,0.13599917956787014,0.06779960865495809
415,23.895,23.51,-1.41,0.4660752091862651,0.5811200231938672,0.05746803903476558,0.8142416192111479,0.13571365369185398,0.06815503479582756
416,23.957,23.57,-1.33,0.46530134267606404,0.5800704303879741,0.057137754847561964,0.8142016804212391,0.13542507853945032,0.06852416262509388
417,24.019,23.62,-1.33,0.46452916723572113,0.5790358213515011,0.05679892467158719,0.8141774924416109,0.13513366264742632,0.06890723681432782
418,24.122,23.68,-1.38,0.4637591879989748,0.578016458632155,0.05645197322269983,0.8141692112856928,0.13483962183741874,0.06930449505427036
419,24.143,23.73,-1.34,0.4629919115671411,0.5770126004360113,0.05609733494407352,0.8141769878318826,0.13454317911854466,0.06971616764998947
420,24.185,23.79,-1.32,0.46222784559934393,0.576024500509963,0.05573545367225038,0.8142009676897669,0.13424456458110853,0.07014247711595081
421,24.247,23.84,-1.36,0.46146749840026347,0.5750524080223991,0.05536678229741919,0.8142412910631068,0.13394401528141087,0.07058363777109279
422,24.287,23.9,-1.39,0.46071137850594746,0.5740965674420486,0.05499178241804534,0.814298092610167,0.13364177511768524,0.07103985533415497
423,24.348,23.95,-1.36,0.4599599942681884,0.573157218415087,0.05461092398996395,0.8143715013020858,0.13333809469720284,0.07151132651964148
424,24.472,24.01,-1.42,0.45921385343791987,0.5722345956407555,0.05422468497004449,0.814461640280081,0.13303323119459468,0.07199823863487893
425,24.492,24.06,-1.46,0.4584734627480566,0.5713289287458507,0.0538335509545457,0.8145686267122854,0.13272744820143756,0.07250076917867081
426,24.512,24.12,-1.39,0.4577393274961896,0.5704404421584622,0.053438014812309864,0.8146925716509485,0.1324210155671401,0.07301908544206306
427,24.573,24.17,-1.39,0.4570119511275439,0.5695693549813099,0.05303857631300546,0.8148335798906119,0.13211420923114753,0.0735533441117269
428,24.614,24.23,-1.44,0.456291834818606,0.5687158808649885,0.05263574175069499,0.814991749827726,0.13180731104646828,0.07410369087648183
429,24.655,24.28,-1.4,0.45557947706182533,0.5678802278814057,0.05223002356304763,0.8151671733220962,0.13150060859452023,0.07467026003754716
430,24.718,24.34,-1.37,0.45487537325179617,0.5670625983976949,0.0518219399465287,0.8153599355605237,0.13119439499130603,0.07525317412322748
431,24.843,24.39,-1.4,0.4541800152733301,0.5662631889509242,0.05141201446789432,0.8155701149230461,0.130888968684943,0.07585254350891289
432,24.865,24.45,-1.39,0.45349389109182514,0.5654821901239707,0.05100077567229967,0.8157977828522531,0.1305846332445906,0.07646846604346832
433,24.885,24.5,-1.32,0.452817484346344,0.5647197864229858,0.050588756688308374,0.8160430037262121,0.1302816971408393,0.07710102668321545
434,24.927,24.56,-1.36,0.4521512739458277,0.5639761561568903,0.0501764948300845,0.8163058347355567,0.1299804735176493,0.07775029713473952
435,24.989,24.61,-1.41,0.4514957336688937,0.563251471319332,0.04976453119705472,0.8165863257652347,0.129681279955955,0.078416335507699
436,25.052,24.67,-1.38,0.45085133176768943,0.5625458974734978,0.0493534102713291,0.8168845192813288,0.12938443822908038,0.07909918597870227
437,25.114,24.72,-1.38,0.4502185305762917,0.5618595936401157,0.048943679513166964,0.817200450223281,0.12909027405013576,0.07979887846719548
438,25.217,24.78,-1.46,0.4495977861241525,0.5611927121889099,0.048535888954763545,0.8175341459017814,0.12879911681157502,0.08051542832423898
439,25.239,24.83,-1.42,0.4489895477551015,0.5605453987337167,0.048130590792609035,0.8178856259025624,0.128511299317093,0.08124883603503834
440,25.26,24.89,-1.38,0.44839425775241315,0.5599177920314274,0.04772833897864019,0.8182549019963848,0.12822715750603741,0.08199908693610132
441,25.322,24.94,-1.42,0.44781235097045635,0.5593100238848939,0.04732968881037441,0.8186419780555713,0.12794703017050474,0.08276615094791459
442,25.383,25.0,-1.37,0.44724425447345306,0.5587222190499253,0.04693519652018147,0.8190468499775203,0.1276712586652887,0.08354998232406126
443,25.446,25.05,-1.31,0.4466903871818898,0.5581544951464846,0.04654541886381648,0.8194695056156968,0.1274001866108667,0.08435051941767331
444,25.508,25.11,-1.35,0.44615115952714457,0.5576069625741711,0.04616091270832311,0.8199099247185735,0.12713415958963822,0.08516768446598702
445,25.571,25.16,-1.38,0.4456269731148689,0.5570797244320491,0.04578223461941385,0.8203680788769165,0.12687352483567202,0.08600138339354271
446,25.591,25.22,-1.33,0.4451182203976205,0.5565728764428821,0.04540994044843026,0.8208439314797092,0.12661863091826456,0.08685150563428513
447,25.653,25.27,-1.34,0.4446252843571859,0.5560865068818357,0.04504458491898525,0.8213374376789279,0.12636982741965333,0.087717923972575
448,25.714,25.33,-1.41,0.4441485381969843,0.5556206965097266,0.04468672121339626,0.8218485443633351,0.1261274646072561,0.088600494403001
449,25.775,25.38,-1.41,0.4436883450449212,0.5551755185109235,0.04433690055904357,0.8223771901414293,0.12589189310082663,0.08949905600886698
450,25.857,25.44,-1.39,0.4432450576670364,0.554751038436012,0.04399567181487591,0.822923305333658,0.1256634635349292,0.09041343085926828
451,25.877,25.49,-1.45,0.44281901819228864,0.5543473141493414,0.043663581058461194,0.8234868119739094,0.12544252621713597,0.09134342392474082
452,25.939,25.55,-1.48,0.442410557848808,0.5539643957815668,0.04334117117418729,0.824067623820179,0.12522943078234164,0.09228882301153835
453,26.001,25.6,-1.42,0.44201999671192777,0.5536023256872943,0.04302898144336857,0.8246656463741925,0.12502452584357604,0.09324939871460154
454,26.062,25.66,-1.44,0.44164764346428037,0.553261138407925,0.04272754713707598,0.8252807769096862,0.12482815863968218,0.09422490438921541
455,26.083,25.71,-1.48,0.4412937951682114,0.552940860639784,0.04243739911249561,0.8259129045089694,0.12464067468021557,0.09521507614124385
456,26.145,25.77,-1.41,0.44095873705072713,0.5526415112076158,0.0421590634135502,0.826561910107354,0.12446241738791995,0.09621963283571865
457,26.206,25.82,-1.4,0.44064274230116424,0.5523631010435309,0.041893060876398304,0.8272276665450591,0.12429372773914354,0.09723827612349142
458,26.31,25.88,-1.45,0.4403460718817446,0.5521056331714772,0.04163990674028262,0.8279100386262639,0.12413494390257773,0.09827069048568308
459,26.33,25.93,-1.41,0.44006897435115316,0.5518691026973241,0.041400110264074044,0.8286088831850843,0.12398640087672165,0.09931654329575705
460,26.372,25.99,-1.38,0.43981168570124574,0.5516534968046729,0.04117417434878853,0.8293240491583401,0.12384843012650378,0.10037548489912708
461,26.435,26.04,-1.44,0.43957442920697715,0.55145879475656,0.04096259516633264,0.830055377665045,0.12372135921952052,0.10144714871026098
462,26.476,26.1,-1.46,0.43935741528961664,0.5512849679032779,0.04076586179472298,0.83080270209259,0.12360551146237611,0.10253115132726316
463,26.538,26.15,-1.44,0.43916084139329997,0.5511319796965828,0.04058445586000513,0.8315658481896073,0.1235012055376308,0.10362709266389583
464,26.599,26.21,-1.49,0.43898489187494855,0.5509997857105845,0.040418851185076224,0.8323446341654701,0.12340875514187533,0.1047345560989333
465,26.68,26.26,-1.56,0.43882973790756324,0.5508883336696095,0.04026951344559322,0.8331388707963164,0.12332846862544919,0.10585310864266645
466,26.7,26.32,-1.53,0.4386955373968777,0.5507975634832992,0.04013689983312235,0.8339483615374385,0.12326064863430752,0.10698230112029103
467,26.783,26.37,-1.52,0.43858243491134985,0.5507274072891355,0.04002145872566668,0.8347729026418196,0.12320559175451987,0.10812166837183365
468,26.823,26.43,-1.57,0.43849056162548744,0.5506777895024417,0.039923629365699105,0.8356122832845897,0.123163588159855,0.10927072946822518
469,26.865,26.48,-1.55,0.43842003527654266,0.5506486268737695,0.03984384154581635,0.8364662856931929,0.12313492126287774,0.11042898794311785
470,26.927,26.54,-1.49,0.43837096013463567,0.5506398285534617,0.03978251530212263,0.8373346852831353,0.12311986736996833,0.11159593204005522
471,26.969,26.59,-1.55,0.43834342698639195,0.550651296163143,0.03974006061545888,0.8382172507992474,0.1231186953406689,0.11277103497467082
472,27.053,26.65,-1.56,0.4383375131321775,0.5506829238738709,0.039716877120600576,0.8391137444624467,0.12313166625176626,0.11395375521170346
473,27.074,26.7,-1.5,0.43835328239700977,0.5507345984907037,0.039713353823540846,0.8400239221220215,0.12315903306652953,0.11514353675670606
474,27.157,26.76,-1.51,0.43839078515519014,0.5508061995434737,0.03972986882696067,0.8409475334134551,0.12320104030953331,0.11633980946236454
475,27.199,26.81,-1.57,0.43845005836866485,0.5508975993835938,0.039766789063976155,0.8418843219217583,0.12325792374750781,0.11754198934935658
476,27.241,26.87,-1.54,0.4385311256390733,0.5510086632867658,0.03982447004025221,0.8428340253502187,0.12332991007666842,0.11874947894168311
477,27.302,26.92,-1.59,0.4386339972734116,0.551139249561458,0.03990325558459338,0.8437963756944207,0.12341721661698889,0.11996166761642024
478,27.429,26.98,-1.65,0.43875867036321237,0.5512892096630233,0.040003477608158554,0.8447710994213534,0.12352005101388197,0.1211779319679214
479,27.449,27.03,-1.66,0.4389051288771212,0.5514583883133231,0.04012545587246831,0.8457579176534379,0.12363861094773554,0.12239763618664205
480,27.49,27.09,-1.66,0.43907334376672796,0.5516466236257335,0.04026949776637377,0.8467565463573621,0.12377308385172191,0.12362013245289877
481,27.553,27.14,-1.7,0.4392632730854845,0.5518537472354421,0.040435898092141626,0.8477666965376657,0.12392364663825534,0.12484476134596605
482,27.573,27.2,-1.7,0.4394748621205036,0.5520795844349689,0.0406249388607857,0.848788074435063,0.12409046543442391,0.12607085226895237
483,27.638,27.25,-1.62,0.4397080435369904,0.5523239543148847,0.040836889096747514,0.849820381729501,0.12427369532667985,0.12729772388986457
484,27.694,27.31,-1.62,0.43996273753500875,0.552586669909705,0.0410720046520137,0.8508633157479212,0.12447348011503873,0.1285246845991814
485,27.817,27.36,-1.65,0.44023885201825685,0.552867538348911,0.04133052802976474,0.8519165696766204,0.12468995207702402,0.1297510329841442
486,27.838,27.42,-1.6,0.4405362827745045,0.553166361013033,0.04161268821767802,0.8529798327780458,0.12492323174160075,0.13097605831984072
487,27.859,27.47,-1.59,0.44085491366733937,0.5534829336946907,0.041918700531059346,0.8540527906118082,0.12517342767336484,0.13219904107702554
488,27.921,27.53,-1.63,0.4411946168388789,0.5538170467644752,0.042248766466035606,0.85513512525968,0.12544063626727972,0.1334192534465322
489,27.984,27.58,-1.64,0.4415552529231187,0.554168485341526,0.04260307356308502,0.8562265155543384,0.12572494155426828,0.13463595988009813
490,28.067,27.64,-1.6,0.4419366712696063,0.5545370294686568,0.04298179528121157,0.8573266373116313,0.12602641501797973,0.13584841764740646
491,28.088,27.69,-1.66,0.4423387101771421,0.5549224542918564,0.043385090883100955,0.8584351635661475,0.12634511542305346,0.13705587740915473
492,28.151,27.75,-1.71,0.44276119713721285,0.555324530243987,0.04381310533162316,0.8595517648098533,0.1266810886551936,0.13825758380597836
493,28.215,27.8,-1.67,0.44320394908685007,0.5557430232324868,0.044265969198063956,0.8606761092335259,0.12703436757335454,0.1394527760630465
494,28.235,27.86,-1.7,0.4436667726705814,0.5561776948308762,0.044743798582475,0.861807862970661,0.127404971874313,0.14064068861009885
495,28.296,27.91,-1.73,0.44414946451111487,0.5566283024738375,0.04524669504652484,0.8629466903434574,0.12779290796986653,0.1418205517166317
496,28.358,27.97,-1.68,0.44465181148836286,0.5570945996556105,0.04577474555920642,0.8640922541104268,0.12819816887686122,0.14299159214187943
497,28.399,28.02,-1.65,0.44517359102639786,0.5575763361313947,0.046328022455715094,0.8652442157151518,0.128620734120216,0.14415303379916505
498,28.523,28.08,-1.69,0.4457145713879279,0.5580732581213951,0.04690658340975957,0.8664022355357094,0.12906056964908774,0.14530409843414685
499,28.543,28.13,-1.69,0.44627451197589957,0.5585851085170822,0.04751047141951062,0.8675659731343179,0.12951762776631104,0.1464440063164728
500,28.584,28.19,-1.64,0.44685316364186345,0.5591116270891963,0.04813971480735146,0.8687350875068091,0.12999184707124883,0.14757197694435073
501,28.645,28.24,-1.68,0.44745026900076984,0.5596525506969792,0.04879432723357503,0.8699092373315379,0.13048315241619238,0.14868722976155468
502,28.706,28.3,-1.7,0.44806556275187714,0.5602076134980994,0.04947430772415416,0.871088081217318,0.13099145487644714,0.14978898488642417
503,28.727,28.35,-1.65,0.4486987720054553,0.5607765471587288,0.05017964071267701,0.8722712779499272,0.13151665173423605,0.15087646385244735
504,28.789,28.41,-1.66,0.4493496166149565,0.5613590810632341,0.05091029609650875,0.8734584867366795,0.13205862647654262,0.1519488903600446
505,28.891,28.46,-1.72,0.45001780951430775,0.5619549425229372,0.051666229307215095,0.8746493674484969,0.13261724880700684,0.15300549103919164
506,28.913,28.52,-1.71,0.4507030570599667,0.5625638569833884,0.05244738139525568,0.8758435808589022,0.13319237467197131,0.1540454962225186
507,28.954,28.57,-1.72,0.4514050593773644,0.5631855482295712,0.053253679128927325,0.8770407888793659,0.1337838463007604,0.15506814072847605
508,29.015,28.63,-1.77,0.452123510711358,0.5638197385884416,0.05408503510751597,0.8782406547904699,0.13439149226024963,0.1560726646541163
509,29.076,28.68,-1.76,0.4528580997803081,0.5644661491281886,0.05494134788859353,0.8794428434683892,0.13501512752374348,0.15705831417701518
510,29.138,28.74,-1.7,0.4536085101333814,0.5651244998536009,0.05582250212936494,0.880647021606244,0.13565455355413603,0.1580243423658183
511,29.2,28.79,-1.72,0.4543744205106632,0.5657945098969087,0.05672836874193314,0.8818528579299132,0.136309558401283,0.15897000999880043
512,29.241,28.85,-1.72,0.45515550520564635,0.5664758977034582,0.05765880506230114,0.8830600234079339,0.13697991681347874,0.15989458638969287
513,29.301,28.9,-1.66,0.45595143442965147,0.5671683812115517,0.058613655032870166,0.884268191455106,0.13766539036291242,0.16079735021986277
514,29.383,28.96,-1.64,0.4567618746777267,0.5678716780257643,0.05959274939811998,0.8854770381294231,0.13836572758497323,0.16167759037575483
515,29.404,29.01,-1.68,0.45758648909556254,0.5685855055830479,0.06059590591307617,0.88668624232196,0.13908066413127565,0.16253460679036952
516,29.445,29.07,-1.64,0.45842493784692107,0.5693095813109895,0.06162292956409044,0.8878954859394149,0.1398099229362847,0.1633677112874619
517,29.506,29.12,-1.61,0.45927687848103116,0.5700436227777247,0.06267361280141101,0.8891044540791001,0.14055321439743151,0.16417622842709734
518,29.547,29.18,-1.65,0.46014196629934656,0.5707873478331902,0.06374773578300576,0.8903128351962489,0.14131023656861744,0.16495949635121043
519,29.609,29.23,-1.66,0.4610198547210166,0.5715404747415994,0.0648450666291056,0.8915203212635655,0.14208067536700425,0.16571686762786117
520,29.671,29.29,-1.62,0.4619101956463911,0.5723027223051804,0.0659653616869436,0.8927266079229565,0.14286420479298378,0.1664477100928935
521,29.732,29.34,-1.69,0.46281263981787873,0.5730738099792811,0.06710836580517551,0.8939313946293717,0.14366048716320862,0.16715140768763237
522,29.794,29.4,-1.72,0.4637268371774965,0.5738534579789559,0.068273812617466,0.8951343847866415,0.1444691733565439,0.16782736129113263
523,29.835,29.45,-1.66,0.46465243722046473,0.5746413873771166,0.06946142483471043,0.8963352858751534,0.14528990307277126,0.16847498954532428
524,29.897,29.51,-1.65,0.4655890893442215,0.575437320194291,0.07067091454534467,0.8975338095711491,0.1461223051038362,0.1690937296712231
525,29.999,29.56,-1.69,0.46653644319225407,0.5762409794800103,0.07190198352317248,0.8987296718573963,0.14696599761739046,0.169683038274243
526,30.019,29.62,-1.64,0.46749414899216135,0.5770520893858468,0.07315432354211264,0.899922593124997,0.14782058845234314,0.17024239213659909
527,30.062,29.67,-1.63,0.4684618578873878,0.5778703752301717,0.07442761669725852,0.9011122982661669,0.1486856754261153,0.17077128899482089
528,30.121,29.73,-1.65,0.4694392222621038,0.5786955635547487,0.0757215357316659,0.9022985167578594,0.14956084665327538,0.17126924830051538
529,30.183,29.78,-1.65,0.4704258960587421,0.5795273821733419,0.07703574436831648,0.903480982736162,0.15044568087522028,0.17173581196270613
530,30.223,29.84,-1.6,0.47142153508772583,0.580365560212587,0.0783698976467246,0.9046594350614378,0.15133974780055265,0.1721705450702712
531,30.285,29.89,-1.63,0.47242579732894124,0.581209828145435,0.07972364226365977,0.905833617374235,0.15224260845579027,0.1725730365931665
532,30.366,29.95,-1.65,0.47343834322452594,0.5820599178175168,0.08109661691745294,0.9070032781420071,0.15315381554602775,0.17294290006122146
533,30.387,30.0,-1.61,0.47445883596256155,0.5829155624667985,0.0824884526553419,0.9081681706967065,0.1540729138251541,0.17327977421931348
534,30.429,30.06,-1.62,0.4754869417512777,0.5837764967369177,0.08389877322331135,0.909328053263296,0.15499944047521225,0.17358332365769202
535,30.491,30.11,-1.66,0.4765223300833863,0.5846424566846153,0.0853271954179007,0.9104826889792036,0.15593292549445995,0.17385323941619707
536,30.553,30.17,-1.62,0.477564673990171,0.585513179781726,0.08677332943947824,0.9116318459047287,0.1568728920936615,0.17408923956111075
537,30.594,30.22,-1.57,0.47861365028495945,0.5863884049122237,0.08823677924651165,0.9127752970244165,0.1578188571001083,0.17429106973338895
538,30.719,30.28,-1.59,0.47966893979562003,0.587267872364859,0.08971714291039024,0.9139128202394345,0.1587703313688346,0.17445850366704263
539,30.739,30.33,-1.58,0.4807302275857442,0.5881513238219335,0.09121401297036197,0.915044198351038,0.1597268202004732,0.17459134367648718
540,30.78,30.39,-1.5,0.48179720316420693,0.5890385023447555,0.09272697678813291,0.9161692190352805,0.16068782376518084,0.1746894211117177
541,30.84,30.44,-1.5,0.4828695606828345,0.589929152356304,0.09425561690165896,0.9172876748091778,0.16165283753206183,0.17475259678017493
542,30.902,30.5,-1.53,0.48394699912193795,0.5908230196215962,0.09579951137763741,0.9183993629885691,0.1626213527035213,0.17478076133413564
543,30.944,30.55,-1.48,0.4850292224635033,0.5917198512262479,0.09735823416218724,0.9195040856379487,0.16359285665398562,0.1747738356223967
544,31.005,30.61,-1.47,0.4861159398518534,0.5926193955536855,0.09893135542920842,0.9206016495125667,0.16456683337243555,0.1747317710049585
545,31.088,30.66,-1.53,0.48720686574163397,0.5935214022614402,0.10051844192593792,0.9216918659930866,0.1655427639081974,0.17465454962943935
546,31.13,30.72,-1.51,0.4883017200330062,0.5944256222569366,0.1021190573152577,0.9227745510130985,0.16652012681942668,0.1745421846680759
547,31.171,30.77,-1.48,0.4894002281939703,0.5953318076731694,0.10373276251434699,0.9238495249797994,0.16749839862370197,0.17439472051434435
548,31.232,30.83,-1.41,0.4905021213697823,0.5962397118446635,0.10535911602930141,0.924916612688186,0.16847705425011886,0.1742122329384331
549,31.293,30.88,-1.41,0.4916071364794604,0.5971490892841035,0.10699767428534623,0.9259756432291515,0.1694555674922479,0.17399482920097162
550,31.314,30.94,-1.31,0.49271501629940495,0.5980596956600154,0.10864799195224958,0.9270264498919267,0.1704334114613027,0.1737426481245076
551,31.375,30.99,-1.3,0.4938255095341857,0.5989712877758788,0.11030962226452341,0.928068870061323,0.17141005903887868,0.1734558601222261
552,31.437,31.05,-1.33,0.4949383708745835,0.5998836235510298,0.11198211733599762,0.9291027451102065,0.17238498332865712,0.17313466718339646
553,31.499,31.1,-1.24,0.4960533610430106,0.6007964620037074,0.11366502846836085,0.9301279202876002,0.1733576581065138,0.17277930281507686
554,31.562,31.16,-1.21,0.49717024682647604,0.6017095632365821,0.11535790645328516,0.9311442446027899,0.17432755826851246,0.17239003193972172
555,31.603,31.21,-1.09,0.49828880109731755,0.6026226884250666,0.1170603018677941,0.9321515707057869,0.17529416027629538,0.17196715074853994
556,31.644,31.27,-1.08,0.4994088028219792,0.6035355998086794,0.11877176536258303,0.9331497547645116,0.17625694259941752,0.17151098651069138
557,31.705,31.32,-1.04,0.5005300370581606,0.6044480606856906,0.12049184794305381,0.9341386563390713,0.17721538615422672,0.17102189733859458
558,31.768,31.38,-1.19,0.5016522949407186,0.6053598354112406,0.12222010124287722,0.9351181382535083,0.1781689747389683,0.1705002719097036
559,31.809,31.43,-1.21,0.5027753736567405,0.6062706893990691,0.12395607778992744,0.9360880664653888,0.17911719546486848,0.169946529145117
560,31.872,31.49,-1.17,0.5038990764102499,0.6071803891269043,0.12569933126443866,0.937048309933617,0.18005953918298837,0.16936111784536906
561,31.933,31.54,-1.16,0.5050232123770484,0.6080887021454423,0.12744941674923269,0.9379987404848478,0.18099550090662184,0.1687445162837768
562,31.995,31.6,-1.19,0.5061475966502198,0.6089953970907221,0.1292058909718687,0.9389392326788224,0.18192458022895294,0.16809723175778782
563,32.035,31.65,-1.13,0.5072720501768145,0.6099002436996497,0.1309683125385646,0.9398696636729015,0.18284628173563605,0.16741980009885715
564,32.097,31.71,-1.09,0.5083963996861712,0.6108030128285042,0.13273624215974075,0.9407899130860315,0.18376011541193268,0.16671278514145757
565,32.179,31.76,-1.12,0.5095204776102534,0.6117034764744455,0.1345092428670446,0.9416998628623842,0.1846655970440377,0.16597677815195988
566,32.2,31.82,-1.09,0.5106441219963157,0.612601407800215,0.13628688022172344,0.9425993971349687,0.1855622486142351,0.16521239721829484
567,32.282,31.87,-1.03,0.5117671764121953,0.6134965811623327,0.13806872251422636,0.9434884020896075,0.18644959868954242,0.1644202866014847
568,32.302,31.93,-1.06,0.512889489844569,0.6143887721430933,0.1398543409549419,0.9443667658297468,0.18732718280352076,0.16360111605027164
569,32.364,31.98,-1.05,0.5140109165905603,0.6152777575866119,0.14164330985599902,0.9452343782426216,0.18819454383094678,0.16275558008018326
570,32.425,32.04,-1.0,0.5151313161431098,0.6161633156391052,0.14343520680406602,0.946091130867324,0.18905123235505747,0.16188439721843426
571,32.467,32.09,-1.01,0.5162505530705024,0.6170452257935175,0.14522961282409094,0.9469369167652821,0.18989680702709674,0.16098830921606883
572,32.569,32.15,-1.09,0.5173684968903998,0.6179232689385402,0.14702611253393974,0.9477716303935959,0.1907308349179024,0.16006808022872754
573,32.59,32.2,-1.05,0.5184850219386746,0.6187972274120158,0.1488242942899,0.9485951674816165,0.19155289186128185,0.15912449596739978
574,32.631,32.26,-1.02,0.5196000072333276,0.6196668850586603,0.15062375032303366,0.9494074249111203,0.19236256278891875,0.15815836282052723
575,32.693,32.31,-1.04,0.520713336333758,0.6205320272919678,0.15242407686639511,0.9502083006003897,0.19315944205653474,0.15717050694888882
576,32.754,32.37,-1.02,0.5218248971956742,0.6213924411601054,0.15422487427315587,0.9509976933924986,0.19394313376100514,0.15616177335479245
577,32.815,32.42,-0.97,0.5229345820219301,0.6222479154155575,0.15602574712569542,0.9517755029481072,0.19471325204810858,0.15513302492716155
578,32.875,32.48,-0.98,0.524042287109588,0.6230982405882395,0.15782630433573627,0.9525416296430679,0.1954694214105869,0.15408514146411612
579,32.957,32.53,-0.99,0.5251479126935077,0.6239432090617713,0.15962615923561738,0.9532959744711126,0.1962112769761958,0.15301901867463213
580,32.978,32.59,-0.93,0.5262513627867694,0.6247826151525638,0.16142492966080668,0.9540384389518657,0.19693846478543972,0.1519355671608155
581,33.019,32.64,-0.91,0.5273525450182268,0.6256162551913431,0.1632222380237423,0.9547689250444462,0.19765064205869798,0.1508357113822702
582,33.081,32.7,-0.94,0.5284513704674906,0.6264439276066981,0.16501771137905888,0.9554873350670213,0.1983474774524624,0.14972038860401674
583,33.142,32.75,-0.91,0.5295477534976345,0.6272654330102186,0.1668109814802185,0.956193571622828,0.19902865130442074,0.1485905478294233
584,33.203,32.81,-0.9,0.5306416115859192,0.6280805742827735,0.16860168482755566,0.9568875375333008,0.19969385586713712,0.1474471487196217
585,33.305,32.86,-0.94,0.5317328651528282,0.6288891566614765,0.17038946270777597,0.9575691357789742,0.2003427955300921,0.14629116050090166
586,33.326,32.92,-0.91,0.5328214373897031,0.6296909878269066,0.17217396122498738,0.9582382694488139,0.20097518702984815,0.14512356086162245
587,33.367,32.97,-0.83,0.5339072540852424,0.6304858779901871,0.1739548313233749,0.9588948416986168,0.2015907596481026,0.14394533484021085
588,33.427,33.03,-0.84,0.5349902434511188,0.631273639979558,0.17573172880165921,0.9595387557190732,0.20218925539738342,0.14275747370579978
589,33.49,33.08,-0.84,0.5360703359469505,0.6320540893261007,0.1775043143194971,0.9601699147140335,0.20277042919414476,0.1415609738329945
590,33.572,33.14,-0.79,0.5371474641048549,0.6328270443482907,0.1792722533959805,0.9607882218894668,0.20333404901903523,0.1403568355721351
591,33.592,33.19,-0.76,0.5382215623538119,0.6335923262350744,0.1810352164004128,0.9613935804535222,0.2038798960641402,0.13914606211630962
592,33.654,33.25,-0.8,0.5392925668440759,0.6343497591271706,0.18279287853561202,0.9619858936279457,0.20440776486702936,0.13792965836633725
593,33.675,33.3,-0.75,0.5403604152718852,0.6350991701963248,0.18454491981411678,0.9625650646709197,0.20491746343147077,0.13670862979499288
594,33.756,33.36,-0.71,0.5414250467047235,0.6358403897222741,0.18629102502781927,0.9631309969112104,0.20540881333470065,0.1354839813118573
595,33.798,33.41,-0.75,0.5424864014073796,0.636573251167248,0.18803088371166468,0.9636835937934168,0.20588164982116433,0.13425671613032825
596,33.859,33.47,-0.75,0.5435444206690323,0.6372975912478871,0.18976419010211087,0.9642227589340946,0.2063358218826646,0.13302783463848541
597,33.9,33.52,-0.71,0.5445990466315742,0.6380132500045459,0.19149064309104602,0.9647483961885399,0.20677119232487257,0.1317983332756007
598,33.961,33.58,-0.74,0.5456502221193614,0.6387200708680046,0.19320994617584217,0.9652604097280124,0.20718763782017022,0.13056920341610856
599,34.022,33.63,-0.76,0.5466978904705503,0.6394179007236824,0.19492180740616896,0.9657587041271386,0.2075850489467995,0.12934143026281497
600,34.084,33.69,-0.71,0.5477419953701401,0.6401065899734842,0.19662593932812214,0.9662431844612096,0.2079633302142928,0.1281159917510447
601,34.126,33.74,-0.68,0.5487824806848087,0.6407859925954222,0.19832205892615645,0.966713756413029,0.20832240007516106,0.12689385746533574
602,34.21,33.8,-0.71,0.5498192902996131,0.6414559662011444,0.20000988756327467,0.9671703263889262,0.20866219092281352,0.12567598757026616
603,34.231,33.85,-0.69,0.5508523679566137,0.642116372091504,0.20168915091989612,0.9676128016435616,0.20898264907569325,0.12446333175707053
604,34.293,33.91,-0.61,0.5518816570954764,0.642767075310342,0.20335957893180864,0.9680410904132103,0.2092837347476252,0.12325682820784753
605,34.395,33.96,-0.65,0.5529071006960871,0.6434079446966927,0.20502090572760817,0.9684551020572958,0.2095654220043964,0.12205740257932539
606,34.416,34.02,-0.64,0.5539286411232089,0.6440388529356803,0.20667286956602615,0.9688547472080017,0.20982769870660978,0.12086596700825956
607,34.458,34.07,-0.56,0.5549462199731898,0.6446596766083874,0.20831521277352405,0.9692399379278589,0.2100705664388831,0.11968341914049728
608,34.5,34.13,-0.6,0.5559597779227334,0.645270296240977,0.20994768168248984,0.969610587875226,0.21029404042550112,0.1185106411855731
609,34.561,34.18,-0.63,0.5569692545797672,0.6458705963532999,0.21157002657030186,0.9699666124775892,0.21049814943265815,0.11734849899849281
610,34.624,34.24,-0.63,0.5579745883364877,0.646460465507152,0.21318200159945117,0.9703079291125775,0.21068293565746246,0.11619784119017934
611,34.664,34.29,-0.62,0.5589757162247566,0.6470397963542193,0.21478336475887153,0.970634457296545,0.21084845460389257,0.11505949826790762
612,34.747,34.35,-0.66,0.5599725737741358,0.6476084856836205,0.21637387780661832,0.9709461188804855,0.21099477494590083,0.11393428180696785
613,34.789,34.4,-0.63,0.5609650948729239,0.6481664344688682,0.21795330621404393,0.9712428382529897,0.21112197837784835,0.1128229836547599
614,34.851,34.46,-0.51,0.5619532116325817,0.6487135479140438,0.2195214191116211,0.9715245425499115,0.2112301594524412,0.11172637516851142
615,34.892,34.51,-0.54,0.5629368542559183,0.6492497354989993,0.22107798923657745,0.9717911618703694,0.21131942540633414,0.11064520648779644
616,34.954,34.57,-0.54,0.5639159509093838,0.6497749110234173,0.22262279288250447,0.9720426294986532,0.21138989597358404,0.10958020584293485
617,35.015,34.62,-0.48,0.5648904275997912,0.6502889926495774,0.22415560985109445,0.9722788821315482,0.21144170318718158,0.10853207890008623
618,35.078,34.68,-0.47,0.5658602080557776,0.6507919029436782,0.2256762234061482,0.972499860110516,0.21147499116894874,0.10750150814347678
619,35.119,34.73,-0.51,0.5668252136142938,0.6512835689155718,0.2271844202299888,0.9727055076580723,0.21148991590814584,0.1064891522948795
620,35.181,34.79,-0.48,0.5677853631124037,0.6517639220567506,0.22867999038240533,0.9728957731176382,0.21148664502917724,0.10549564577028459
621,35.221,34.84,-0.47,0.5687405727846537,0.6522328983764376,0.230162727262253,0.9730706091960953,0.2114653575488225,0.10452159817362587
622,35.282,34.9,-0.52,0.569690756166263,0.6526904384356251,0.23163242757184502,0.9732299732082648,0.2114262436234486,0.10356759382743949
623,35.344,34.95,-0.52,0.5706358240023729,0.6531364873789377,0.2330888912842798,0.9733738273225749,0.2113695042866808,0.10263419134038577
624,35.405,35.01,-0.5,0.5715756841635837,0.6535709949642179,0.234531921613848,0.973502138807246,0.21129535117802264,0.101721923211605
625,35.508,35.06,-0.55,0.5725102415679996,0.6539939155897477,0.2359613249896612,0.9736148802763791,0.21120400626292282,0.10083129547187067
626,35.529,35.12,-0.55,0.5734393981099901,0.6544052083190254,0.2373769110326167,0.9737120299353776,0.21109570154478335,0.0999627873614364
627,35.55,35.17,-0.49,0.5743630525958531,0.6548048369030173,0.23877849253576233,0.9737935718251609,0.21097067876939865,0.09911685104433716
628,35.611,35.23,-0.49,0.57528110068654,0.6551927697998279,0.24016588544806122,0.9738594960646213,0.21082918912231002,0.09829391135871851
629,35.673,35.28,-0.53,0.5761934348475849,0.6555689801917365,0.24153890886151505,0.9739097990907143,0.21067149291956416,0.09749436560258787
630,35.715,35.34,-0.48,0.5770999443063681,0.6559334459995514,0.24289738500157926,0.973944483895498,0.2104978592923805,0.09671858335424333
631,35.777,35.39,-0.48,0.5780005150168658,0.6562861498942287,0.2442411392208156,0.9739635602593492,0.21030856586625807,0.09596690632656243
632,35.859,35.45,-0.52,0.5788950296320586,0.656627079305692,0.2455699999957567,0.973967044979529,0.21010389843508046,0.09523964825434278
633,35.88,35.5,-0.54,0.5797833674842129,0.656956226428794,0.246883798926997,0.9739549620932435,0.20988415063079977,0.0945370948139558
634,35.961,35.56,-0.51,0.5806654045732743,0.657273588226376,0.2481823707425961,0.973927343094316,0.2096496235892985,0.09385950357465526
635,36.004,35.61,-0.56,0.5815410135636471,0.6575791664293908,0.24946555330501105,0.9738842271424928,0.20940062561303904,0.09320710398095565
636,36.066,35.67,-0.6,0.5824100637896459,0.6578729675340739,0.25073318762192537,0.9738256612642375,0.20913747183110568,0.09258009736555098
637,36.126,35.72,-0.58,0.5832724212699165,0.6581550027961689,0.2519851178614596,0.973751700543694,0.20886048385723638,0.09197865699223394
638,36.168,35.78,-0.6,0.5841279487311013,0.6584252882222459,0.25322119137229837,0.973662408302325,0.20856998944642635,0.09140292812818375
639,36.229,35.83,-0.66,0.5849765056409845,0.658683844558191,0.2544412587092879,0.9735578562655741,0.20826632215066657,0.09085302814485932
640,36.29,35.89,-0.64,0.5858179482512922,0.658930697274974,0.2556451736650584,0.973438124714728,0.2079498209743578,0.09032904664659727
641,36.332,35.94,-0.63,0.586652129650252,0.659165876551823,0.2568327933082569,0.9733033026220065,0.20762083002991727,0.0898310456259165
642,36.372,36.0,-0.69,0.5874788998249626,0.65938941725695,0.25800397802902003,0.9731534877667799,0.2072796981940691,0.08935905964453147
643,36.434,36.05,-0.69,0.5882981057335598,0.6596013589260123,0.25915859159237253,0.9729887868307434,0.20692677876528962,0.08891309603919266
644,36.495,36.11,-0.65,0.5891095913871235,0.6598017457385539,0.2602965012002887,0.9728093154698607,0.20656242912285772,0.08849313515164371
645,36.537,36.16,-0.69,0.5899131979412371,0.6599906264927208,0.2614175775631691,0.9726151983609962,0.2061870103879488,0.08809913058215542
646,36.599,36.22,-0.72,0.5907087637971087,0.660168054578595,0.26252169498136957,0.9724065692215971,0.2058008870871933,0.08773100946620296
647,36.66,36.27,-0.69,0.5914961247121548,0.6603340879504928,0.263608731437116,0.9721835708017088,0.20540442681911317,0.0873886727738465
648,36.702,36.33,-0.71,0.5922751139199502,0.6604887890985771,0.26467856869674905,0.9719463548487628,0.2049979999238422,0.08707199563127457
649,36.762,36.38,-0.8,0.5930455622594417,0.6606322250201069,0.26573109242291265,0.971695082046482,0.20458197915652446,0.0867808276638527
650,36.823,36.44,-0.79,0.5938072983133155,0.6607644671906202,0.26676619229611487,0.9714299219297048,0.20415673936476786,0.08651499335992834
651,36.866,36.49,-0.81,0.5945601485553943,0.6608855915353178,0.26778376214501254,0.9711510527770593,0.20372265717050397,0.0862742924546014
652,36.971,36.55,-0.86,0.5953039375069344,0.6609956784008795,0.2687837000847449,0.970858661483432,0.20328011065656412,0.08605850033270793
653,36.992,36.6,-0.85,0.5960384879016745,0.6610948125279226,0.26976590866262656,0.9705529434141608,0.20282947905823082,0.0858673684503575
654,37.033,36.66,-0.81,0.5967636208594728,0.661183083024294,0.27073029501049733,0.9702341022428739,0.20237114245997048,0.0857006247744382
655,37.096,36.71,-0.85,0.5974791560683442,0.661260583339366,0.271676771003018,0.9699023497748375,0.2019054814975085,0.08555797423952208
656,37.157,36.77,-0.86,0.5981849119746955,0.6613274112394605,0.27260525342119035,0.9695579057575809,0.20143287706537658,0.08543909922158474
657,37.198,36.82,-0.81,0.5988807059815284,0.6613836687844793,0.27351566412036277,0.9692009976804359,0.20095371003004273,0.0853436600279003
658,37.26,36.88,-0.81,0.5995663546543586,0.6614294623057626,0.2744079302019687,0.9688318605644758,0.20046836094872908,0.08527129540239405
659,37.322,36.93,-0.86,0.600241673934566,0.6614649023851259,0.27528198418823724,0.9684507367442065,0.19997720979401526,0.08522162304566032
660,37.404,36.99,-0.84,0.6009064793598705,0.6614901038349574,0.27613776419910024,0.9680578756422759,0.1994806356843273,0.08519424014877924
661,37.425,37.04,-0.83,0.601560586291601,0.6615051856791834,0.2769752141305184,0.9676535335384304,0.1989790166204123,0.08518872394002693
662,37.486,37.1,-0.89,0.6022038101484031,0.6615102711348603,0.2777942838334614,0.9672379733339213,0.1984727292278933,0.08520463224360296
663,37.526,37.15,-0.92,0.6028359666459998,0.6615054875941275,0.27859492929279744,0.9668114643125134,0.19796214850598537,0.08524150404958297
664,37.609,37.21,-0.91,0.603456872042576,0.6614909666062603,0.2793771128053779,0.966374281899162,0.19744764758243083,0.08529886009436279
665,37.691,37.26,-0.95,0.6040663433893251,0.6614668438595585,0.280140803156629,0.9659267074172668,0.19692959747468206,0.0853762034508659
666,37.711,37.32,-0.98,0.6046641987856498,0.6614332591627958,0.28088597579499064,0.9654690278452287,0.19640836685731863,0.08547302012776063
667,37.773,37.37,-0.91,0.6052502576384801,0.6613903564259128,0.2816126130035385,0.9650015355728471,0.19588432183564153,0.0855887796768908
668,37.814,37.43,-0.89,0.6058243409251485,0.661338283639594,0.28232070406812004,0.9645245281579337,0.19535782572534405,0.0857229358080831
669,37.855,37.48,-0.92,0.6063862714592566,0.6612771928533128,0.2830102454413355,0.9640383080833401,0.1948292388381297,0.08587492701048291
670,37.917,37.54,-0.87,0.6069358741589521,0.661207240151433,0.2836812409017046,0.96354318251448,0.1942989182731363,0.08604417717958752
671,37.977,37.59,-0.83,0.6074729763170139,0.661128585626973,0.2843337017073826,0.9630394630573534,0.19376721771403638,0.08623009624918018
672,38.101,37.65,-0.85,0.6079974078721332,0.6610413933526988,0.2849676467438247,0.9625274655170981,0.19323448723170178,0.08643208082743134
673,38.121,37.7,-0.86,0.6085090016807586,0.6609458313492537,0.28558310266481113,0.9620075096571606,0.19270107309234394,0.08664951483651172
674,38.162,37.76,-0.82,0.6090075937888797,0.6608420715500738,0.28618010402624217,0.9614799189592745,0.19216731757106661,0.0868817701550963
675,38.203,37.81,-0.87,0.609493023703127,0.6607302897628577,0.2867586934120915,0.9609450203844697,0.19163355877079055,0.08712820726312485
676,38.264,37.87,-0.91,0.6099651346605788,0.6606106656273585,0.28731892155188343,0.9604031441353027,0.19110013044652693,0.08738817588813978
677,38.325,37.92,-0.89,0.6104237738966615,0.6604833825692563,0.28786084742903745,0.9598546234194442,0.19056736183497816,0.08766101565244859
678,38.387,37.98,-0.88,0.6108687929105165,0.6603486277498725,0.2883845383794129,0.9592997942146869,0.19003557748943847,0.08794605672027128
679,38.427,38.03,-0.95,0.6113000477271758,0.6602065920114756,0.2888900701793921,0.9587389950353682,0.18950509711994384,0.0882426204439684
680,38.488,38.09,-0.9,0.6117173991558333,0.6600574698179743,0.289377527122847,0.9581725667001517,0.18897623543859848,0.08855002000842699
681,38.528,38.14,-0.86,0.6121207130434347,0.6599014591908577,0.2898470020863698,0.9576008521010737,0.18844930200998297,0.0888675610727202
682,38.569,38.2,-0.89,0.6125098605227535,0.659738761640333,0.2902985965822229,0.9570241959737154,0.18792460110653553,0.08919454240827579
683,38.631,38.25,-0.9,0.6128847182540993,0.6595695820917024,0.2907324207985374,0.956442944668367,0.18740243156879174,0.08953025653296619
684,38.692,38.31,-0.83,0.6132451686598164,0.659394128807088,0.2911485936263555,0.9558574459220608,0.18688308667037587,0.08987399034067588
685,38.754,38.36,-0.87,0.6135911001507569,0.6592126133026596,0.2915472426731646,0.955268048631347,0.18636685398765318,0.09022502572597733
686,38.796,38.42,-0.88,0.6139224073439465,0.6590252502615547,0.291928504262615,0.9546751026256353,0.18585401527396883,0.09058264020357307
687,38.857,38.47,-0.86,0.6142389912706727,0.6588322574427049,0.2922925234201448,0.9540789584408381,0.18534484633841555,0.09094610752216019
688,38.919,38.53,-0.88,0.6145407595742426,0.6586338555857899,0.2926394538442737,0.9534799670929583,0.18483961692908518,0.09131469827236446
689,38.961,38.58,-0.94,0.6148276266966886,0.6584302683125314,0.29296945786336553,0.9528784798511918,0.18433859062076524,0.091687680488411
690,39.022,38.64,-0.94,0.6150995140537382,0.6582217220245208,0.2932827063776858,0.952274848010126,0.18384202470703903,0.09206432024325872
691,39.084,38.69,-0.92,0.6153563501974162,0.6580084457977642,0.29357937878660806,0.9516694226606911,0.18335017009673568,0.0924438822370138
692,39.186,38.75,-0.94,0.6155980709656841,0.65779067127413,0.29385966290085863,0.9510625544596122,0.18286327121465532,0.09282563037854027
693,39.205,38.8,-0.93,0.6158246196185598,0.6575686325499025,0.29412375483972625,0.9504545933972178,0.18238156590647,0.09320882836028228
694,39.246,38.86,-0.86,0.6160359469602037,0.6573425660616425,0.2943718589131926,0.9498458885635641,0.1819052853476887,0.09359274022637167
695,39.328,38.91,-0.85,0.6162320114465187,0.6571127104695259,0.2946041874889724,0.9492367879129129,0.18143465395656908,0.09397663093411578
696,39.349,38.97,-0.88,0.6164127792779007,0.656879306538251,0.2948209608444796,0.9486276380266486,0.1809698893108747,0.09435976690893681
697,39.411,39.02,-0.85,0.6165782244768591,0.6566425970155249,0.29502240700376203,0.9480187838747434,0.1805112020684055,0.09474141659272149
698,39.453,39.08,-0.84,0.6167283289503139,0.6564028265080717,0.2952087615594715,0.9474105685758859,0.1800587958912683,0.09512085098535525
699,39.535,39.13,-0.9,0.6168630825364462,0.6561602413550764,0.29538026747997886,0.9468033331563938,0.179612867373889,0.09549734417906289
700,39.575,39.19,-0.89,0.6169824830360326,0.6559150894989774,0.29553717490178777,0.9461974163080451,0.17917360597479443,0.09587017388514456
701,39.616,39.24,-0.89,0.6170865362282495,0.6556676203535535,0.29567974090746757,0.9455931541450043,0.17874119395220348,0.09623862195277103
702,39.677,39.3,-0.94,0.6171752558709759,0.6554180846692843,0.29580822928941464,0.9449908799600132,0.1783158063034729,0.09660197487964463
703,39.739,39.35,-0.97,0.6172486636856772,0.6551667343959688,0.2959229102998426,0.9443909239800093,0.17789761070843235,0.09695952431448383
704,39.801,39.41,-0.93,0.6173067893269992,0.6549138225425932,0.2960240603874779,0.9437936131213052,0.17748676747663097,0.0973105675513772
705,39.842,39.46,-0.95,0.617349670337241,0.6546596030344132,0.29611196192149264,0.9431992707444282,0.177083429498497,0.09765440801605751
706,39.903,39.52,-0.98,0.6173773520859052,0.654404330567211,0.29618690290322824,0.9426082164086976,0.1766877422003916,0.09799035574410556
707,39.966,39.57,-0.95,0.6173898876945372,0.654148260458662,0.2962491766662647,0.9420207656265945,0.17629984350352357,0.09831772785105383
708,40.029,39.63,-0.94,0.6173873379471053,0.6538916484967104,0.2962990815653839,0.9414372296179647,0.17591986378668503,0.0986358489943752
709,40.07,39.68,-0.98,0.6173697711862288,0.6536347507847885,0.29633692065498585,0.9408579150640909,0.17554792585276696,0.09894405182745297
710,40.132,39.74,-0.94,0.6173372631956339,0.6533778235836574,0.296363001357541,0.9402831238616912,0.1751841448990142,0.09924167744582171
711,40.193,39.79,-0.91,0.6172898970692792,0.6531211231496257,0.296377635122703,0.9397131528769816,0.1748286284909864,0.09952807582616945
712,40.276,39.85,-0.96,0.6172277630676435,0.652864905568926,0.29638113707775204,0.939148293700055,0.17448147654020035,0.09980260625876282
713,40.296,39.9,-0.98,0.6171509584616967,0.6526094265880896,0.29637382567006254,0.9385888323999989,0.1741427812854461,0.10006463777406298
714,40.358,39.96,-0.96,0.6170595873650866,0.6523549414402474,0.29635602230227936,0.9380350492813653,0.17381262727778285,0.1003135495643303
715,40.4,40.01,-1.02,0.6169537605550862,0.6521017046673414,0.29632805096088044,0.9374872186427329,0.17349109136923307,0.10054873140099321
716,40.441,40.07,-1.04,0.616833595282845,0.6518499699382879,0.2962902378387943,0.9369456085381357,0.17317824270518745,0.10076958404851835
717,40.502,40.12,-1.0,0.616699215073498,0.6515999898631287,0.296242910952741,0.9364104805420639,0.17287414272051865,0.10097551967546028
718,40.563,40.18,-0.98,0.61655074951669,0.6513520158032118,0.2961863997559706,0.935882089518624,0.17257884513938088,0.10116596226329197
719,40.645,40.23,-1.01,0.616388334048081,0.6511062976774258,0.2961210347470923,0.9353606833953042,0.1722923959786541,0.10134034801356152
720,40.666,40.29,-0.97,0.6162121097224146,0.6508630837645223,0.29604714707570634,0.9348465029416976,0.17201483355498734,0.10149812575389834
721,40.728,40.34,-0.94,0.6160222229787439,0.6506226205015792,0.2959650681455914,0.9343397815534952,0.17174618849540702,0.10163875734339567
722,40.769,40.4,-0.97,0.6158188253984509,0.6503851522786906,0.2958751292162425,0.9338407450420472,0.1714864837514782,0.10176171807793155
723,40.831,40.45,-0.97,0.6156020734567355,0.6501509212299893,0.2957776610035918,0.9333496114298236,0.17123573461703273,0.10186649709602938
724,40.892,40.51,-0.92,0.6153721282683021,0.6499201670211234,0.2956729932807596,0.9328665907521584,0.17099394874950655,0.10195259778585349
725,40.934,40.56,-0.97,0.6151291553280146,0.6496931266333089,0.2955614544796947,0.9323918848656777,0.17076112619495515,0.10201953819387469
726,41.016,40.62,-1.0,0.6148733242473122,0.6494700341440712,0.29544337129457593,0.9319256872637794,0.17053725941683762,0.10206685143565553
727,41.078,40.67,-0.99,0.6146048084871724,0.6492511205047983,0.29531906828783416,0.9314681828994874,0.17032233332867455,0.1020940861091008
728,41.099,40.73,-1.01,0.6143237850883945,0.6490366133152135,0.2951888674996323,0.9310195480159554,0.17011632533069118,0.10210080671040286
729,41.159,40.78,-1.05,0.6140304343999592,0.6488267365948828,0.295053088061602,0.9305799499848868,0.16991920535055144,0.10208659405281091
730,41.243,40.84,-1.03,0.6137249398061851,0.6486217105518837,0.2949120458155691,0.9301495471531769,0.1697309358882728,0.10205104568826352
731,41.264,40.89,-1.01,0.6134074874533662,0.6484217513488266,0.2947660529379411,0.9297284886981727,0.16955147206539406,0.10199377633183086
732,41.388,40.95,-1.04,0.613078265976535,0.6482270708664764,0.29461541757037873,0.9293169144920335,0.16938076167845262,0.10191441828883581
733,41.409,41.0,-1.04,0.6127374662269707,0.648037876465297,0.2944604434573341,0.9289149549757645,0.16921874525682143,0.10181262188449133
734,41.45,41.06,-1.0,0.6123852810010497,0.6478543707452877,0.29430142959100547,0.9285227310435756,0.169065356124956,0.10168805589589168
735,41.491,41.11,-0.99,0.6120219047710318,0.6476767513045033,0.29413866986423365,0.9281403539382672,0.168920520469108,0.1015404079862039
736,41.554,41.17,-1.01,0.6116475334183712,0.6475052104966454,0.2939724527318378,0.9277679251583487,0.1687841574085707,0.10136938514087253
737,41.614,41.22,-0.98,0.6112623639701417,0.6473399351880945,0.29380306088086133,0.9274055363775845,0.1686561790715374,0.1011747141055085
738,41.656,41.28,-1.0,0.610866594339169,0.6471811065147072,0.2936307709101661,0.9270532693776042,0.16853649067568033,0.1009561418248719
739,41.738,41.33,-1.06,0.6104604230684553,0.6470288996386786,0.2934558530197997,0.9267111959941434,0.16842499061358185,0.10071343588207626
740,41.758,41.39,-1.06,0.6100440490804623,0.6468834835057623,0.29327857071055463,0.9263793780773737,0.1683215705431681,0.10044638493692686
741,41.819,41.44,-1.07,0.6096176714317814,0.6467450206031754,0.29309918049417155,0.9260578674666288,0.16822611548329747,0.10015479916219365
742,41.881,41.5,-1.11,0.6091814890736713,0.6466136667185572,0.2929179316146889,0.9257467059796772,0.16813850391464225,0.09983851067659817
743,41.943,41.55,-1.11,0.608735700618902,0.6464895707003907,0.2927350657814674,0.9254459254165918,0.168058607885976,0.09949737397330746
744,42.004,41.61,-1.06,0.6082805041152979,0.6463728742203131,0.29255081691440593,0.925155547578262,0.16798629312595176,0.09913126634272285
745,42.045,41.66,-1.1,0.6078160968263323,0.6462637115377596,0.29236541090182455,0.924875584299586,0.16792141916043357,0.09874008828830808
746,42.106,41.72,-1.12,0.6073426750190813,0.6461622092674016,0.292179065371451,0.9246060374973295,0.16786383943543204,0.09832376393413711
747,42.168,41.77,-1.08,0.6068604337597927,0.6460684861498467,0.2919919894748812,0.9243468992325701,0.16781340144568926,0.0978822414227518
748,42.208,41.83,-1.08,0.6063695667172841,0.6459826528260856,0.29180438368582423,0.9240981517875817,0.1677699468689611,0.09741549330179936
749,42.27,41.88,-1.15,0.6058702659743437,0.6459048116161612,0.2916164396123674,0.923859767756976,0.1677333117060424,0.09692351689780909
750,42.331,41.94,-1.12,0.6053627218472662,0.6458350563025643,0.2914283398234364,0.923631710152929,0.16770332642658087,0.09640633467538547
751,42.393,41.99,-1.12,0.6048471227136152,0.6457734719188973,0.29124025768956563,0.9234139325243734,0.1676798161207211,0.09586399458006731
752,42.474,42.05,-1.19,0.6043236548482555,0.6457201345444042,0.2910523572380595,0.9232063790901146,0.16766260065661134,0.0952965703631563
753,42.494,42.1,-1.21,0.6037925022676628,0.6456751111050256,0.29086479302258067,0.9230089848859269,0.16765149484378933,0.09470416188692102
754,42.536,42.16,-1.17,0.6032538465824849,0.6456384591816838,0.290677710007171,0.9228216759257619,0.16764630860244004,0.09408689540866788
755,42.599,42.21,-1.21,0.6027078668583328,0.645610226826502,0.29049124346469507,0.9226443693771823,0.16764684713848876,0.09344492384220404
756,42.641,42.27,-1.22,0.6021547394848091,0.64559045238761,0.29030551888970485,0.9224769737510213,0.16765291112445735,0.09277842699520855
757,42.702,42.32,-1.14,0.6015946380528049,0.6455791643431082,0.2901206519257198,0.9223193891051185,0.16766429688598325,0.0920876117809788
758,42.786,42.38,-1.13,0.6010277332401047,0.6455763811446755,0.2899367483069033,0.9221715072618448,0.16768079659388008,0.09137271240297133
759,42.845,42.43,-1.17,0.6004541927053496,0.6455821110712279,0.2897539038140955,0.9220332120390188,0.1677021984616141,0.0906339905105353
760,42.865,42.49,-1.12,0.5998741809903987,0.6455963520929716,0.289572204245125,0.9219043794937498,0.16772828694808126,0.08987173532422237
761,42.927,42.54,-1.1,0.5992878594311247,0.6456190917461604,0.2893917253993086,0.9217848781786889,0.16775884296559093,0.08908626372903274
762,42.969,42.6,-1.27,0.5986953860766637,0.6456503070188526,0.2892125330760571,0.9216745694100557,0.16779364409298625,0.08827792033397878
763,43.032,42.65,-1.27,0.5980969156170978,0.6456899642479745,0.289034683087536,0.9215733075467032,0.1678324647938394,0.0874470774964847
764,43.092,42.71,-1.22,0.5974925993195214,0.645738019028006,0.2888582212853592,0.9214809402793982,0.16787507663965137,0.08659413531045977
765,43.215,42.76,-1.28,0.5968825849724071,0.6457944161315908,0.2886831836013184,0.9213973089294414,0.1679212485379427,0.0857195215574052
766,43.236,42.82,-1.3,0.5962670168381566,0.6458590894423503,0.2885095961021524,0.9213222487557332,0.16797074696506137,0.08482369162049892
767,43.276,42.87,-1.24,0.5956460356136805,0.6459319619001574,0.2883374750583376,0.9212555892693617,0.16802333620347598,0.08390712836198418
768,43.318,42.93,-1.23,0.5950197783987876,0.646012945459105,0.2881668270268455,0.9211971545547557,0.16807877858328527,0.08297034196427125
769,43.377,42.98,-1.24,0.5943883786721149,0.6461019410583572,0.2879976489477606,0.921146763596375,0.16813683472764965,0.08201386973508616
770,43.439,43.04,-1.19,0.5937519662742782,0.6461988386060247,0.2878299282546057,0.9211042306098755,0.16819726380184216,0.0810382758768996
771,43.48,43.09,-1.17,0.5931106673979052,0.6463035169761546,0.28766364299818803,0.9210693653766538,0.16825982376562146,0.08004415122079805
772,43.562,43.15,-1.21,0.5924646045842106,0.6464158440188693,0.2874987619837929,0.9210419735806608,0.16832427162864533,0.07903211292494208
773,43.583,43.2,-1.19,0.5918138967257954,0.6465356765836535,0.28733524492160684,0.9210218571463422,0.16839036370866056,0.07800280413780417
774,43.645,43.26,-1.14,0.5911586590753907,0.6466628605557581,0.2871730425903254,0.9210088145765637,0.16845785589222165,0.07695689362647233
775,43.707,43.31,-1.2,0.5904990032602926,0.6467972309056882,0.28701209701397123,0.9210026412893407,0.1685265038977013,0.07589507537043629
776,43.75,43.37,-1.22,0.5898350373022523,0.6469386117517604,0.28685234165197077,0.9210031299521788,0.16859606354036094,0.07481806812139959
777,43.812,43.42,-1.18,0.5891668656425766,0.6470868164357341,0.2866937016025081,0.921010070812819,0.16866629099925537,0.07372661492973158
778,43.854,43.48,-1.22,0.5884945891721991,0.647241647611524,0.28653609381910816,0.921023252025219,0.16873694308574125,0.07262148263818692
779,43.936,43.53,-1.26,0.5878183052664715,0.6474028973469883,0.286379427340309,0.9210424599696794,0.1688077775133471,0.07150346134351483
780,43.957,43.59,-1.2,0.5871381078244247,0.647570347238765,0.28622360353220255,0.9210674795661474,0.16887855316874098,0.07037336382655485
781,44.018,43.64,-1.16,0.5864540873122381,0.6477437685401166,0.2860685163435615,0.921098094579823,0.16894903038350906,0.06923202495139592
782,44.08,43.7,-1.2,0.5857663308106497,0.6479229223017237,0.2859140525732463,0.9211340879182576,0.16901897120643805,0.0680803010342272
783,44.142,43.75,-1.17,0.5850749220660361,0.6481075595253726,0.28576009214954323,0.9211752419192112,0.16908813967598588,0.06691906918264018
784,44.203,43.81,-1.19,0.5843799415449089,0.6482974213304892,0.2856065084210265,0.9212213386286568,0.1691563020926321,0.06574922660630537
785,44.286,43.86,-1.22,0.58368146649159,0.6484922391334638,0.2854531684584861,0.9212721600684587,0.16922322729081457,0.06457168990011429
786,44.326,43.92,-1.21,0.5829795709888637,0.64869173483972,0.2852999333674055,0.9213274884933957,0.16928868691016388,0.06338739430105449
787,44.346,43.97,-1.18,0.5822743260214158,0.648895621048492,0.28514665861040916,0.9213871066373654,0.1693524556657383,0.062197292920234765
788,44.407,44.03,-1.17,0.5815657995418821,0.6491036012702984,0.2849931943390428,0.921450797948754,0.1694143116169454,0.06100235595158127
789,44.468,44.08,-1.21,0.5808540565393266,0.6493153701571287,0.28483938573419076,0.921518346815062,0.16947403643482106,0.05980356985878835
790,44.509,44.14,-1.18,0.5801391591099794,0.6495306137453457,0.2846850733543942,0.9215895387769589,0.16953141566733385,0.05860193654211358
791,44.572,44.19,-1.16,0.5794211665300768,0.6497490097112761,0.2845300934913186,0.9216641607319562,0.16958623900238548,0.05739847248654087
792,44.632,44.25,-1.21,0.5787001353306777,0.6499702276393918,0.2843742785316375,0.9217420011278769,0.16963830052817838,0.05619420789272567
793,44.695,44.3,-1.17,0.5779761193743469,0.650193929302924,0.28421745732462744,0.9218228501462646,0.16968739899061813,0.054990185792019954
794,44.757,44.36,-1.12,0.5772491699336146,0.6504197689567278,0.28405945555479967,0.9219064998758588,0.16973333804741378,0.05378746114676301
795,44.799,44.41,-1.15,0.5765193357711311,0.650647393642184,0.28390009611893163,0.9219927444762603,0.16977592651853804,0.05258709993694381
796,44.86,44.47,-1.15,0.5757866632214519,0.6508764435039276,0.28373919950688736,0.9220813803319504,0.16981497863271516,0.051390178234302926
797,44.922,44.52,-1.08,0.5750511962743974,0.6511065521181743,0.28357658418562454,0.9221722061968867,0.169850314269618,0.050197781264909716
798,44.984,44.58,-1.11,0.5743129766599423,0.6513373468324132,0.28341206698579047,0.9222650233299553,0.16988175919747525,0.049011002461202
799,45.045,44.63,-1.15,0.5735720439345923,0.6515684491161999,0.28324546349031154,0.922359635621546,0.16990914530580617,0.047830942504426904
800,45.086,44.69,-1.09,0.5728284355692237,0.6517994749227679,0.28307658842438327,0.922455849711486,0.16993231083301652,0.046658708358386286
801,45.128,44.74,-1.09,0.572082187038366,0.6520300350611438,0.28290525604626293,0.9225534750985457,0.16995110058860216,0.04549541229539437
802,45.19,44.8,-1.15,0.5713333319109266,0.6522597355784325,0.28273128053826296,0.9226523242417449,0.16996536616971367,0.044342170915433146
803,45.252,44.85,-1.14,0.5705819019423714,0.6524881781519198,0.2825544763973366,0.9227522126537718,0.16997496617183516,0.043200104159606435
804,45.293,44.91,-1.11,0.5698279271683765,0.6527149604906323,0.2823746588246616,0.9228529589869132,0.16997976639333162,0.04207033431907497
805,45.416,44.96,-1.13,0.569071435999967,0.6529396767460085,0.28219164411366354,0.9229543851119839,0.16997964003361105,0.04095398504068347
806,45.437,45.02,-1.12,0.5683124553201424,0.6531619179313657,0.28200525003593635,0.9230563161908276,0.16997446788463785,0.03985218033046909
807,45.479,45.07,-1.06,0.5675510105819789,0.6533812723498773,0.281815296224507,0.9231585807430644,0.1699641385155257,0.038766043556163386
808,45.521,45.13,-1.08,0.5667871259081977,0.6535973260307879,0.28162160455386787,0.92326101070782,0.16994854844994098,0.0376966964496894
809,45.561,45.18,-1.09,0.5660208241921939,0.6538096631735699,0.2814239995162016,0.9233634415011558,0.1699276023360613,0.036645258110556196
810,45.623,45.24,-1.06,0.5652521272005322,0.6540178665996756,0.28122230859325786,0.9234657120698222,0.16990121310885317,0.03561284401095637
811,45.684,45.29,-1.05,0.5644810556769305,0.6542215182114721,0.28101636262341684,0.923567664941794,0.16986930214445822,0.034600565003272084
812,45.725,45.35,-1.13,0.5637076294477732,0.6544201994578781,0.28080599616357294,0.9236691462738721,0.16983179940649476,0.0336095263306279
813,45.787,45.4,-1.09,0.562931867529205,0.6546134918061729,0.28059104784555056,0.9237700058965024,0.1697886435840938,0.032640826641130626
814,45.847,45.46,-1.09,0.5621537882358831,0.6548009772194083,0.28037136072682106,0.9238700973558924,0.16973978222149086,0.03169555700651497
815,45.91,45.51,-1.15,0.5613734092914843,0.6549822386388077,0.28014678263532095,0.9239692779535048,0.16968517183898846,0.03077479994605094
816,45.952,45.57,-1.16,0.5605907479410787,0.655156860470493,0.27991716650816734,0.9240674087830388,0.16962477804508788,0.029879628456702702
817,46.013,45.62,-1.1,0.5598058210654889,0.6553244290758339,0.27968237072404784,0.9241643547650736,0.16955857563957152,0.029011105050578724
818,46.075,45.68,-1.13,0.5590186452977333,0.6554845332646762,0.27944225942903406,0.9242599846795598,0.16948654870729638,0.028170280800675067
819,46.157,45.73,-1.13,0.5582292371416205,0.6556367647906969,0.2791967028555385,0.9243541711963337,0.16940869070244113,0.02735819439581893
820,46.178,45.79,-1.06,0.5574376130925248,0.6557807188481333,0.2789455776341028,0.9244467909038132,0.1693250045229401,0.02657587120558617
821,46.219,45.84,-1.06,0.556643789760337,0.6559159945691495,0.2786887670976902,0.924537724335987,0.16923550257484357,0.025824322355824575
822,46.279,45.9,-1.1,0.5558477839945654,0.656042195521113,0.27842616157814465,0.9246268559977849,0.16914020682635925,0.02510454381530446
823,46.36,45.95,-1.06,0.555049613011552,0.6561589302030498,0.27815765869448406,0.924714074388902,0.16903914885135138,0.024417515493949053
824,46.381,46.01,-1.05,0.5542492945237725,0.6562658125405512,0.2778831636327033,0.9247992720261619,0.1689323698620988,0.023764200353075422
825,46.44,46.06,-1.08,0.5534468468711783,0.6563624623784096,0.27760258941679516,0.9248823454645173,0.1688199207311318,0.023145543528133704
826,46.52,46.12,-1.09,0.552642289154538,0.6564485059702866,0.2773158571707457,0.9249631953167788,0.1687018620019789,0.02256247146454181
827,46.582,46.17,-1.07,0.5518356413707091,0.656523576464746,0.2770228963713074,0.9250417262721292,0.16857826388866531,0.02201589106728957
828,46.603,46.23,-1.12,0.5510269245497619,0.6565873143870007,0.27672364509140235,0.9251178471134164,0.16844920626381082,0.021506688864986388
829,46.683,46.28,-1.14,0.5502161608938657,0.6566393681156961,0.27641805023402244,0.9251914707331119,0.16831477863517227,0.02103573018896558
830,46.724,46.34,-1.08,0.5494033739178379,0.6566793943540047,0.27610606775646734,0.9252625141477413,0.16817508011046728,0.020603858367961296
831,46.785,46.39,-1.06,0.5485885885912415,0.6567070585942516,0.27578766288470025,0.925330898510515,0.16803021935029913,0.020211893938773134
832,46.928,46.45,-1.09,0.5477718314818844,0.6567220355752529,0.2754628103175344,0.9253965491218387,0.1678803145089917,0.019860633873270736
833,46.948,46.5,-1.03,0.5469531309005454,0.6567240097315428,0.2751314944203015,0.9254593954373682,0.16772549316314533,0.01955085082206721
834,46.969,46.56,-0.99,0.5461325170467299,0.6567126756336944,0.27479370940761877,0.9255193710733058,0.16756589222774582,0.019283292375202897
835,47.01,46.61,-1.01,0.5453100221552339,0.6566877384189892,0.2744494595148674,0.9255764138087167,0.16740165785968958,0.01905868034024221
836,47.071,46.67,-1.0,0.5444856806432977,0.656648914211762,0.2740987591580092,0.9256304655847665,0.16723294534862565,0.018877710038265747
837,47.111,46.72,-0.95,0.5436595292581273,0.6565959305328075,0.2737416330813976,0.925681472500913,0.16705991899505723,0.01874104961828065
838,47.172,46.78,-0.99,0.5428316072245813,0.656528526697291,0.27337811649328253,0.9257293848081768,0.16688275197568678,0.018649339390564734
839,47.255,46.83,-1.02,0.542001956392818,0.6564464542006487,0.27300825518875227,0.9257741568996496,0.16670162619602472,0.018603191179428828
840,47.275,46.89,-0.99,0.541170621385683,0.6563494770920013,0.2726321056598705,0.9258157472984204,0.16651673213031148,0.018603187695821106
841,47.316,46.94,-0.99,0.5403376497455812,0.6562373723346437,0.27224973519277224,0.9258541186430806,0.1663282686488199,0.01864988193011757
842,47.377,47.0,-1.03,0.5395030920805199,0.6561099301532063,0.27186122195147405,0.9258892376709535,0.16613644283261425,0.018743796565377207
843,47.438,47.05,-0.97,0.5386670022089607,0.655966954367118,0.2714666550481367,0.9259210751991633,0.16594146977584295,0.018885423411293227
844,47.479,47.11,-0.94,0.537829437303078,0.6558082627100306,0.27106613459951523,0.9259496061036495,0.16574357237564855,0.01907522285905045
845,47.541,47.16,-0.99,0.5369904580300084,0.6556336871348706,0.2706597717693541,0.9259748092961819,0.16554298110979337,0.01931362335734669
846,47.644,47.22,-0.96,0.5361501286906764,0.6554430741042205,0.27024768879653543,0.925996667699413,0.16533993380212197,0.0196010209099638
847,47.665,47.27,-0.9,0.5353085173557999,0.6552362848657448,0.26983001900885606,0.9260151682199754,0.1651346753760164,0.019937778595443732
848,47.707,47.33,-0.93,0.5344656959987117,0.6550131957124028,0.269406906822384,0.9260303017196139,0.16492745759603417,0.020324226109597235
849,47.769,47.38,-0.94,0.5336217406246582,0.6547736982272045,0.26897850772641335,0.9260420629843117,0.16471853879795287,0.020760659331709147
850,47.831,47.44,-0.89,0.5327767313962577,0.6545176995122791,0.26854498825407863,0.9260504506913342,0.16450818360748234,0.02124733991535091
851,47.892,47.49,-0.91,0.5319307527548063,0.6542451224020417,0.2681065259387217,0.9260554673740522,0.16429666264794604,0.021784494904669088
852,47.996,47.55,-0.97,0.5310838935371092,0.6539559056602704,0.26766330925612025,0.9260571193843726,0.16408425223726916,0.022372316376946616
853,48.017,47.6,-0.97,0.5302362470875013,0.653650004160937,0.26721553755267446,0.9260554168526126,0.1638712340746421,0.02301096111215489
854,48.057,47.66,-0.96,0.5293879113647052,0.6533273890526821,0.26676342095962424,0.9260503736447339,0.16365789491724597,0.02370055029014204
855,48.119,47.71,-0.99,0.5285389890431722,0.6529880479068498,0.26630718029334605,0.9260420073169565,0.163444526247431,0.024441169216074164
856,48.16,47.77,-0.97,0.5276895876085651,0.6526319848490105,0.2658470469417647,0.926030339067902,0.16323142393073234,0.025232867074768964
857,48.223,47.82,-0.92,0.5268398194470597,0.6522592206738874,0.26538326273692014,0.9260153936885323,0.16301888786510377,0.02607565671458466
858,48.284,47.88,-0.94,0.5259898019281836,0.6518697929435637,0.264916079813755,0.9259971995102151,0.16280722162175779,0.026969514461518313
859,48.346,47.93,-0.95,0.5251396574809518,0.6514637560688131,0.2644457604552167,0.9259757883512597,0.1625967320780246,0.027914379964116783
860,48.367,47.99,-0.89,0.5242895136631068,0.651041181373356,0.2639725769237864,0.9259511954622665,0.1623877290426759,0.028910156069702785
861,48.427,48.04,-0.9,0.5234395032233186,0.6506021571407985,0.26349681127955943,0.9259234594705897,0.16218052487419915,0.029956708732287278
862,48.489,48.1,-0.95,0.5225897641562327,0.6501467886439809,0.26301875518502155,0.9258926223241535,0.1619754340925456,0.031053866952414577
