,Time_Host,Time_Arduino,easingdata,CH1_Oxy,CH1_Deoxy,CH2_Oxy,CH2_Deoxy,CH3_Oxy,CH3_Deoxy
0,1.281,0.04,0.0,0.782789013102765,0.32690619760866907,0.2101362587551733,0.021601769135849328,0.0,0.0
1,1.302,0.1,0.0,0.7742675525650448,0.3447331284899765,0.20692726545982068,0.025158283797630864,0.0037435888729468493,0.004754067205626566
2,1.322,0.15,0.0,0.7658348110698907,0.36246381435970143,0.20374773359014034,0.028670834846669872,0.007516545041560353,0.009471101099261242
3,1.343,0.21,0.0,0.7574934530995324,0.380089792641361,0.20059861835365814,0.03213804090566103,0.011317370818347524,0.014149062085655752
4,1.364,0.26,0.0,0.7492460394249475,0.3976026505519616,0.19748084010985992,0.03555855817811741,0.015144538526999367,0.018785941621924276
5,1.384,0.32,0.0,0.7410950247466807,0.41499403245417515,0.1943952836190604,0.03893108140360723,0.01899649165415945,0.023379764054407087
6,1.404,1.06,0.0,0.7330427555056227,0.4322556471457748,0.19134279734725082,0.042254344753549784,0.0228716460365289,0.02792858841139973
7,1.425,1.12,0.0,0.7250914678655687,0.44937927507779907,0.18832419282687854,0.04552712266767199,0.0267683910814615,0.032430510149832746
8,1.507,1.17,0.0,0.7172432858689158,0.46635677549300225,0.18534024407335203,0.04874823063139523,0.03068509101910965,0.036883662854084655
9,1.527,1.23,0.0,0.7095002197664253,0.48318009347621527,0.18239168705690803,0.051916525894585626,0.03462008618408634,0.041286219885205935
10,1.63,1.28,0.05,0.7018641645215338,0.49984126690830183,0.17947921922932641,0.05503090813226073,0.03857169432450979,0.04563639597892048
11,1.65,1.34,0.06,0.6943368984892595,0.5163324333154514,0.17660349910484027,0.05809032004799731,0.04253821193620705,0.049932448790852166
12,1.692,1.39,0.08,0.6869200822692912,0.5326458366056652,0.17376514589449166,0.06109374792090189,0.04651791561979415,0.05417268038749356
13,1.753,1.45,0.14,0.6796152577323913,0.5487738336844751,0.17096473919315827,0.06404022209705587,0.05050906345834953,0.05835543868150576
14,1.815,1.5,0.14,0.6724238472188285,0.5647089009421816,0.1682028187185138,0.06692881742631737,0.05450989641346163,0.06247911881002704
15,1.858,1.56,0.14,0.665347152907235,0.5804436406051516,0.16547988410123254,0.0697586536452915,0.05851863973754599,0.06654216445476178
16,1.918,1.61,0.17,0.6583863563520054,0.5959707869439721,0.16279639472577245,0.07252889570719476,0.06253350440046668,0.0705430691026843
17,2.0,1.67,0.17,0.6515425181871329,0.6112832123315007,0.16015276962106884,0.075238754059245,0.06655268852862319,0.07448037724622975
18,2.023,1.72,0.13,0.6448165779941236,0.626373933144104,0.15754938740043276,0.07788748486814093,0.07057437885474618,0.07835268552189008
19,2.084,1.78,0.13,0.638209354331345,0.6412361154996383,0.15498658624988232,0.08047439019420288,0.07459675217667651,0.08215864378619127
20,2.147,1.83,0.14,0.6317215449218765,0.6558630808260096,0.1524646639640681,0.08299881811478645,0.07861797682337957,0.08589695612808389
21,2.191,1.89,0.15,0.6253537269966437,0.6702483112543943,0.14998387802891203,0.08546016279759984,0.08263621412636273,0.08956638181685352
22,2.252,1.94,0.19,0.6191063577893702,0.6843854548314366,0.14754444575002795,0.08785786452459651,0.08664961989453535,0.0931657361847613
23,2.315,2.0,0.26,0.6129797751796606,0.6982683305449368,0.1451465444259404,0.09019140966718825,0.09065634589044166,0.09669389144374407
24,2.357,2.05,0.27,0.6069741984803505,0.7118909331577352,0.14279031156508998,0.09246033061357947,0.09465454130576412,0.10014977743564035
25,2.42,2.11,0.28,0.6010897293650908,0.7252474378447467,0.14047584514562683,0.09466420564904669,0.09864235423407301,0.10353238231556593
26,2.483,2.16,0.35,0.5953263529319821,0.7383322046284048,0.13820320391703347,0.09680265878999697,0.10261793313897376,0.106840753168213
27,2.525,2.22,0.37,0.589683938898957,0.7511397826080995,0.13597240774268846,0.09887535957261968,0.10657942831602947,0.11007399655696799
28,2.591,2.27,0.36,0.5841622429265199,0.7636649139794892,0.1337834379825648,0.10088202279691934,0.11052499334706488,0.11323127900585099
29,2.651,2.33,0.37,0.578760908063402,0.775902537839873,0.13163623791533383,0.10282240822694269,0.11445278654567573,0.1163118274143769
30,2.735,2.38,0.38,0.5734794663106959,0.7878477937761189,0.1295307131992283,0.10469632024807311,0.11836097239296511,0.11931492940554107
31,2.757,2.44,0.34,0.5683173403001289,0.7994960252319818,0.1274667323711019,0.10650360748234199,0.12224772296267272,0.1222399336072676
32,2.798,2.49,0.33,0.5632738450822663,0.8108427826520505,0.12544412738316885,0.10824416236284447,0.12611121933493358,0.12508624986783182
33,2.84,2.55,0.32,0.5583481900205758,0.82188382640007,0.1234626941768975,0.10991792066854465,0.12994965299789873,0.12785334940593826
34,2.903,2.6,0.31,0.5535394807873936,0.8326151294499224,0.12152219329348,0.11152486102094071,0.13376122723637093,0.13054076489627528
35,2.966,2.66,0.34,0.5488467214578683,0.8430328798481228,0.11962235052019496,0.11306500434420279,0.13754415850646895,0.13314809049146623
36,3.028,2.71,0.41,0.5442688166979367,0.8531334829472382,0.11776285757182933,0.11453841329049763,0.14129667779517927,0.13567498178139525
37,3.091,2.77,0.43,0.5398045740423261,0.8629135634101346,0.11594337280617212,0.1159451916322437,0.14501703196355012,0.13812115569091227
38,3.112,2.82,0.43,0.5354527062585296,0.8723699669853978,0.11416352197246327,0.1172854836230127,0.14870348507228812,0.14048639031694612
39,3.196,2.88,0.48,0.5312118337926724,0.8814997620546973,0.11242289899160281,0.11855947332873537,0.15235431968864513,0.14277052470606483
40,3.239,2.93,0.5,0.5270804872932332,0.890300240953209,0.11072106676692062,0.11976738393077348,0.15596783817368845,0.1449734585735266
41,3.3,2.99,0.49,0.5230571102086774,0.8987689210645158,0.10905755802436089,0.12090947700231482,0.1595423639492546,0.1470951519649049
42,3.382,3.04,0.51,0.51914006145519,0.9069035456916696,0.10743187618100138,0.12198605175953338,0.1630762427440684,0.14913562486146018
43,3.464,3.1,0.53,0.5153276181508206,0.9147020847063818,0.10584349624089448,0.12299744428905252,0.16656784381866988,0.1510949567305436
44,3.484,3.15,0.51,0.5116179784124726,0.9221627349786059,0.10429186571729689,0.12394402675338126,0.17001556116892313,0.15297328602244414
45,3.546,3.21,0.48,0.5080092642122603,0.9292839205890834,0.10277640558042442,0.12482620657613648,0.17341781470797138,0.15477080961520123
46,3.567,3.26,0.48,0.504499524289821,0.9360642928276908,0.10129651122991033,0.12564442560900507,0.1767730514265504,0.15648778220896967
47,3.609,3.32,0.46,0.5010867371172046,0.9425027299806029,0.0998515534911432,0.1263991592825038,0.18007974653156342,0.15812451567151567
48,3.67,3.37,0.46,0.49776881391294736,0.9485983369093973,0.09844087963459672,0.12709091574267362,0.18333640456274974,0.1596813783363707
49,3.734,3.43,0.51,0.494543601701866,0.9543504444252847,0.09706381441713481,0.127720234975911,0.18654156048715825,0.1611587942550908
50,3.776,3.48,0.54,0.4914088864170255,0.9597586084617226,0.09571966114413681,0.12828768792416156,0.18969378077101545,0.16255724240499894
51,3.839,3.54,0.53,0.48836239604029763,0.9648226090487263,0.09440770275118211,0.12879387559266223,0.1927916644285089,0.16387725585377902
52,3.9,3.59,0.57,0.48540180377793457,0.9695424490923498,0.09312720290397228,0.12923942815240047,0.19583384404703436,0.1651194208823447
53,3.941,3.65,0.59,0.4825247312676379,0.9739183529630129,0.09187740711516154,0.1296250040394763,0.19881898678856957,0.16628437606748833
54,4.002,3.7,0.58,0.4797287518136776,0.9779507648966543,0.09065754387680777,0.12995128905358094,0.20174579536698514,0.16737281132590093
55,4.064,3.76,0.57,0.47701139364668427,0.9816403472129936,0.08946682580721103,0.13021899545784124,0.2046130090012371,0.1683854669212193
56,4.126,3.81,0.58,0.4743701432048106,0.9849879783554758,0.08830445081095399,0.13042886108230217,0.2074194043444935,0.16932313243578767
57,4.21,3.87,0.54,0.47180244843305097,0.987994750757658,0.08716960325099965,0.13058164843327186,0.2101637963893115,0.17018664570881178
58,4.23,3.92,0.49,0.46930572209759175,0.9906619685408963,0.08606145513172189,0.13067814381061274,0.21284503934898613,0.1709768917425659
59,4.271,3.98,0.48,0.46687734511211504,0.9929911450482526,0.08497916729172307,0.13071915643487628,0.21546202751512447,0.17169480157828318
60,4.332,4.03,0.47,0.4645146698729949,0.9949840002195462,0.08392189060524673,0.13070551758595703,0.2180136960913581,0.17234135114333546
61,4.393,4.09,0.46,0.4622150236003068,0.9966424578124479,0.08288876719091694,0.1306380797547173,0.22049902200288168,0.17291756007130077
62,4.456,4.14,0.5,0.4599757116815027,0.9979686424744779,0.081878931626424,0.1305177158088644,0.22291702468124625,0.17342449049653377
63,4.499,4.2,0.55,0.4577940210145132,0.9989648766707647,0.08089151216765993,0.1303453181742497,0.2252667668235991,0.1738632458248738
64,4.561,4.25,0.54,0.455667223346989,0.9996336774724219,0.07992563197072705,0.13012179803268695,0.22754735512541374,0.17423496948217101
65,4.622,4.31,0.55,0.4535925786083803,0.99997775321044,0.07898041031520542,0.12984808453737254,0.2297579409857211,0.17454084364236794
66,4.725,4.36,0.59,0.45156733823161255,1.0,0.07805496382707829,0.12952512404697486,0.23189772118392235,0.1747820879369093
67,4.745,4.42,0.58,0.4495887484611877,0.9997034981401153,0.07714840769979246,0.12915387937925,0.2339659385273686,0.17495995814725054
68,4.786,4.47,0.58,0.44765405364460886,0.999091508393486,0.07625985691205471,0.1287353290845652,0.23596188246898955,0.1750757448822145
69,4.848,4.53,0.6,0.44576049950405505,0.998167468151414,0.07538842744109604,0.12827046673908649,0.23788488969432775,0.1751307722418943
70,4.93,4.58,0.58,0.44390533638525986,0.9969349874885309,0.07453323747024053,0.12776030025681726,0.23973434467739288,0.17512639646972147
71,4.95,4.64,0.55,0.44208582248056255,0.9953978451119584,0.07369340858966597,0.12720585121929434,0.24150968020477356,0.1750640045942308
72,4.992,4.69,0.53,0.4402992270230917,0.9935599842093339,0.07286806698923455,0.12660815422157584,0.24321037786741997,0.17494501306196392
73,5.053,4.75,0.54,0.43854283344902373,0.991425508199981,0.07205634464223412,0.12596825623308894,0.24483596851943443,0.1747708663628595
74,5.113,4.8,0.55,0.4368139425248243,0.9889986763933479,0.07125738047882237,0.12528721597188,0.2463860327030697,0.17454303564940526
75,5.175,4.86,0.57,0.4351098754363246,0.9862838995587845,0.07047032154789473,0.12456610329084142,0.2478602010389604,0.17426301735078362
76,5.215,4.91,0.63,0.43342797683641976,0.9832857354107162,0.06969432416601916,0.12380599857458827,0.24925815458046513,0.17393233178322642
77,5.298,4.97,0.63,0.4317656178481309,0.9800088840133103,0.06892855505202722,0.12300799214577289,0.25057962513093374,0.17355252175781655
78,5.339,5.02,0.64,0.4301201990197539,0.9764581831088074,0.06817219244582357,0.12217318367975058,0.2518243955227447,0.1731251511870408
79,5.402,5.08,0.69,0.4284891532288187,0.9726386033738581,0.06742442720995477,0.12130268162663053,0.25299229985707433,0.17265180369146363
80,5.422,5.13,0.69,0.4268699485316264,0.9685552436084546,0.06668446391247303,0.12039760263981714,0.254083223703503,0.17213408120792095
81,5.485,5.19,0.68,0.42526009095518835,0.9642133258622901,0.06595152188962929,0.11945907101016474,0.2550971042587122,0.17157360260063653
82,5.545,5.24,0.69,0.4236571272284644,0.959618190503563,0.06522483628692999,0.11848821810489403,0.2560339304636586,0.17097200227663362
83,5.588,5.3,0.68,0.42205864744987176,0.9547752912352669,0.06450365907712217,0.11748618181041881,0.2568937430787319,0.1703309288067602
84,5.671,5.35,0.64,0.42046228768813754,0.9496901900639578,0.06378726005374323,0.11645410597817708,0.2576766347164672,0.16965204355359623
85,5.753,5.41,0.61,0.418865732513646,0.9443685522258797,0.06307492779895058,0.11539313987249226,0.25838274983137977,0.16893701930748523
86,5.773,5.46,0.62,0.4172667174574891,0.9388161410752597,0.06236597062439964,0.11430443761945366,0.2590122846664116,0.1681875389319198
87,5.814,5.52,0.63,0.4156630313954261,0.9330388129395142,0.06165971748394889,0.11318915765579589,0.2595654871553229,0.16740529401949397
88,5.876,5.57,0.65,0.41405251885389804,0.9270425119460585,0.06095551885691675,0.11204846217680202,0.2600426567801681,0.16659198355961355
89,5.937,5.63,0.72,0.4124330822351746,0.9208332648253588,0.06025274760051352,0.11088351658235496,0.2604441443828261,0.1657493126190941
90,6.04,5.68,0.74,0.4108026839586933,0.9144171756948009,0.059550799769980255,0.10969548892035662,0.260770351929492,0.16487899103669676
91,6.061,5.74,0.75,0.4091593485156983,0.9078004208279136,0.058849095404914405,0.10848554932680163,0.26102173222710034,0.163982732132572
92,6.123,5.79,0.8,0.4075011644343711,0.9009892434135157,0.05814707928025047,0.10725486946187218,0.261198788590835,0.16306225143350878
93,6.146,5.85,0.83,0.40582628615275673,0.8939899483093902,0.057444221620405425,0.10600462194151321,0.2613020744621294,0.16211926541482607
94,6.205,5.9,0.82,0.404132935796912,0.8868088967951044,0.05674001877519147,0.10473597976405326,0.261332192976814,0.16115549025969808
95,6.267,5.96,0.84,0.4024194048618202,0.8794525013286523,0.056033993856222444,0.10345011573160322,0.26128979648330913,0.16017264063667988
96,6.309,6.01,0.84,0.40068405579276295,0.8719272203116043,0.05532569733269196,0.1021482018661676,0.2611755860109903,0.1591724284961654
97,6.411,6.07,0.8,0.39892532346502396,0.8642395528674849,0.05461470758557742,0.10083140882056821,0.2609903106890391,0.15815656188648317
98,6.431,6.12,0.76,0.39714171656001584,0.8563960336380487,0.053900631419483355,0.09950090528439716,0.26073476711622195,0.15712674379032604
99,6.473,6.18,0.75,0.3953318188361418,0.8484032276020698,0.05318310453145094,0.09815785738530769,0.260409798682085,0.15608467098219708
100,6.535,6.23,0.71,0.39349429029292615,0.8402677249211091,0.05246179193612534,0.09680342808599476,0.2600162948400082,0.1550320329075231
101,6.576,6.29,0.72,0.39162786822710505,0.8319961358165515,0.051736388346670395,0.0954387765772195,0.25955519033241814,0.1539705105840452
102,6.638,6.34,0.79,0.38973136817945586,0.823595085482044,0.05100661851075482,0.09406505766720322,0.2590274643682699,0.1529017755260324
103,6.699,6.4,0.82,0.3878036847711907,0.8150712090353072,0.05027223750085539,0.09268342116763421,0.25843413975273966,0.15182748869178772
104,6.78,6.45,0.83,0.3858437924288037,0.8064311465131382,0.0495330309580817,0.09129501127642393,0.2577762819690053,0.15074929945485924
105,6.8,6.51,0.87,0.3838507459963631,0.7976815379133324,0.04878881528874026,0.0899009659573229,0.2570549982120799,0.14966884459933807
106,6.862,6.56,0.9,0.38182368123438576,0.7888290182872384,0.048039437812941295,0.08850241631658094,0.25627143637487526,0.14858774733961752
107,6.923,6.62,0.9,0.3797618152046224,0.779880212886727,0.047284776864695004,0.08710048597695828,0.25542678398694674,0.1475076163650059
108,6.965,6.67,0.91,0.3776644465403077,0.770841732369419,0.04652474184309911,0.08569629044955422,0.25452226710663445,0.14643004490962286
109,7.046,6.73,0.94,0.37553095560170513,0.7617201680660207,0.045759273214362135,0.08429093650410066,0.25355914916757927,0.14535660984803872
110,7.087,6.78,0.91,0.3733608045170943,0.7525220873135287,0.044988342464548206,0.082885521538481,0.2525387297808245,0.14428887081712735
111,7.148,6.84,0.88,0.37115353710966564,0.7432540288579239,0.04421195200306467,0.08148113294824513,0.25146234349392044,0.1432283693645878
112,7.189,6.89,0.87,0.36890877871106387,0.7339224983298163,0.043430135017028575,0.0800788474968208,0.2503313585086098,0.14217662812452417
113,7.251,6.95,0.84,0.36662623586256476,0.7245339637962955,0.04264295527673946,0.07867973068699428,0.2491471753587633,0.14113515002035498
114,7.314,7.0,0.77,0.3643056959050676,0.7150948513920067,0.04185050689253878,0.07728483613410599,0.24791122555023573,0.14010541749519936
115,7.354,7.06,0.78,0.36194702645921556,0.705611541032239,0.041052914023335225,0.07589520494135657,0.24662497016422794,0.13908889176975928
116,7.436,7.11,0.81,0.3595501747970322,0.6960903622106418,0.04025033053705562,0.07451186507763939,0.24528989842558901,0.13808701212758395
117,7.498,7.17,0.82,0.35711516710650704,0.6865375898840462,0.03944293962326943,0.0731358307583543,0.24390752623731327,0.13710119522748057
118,7.518,7.22,0.84,0.35464210765061893,0.6769594404467921,0.03863095335823482,0.07176810182972536,0.24247939468233448,0.13613283444275726
119,7.579,7.28,0.88,0.35213117782237596,0.667362067796882,0.037814612222643124,0.07040966315723231,0.24100706849367845,0.13518329922695446
120,7.64,7.33,0.87,0.3495826350975822,0.6577515594962274,0.036994184572419236,0.06906148401881743,0.23949213449412365,0.13425393450574147
121,7.682,7.39,0.88,0.346996811887189,0.6481339330272161,0.0361699660630537,0.06772451750354705,0.23793620000669893,0.13334606009471475
122,7.743,7.44,0.92,0.3443741142912541,0.638515132147804,0.035342279028072195,0.06639969991640228,0.23634089123756616,0.13246097014288938
123,7.805,7.5,0.91,0.3417150207567338,0.6289010233472373,0.03451147181238882,0.06508795018981336,0.23470785163305483,0.1315999326016982
124,7.907,7.55,0.89,0.3390200806415906,0.6192973924043351,0.03367791806143338,0.06379016930244259,0.23303874021281315,0.13076418871931256
125,7.927,7.61,0.9,0.3362899126879601,0.6097099410500505,0.032842015967086184,0.06250723970561303,0.23133522988122865,0.12995495256007072
126,7.969,7.66,0.88,0.3335252034074088,0.6001442837358074,0.03200418747161782,0.06124002475768775,0.2295990057194382,0.12917341054875234
127,8.01,7.72,0.83,0.3307267053815946,0.5906059445089138,0.031164877431007588,0.05998936816664012,0.22783176326035906,0.12842072103939942
128,8.073,7.77,0.79,0.32789523548188876,0.5811003539961859,0.03032455273915909,0.05875609344107781,0.22603520674921643,0.12769801390837496
129,8.135,7.83,0.76,0.3250316730116981,0.5716328464967986,0.029483701414626605,0.0575410033500866,0.2242110473920079,0.1270063901713511
130,8.197,7.88,0.73,0.3221369577753169,0.5622086571852936,0.02864283165151438,0.056344879392375834,0.2223610015942298,0.12634692162391992
131,8.239,7.94,0.74,0.3192120880771248,0.5528329194256222,0.027802470836196413,0.055168481275324636,0.22048678919199763,0.12572065050551517
132,8.301,7.99,0.8,0.31625811865485626,0.5435106621970606,0.026963164531439505,0.054012546404639046,0.21859013167747535,0.12512858918630232
133,8.362,8.05,0.82,0.31327615855056495,0.5342468076327608,0.026125475429453242,0.05287778938536385,0.21667275042035417,0.12457171987664133
134,8.423,8.1,0.82,0.3102673689228305,0.5250461686715782,0.025289982275379225,0.05176490153492677,0.2147363648870623,0.12405099435867578
135,8.464,8.16,0.85,0.30723296080371726,0.5159134468237236,0.02445727876277631,0.05067455040879592,0.2127826908594814,0.12356733373955009
136,8.546,8.21,0.88,0.30417419280400304,0.5068532300506938,0.02362797240275814,0.04960737933925661,0.21081343865515875,0.12312162822570598
137,8.629,8.27,0.86,0.3010923687702623,0.4978699907598396,0.022802683368570328,0.0485640069877967,0.20883031135125818,0.12271473691767701
138,8.65,8.32,0.88,0.2979888353974771,0.48896808391381674,0.02198204331752424,0.0475450269116746,0.20683500301474264,0.12234748762479289
139,8.67,8.38,0.84,0.29486497980094745,0.48015174525507687,0.02116669419233556,0.04655100714541421,0.20482919694151197,0.12202067669921213
140,8.731,8.43,0.8,0.2917222270513528,0.4714250896454885,0.020357287004053874,0.045582489798175585,0.20281456390740804,0.12173506888874522
141,8.794,8.49,0.77,0.2885620376768923,0.4627921095211337,0.01955448059889086,0.044639990668180064,0.20079276043411962,0.1214913972080735
142,8.855,8.54,0.77,0.2853859051365019,0.4542566734622468,0.01875894041134701,0.04372399887558404,0.19876542707304123,0.12129036282822182
143,8.897,8.6,0.71,0.28219535326822753,0.4458225248781353,0.017971337206111188,0.042834976515297725,0.19673418671007084,0.12113263498442971
144,8.978,8.65,0.64,0.27899193371685627,0.43749328080677247,0.017192345811250676,0.041973358331208674,0.19470064289419717,0.12101885090275681
145,9.0,8.71,0.63,0.2757772233448572,0.4292724308286214,0.01642264384520654,0.041139551413143814,0.19266637819255705,0.12094961574578995
146,9.06,8.76,0.63,0.2725528216305685,0.4211633360941175,0.01566291044006668,0.04033393491773128,0.19063295257442947,0.12092550257774413
147,9.122,8.82,0.63,0.26932034805743266,0.41316922846410453,0.014913824963500053,0.03955685981417639,0.18860190182636757,0.12094705234916958
148,9.183,8.87,0.66,0.26608143949792357,0.4052932097624116,0.014176065741594414,0.03880864865593856,0.1865747360004155,0.12101477390142559
149,9.244,8.93,0.69,0.26283774759568374,0.3975382511397159,0.01345030878470081,0.0380895953793741,0.1845529378971833,0.12112914399105748
150,9.286,8.98,0.67,0.2595909361493099,0.38990719254783474,0.012737226518318665,0.037399965130503914,0.18253796158551153,0.12129060733423186
151,9.346,9.04,0.67,0.2563426785012213,0.3824027423236243,0.01203748652106275,0.036739994121151906,0.18053123096051746,0.12149957667143715
152,9.407,9.09,0.7,0.25309465493510175,0.37502747688168325,0.011351750271814433,0.036109889515748214,0.17853413834193674,0.1217564328527052
153,9.468,9.15,0.67,0.24984855008550516,0.36778384051505225,0.010680671908252424,0.03550982935002911,0.17654804311478944,0.12206152494363286
154,9.51,9.2,0.64,0.24660605036327385,0.3606741453031083,0.010024896999049064,0.03493996248266109,0.17457427041448523,0.12241517035248102
155,9.572,9.26,0.65,0.2433688414004331,0.35370057112587755,0.009385061332084922,0.03440040858049283,0.17261410985853903,0.12281765497859247
156,9.654,9.31,0.61,0.24013860551820604,0.34686516578401105,0.008761789721078024,0.03389125813774977,0.17066881432709766,0.12326923338230102
157,9.716,9.37,0.56,0.23691701922176975,0.34016984522364957,0.008155694833032207,0.03341257252912345,0.16873959879445427,0.12377012897643115
158,9.737,9.42,0.54,0.2337057507253298,0.3336163938653728,0.007567376038868118,0.03296438409646489,0.16682763921365115,0.12432053423941784
159,9.779,9.48,0.49,0.23050645751103638,0.327206465036399,0.006997418289531127,0.0325466962686515,0.16493407145612943,0.12492061095000673
160,9.839,9.53,0.44,0.22732078392521177,0.32094158150514607,0.006446391019782671,0.032159483714120085,0.16305999030817284,0.12557049044343999
161,9.9,9.59,0.45,0.22415035881530646,0.31482313611718504,0.005914847081753594,0.031802692525567014,0.16120644852561578,0.12627027388899997
162,9.962,9.64,0.5,0.220996793210929,0.30885239253151414,0.005403321710178057,0.031476240436379775,0.15937445594797245,0.12702003258875225
163,10.022,9.7,0.49,0.21786167805219248,0.3030304860559503,0.004912331521072654,0.031180017068389174,0.15756497867285305,0.1278198082973004
164,10.084,9.75,0.49,0.2147465819684859,0.29735842458033546,0.00444237354549655,0.030913884210487966,0.15577893829133782,0.12866961356233653
165,10.104,9.81,0.52,0.21165304911065191,0.2918370896061553,0.0039939242999400305,0.03067767612755716,0.15401721118491996,0.12956943208573063
166,10.167,9.86,0.51,0.2085825970394825,0.28646723737103474,0.0035674388948554016,0.03047119989894765,0.1522806278846701,0.13051921910484968
167,10.209,9.92,0.49,0.20553671467340107,0.28124950006639604,0.0031633501828366942,0.030294235785525633,0.1505699724933424,0.13151890179375036
168,10.272,9.97,0.51,0.20251686029815405,0.2761843871463735,0.002782067947932258,0.030146537624116877,0.14888598217119128,0.132568379683844
169,10.333,10.03,0.5,0.19952445964128798,0.271272286725888,0.0024239781375431065,0.030027833248094098,0.14722934668629897,0.13366752510358815
170,10.373,10.08,0.46,0.196560904014148,0.26651346706560547,0.0020894421383296077,0.029937824932815372,0.14560070803022238,0.13481618363673098
171,10.476,10.14,0.44,0.19362754852407787,0.2619080781413667,0.001778796097500916,0.029876189864666457,0.14400066009975146,0.13601417459862233
172,10.497,10.19,0.42,0.19072571035941402,0.25745615329560473,0.0014923502907932295,0.029842580632572797,0.1424297484455219,0.1372612915300859
173,10.538,10.25,0.35,0.18785666714974325,0.25315761096824874,0.0012303885383654991,0.029836625740949266,0.14088847008811362,0.13855730270833017
174,10.6,10.3,0.31,0.18502165540372564,0.24901225650462203,0.0009931676697394864,0.029857930143119195,0.1393772734020746,0.13990195167436217
175,10.662,10.36,0.36,0.1822218690265912,0.2450197840378321,0.0007809170387718782,0.029906075794264537,0.13789655806804715,0.14129495777633444
176,10.722,10.41,0.35,0.1794584579192042,0.2411797784430819,0.0005938380894757161,0.02998062222295177,0.13644667509286867,0.14273601672819428
177,10.805,10.47,0.35,0.17673252666033593,0.2374917173612387,0.00043210397331179247,0.030081107120229197,0.13502792689722062,0.14422480118292857
178,10.826,10.52,0.38,0.17404513327350643,0.23395497328891585,0.00029585921837134525,0.030207046945252856,0.13364056747019237,0.14576096131962782
179,10.868,10.58,0.39,0.17139728807951,0.23056881573223983,0.000185219450721384,0.030357937546365614,0.13228480259003025,0.14734412544356118
180,10.951,10.63,0.38,0.16878995263556523,0.22733241342137495,0.00010027116809531917,0.030533254796534078,0.13096079011033412,0.14897390059849802
181,11.012,10.69,0.4,0.16622403876189965,0.22424483658279917,4.107156605241831e-05,0.030732455242102864,0.12966864031098987,0.15064987319060352
182,11.053,10.74,0.41,0.1637004076564748,0.22130505926630506,7.64841669219013e-06,0.030954976763943747,0.12840841631316782,0.1523716096233185
183,11.095,10.8,0.39,0.16121986909846409,0.21851196172373943,0.0,0.031200239250189738,0.12718013455775345,0.15413865694267254
184,11.217,10.85,0.36,0.15878318074100908,0.21586433283657405,1.8095087895654726e-05,0.03146764527984862,0.1259837653466002,0.15595054349248713
185,11.238,10.91,0.36,0.1563910474937107,0.21336087258946904,6.187298103942088e-05,0.031756580816694725,0.12481923344599838,0.15780677957890188
186,11.28,10.96,0.3,0.15404412099524709,0.2110001945870055,0.00013124359841802842,0.032066415912890715,0.12368641875170457,0.15970685814362243
187,11.341,11.02,0.25,0.15174299917641063,0.2087808286107415,0.00022608761966404683,0.03239650542178203,0.12258515701475028,0.16165025544524342
188,11.383,11.07,0.24,0.1494882259136917,0.2067012232137092,0.00034625667993796577,0.032746189719253534,0.121515240627043,0.16363643174793874
189,11.425,11.13,0.25,0.14728029077332372,0.20475974834940433,0.0004915736170388956,0.03311479543294128,0.12047641946549578,0.16566483201672821
190,11.487,11.18,0.25,0.14511962884544385,0.20295469803222468,0.0006618327702209618,0.03350163617846901,0.11946840179310349,0.16773488661844024
191,11.549,11.24,0.3,0.14300662066772452,0.20128429302624448,0.0008568003299863984,0.03390601330181271,0.11849085521508244,0.169846012027393
192,11.611,11.29,0.34,0.14094159223752808,0.19974668355919334,0.0010762147379470117,0.03432721662690338,0.11754340768798548,0.17199761153471751
193,11.652,11.35,0.33,0.13892481511138838,0.1983399520585384,0.001319787135732588,0.034764525207630056,0.11662564857963267,0.17418907596019953
194,11.734,11.4,0.34,0.13695650659046313,0.1970621159066316,0.0015872018618680996,0.03521720808352431,0.1157371297777426,0.17641978436553715
195,11.754,11.46,0.38,0.13503682999055464,0.1959111302119466,0.0018781169955156695,0.035684525038596766,0.11487736684526774,0.1786891047679655
196,11.817,11.51,0.37,0.1331658949953323,0.19488489059347594,0.002192164945958262,0.036165727363024334,0.11404584022056515,0.18099639485325253
197,11.921,11.57,0.36,0.13134375809143328,0.19398123597540623,0.002528953086660949,0.03666005861761477,0.11324199646063716,0.18334100268711528
198,11.942,11.62,0.38,0.12957042308411265,0.19319795138922885,0.002888064432680651,0.037166755401159636,0.11246524952575741,0.1857222674241263
199,11.983,11.68,0.35,0.12784584169207286,0.19253277078044176,0.003269058360132184,0.03768504812086148,0.11171498210384684,0.18813952001316414
200,12.024,11.73,0.31,0.12616991422004084,0.19198337981693372,0.0036714713663526023,0.03821416176601502,0.11099054697297978,0.19059208389844504
201,12.085,11.79,0.3,0.12454249030757943,0.1915474186960814,0.00409481786932226,0.03875331668510911,0.11029126840036312,0.19307927571514955
202,12.147,11.84,0.27,0.12296336975253154,0.191222484947552,0.004538591044823718,0.03930172936649269,0.10961644357604233,0.19560040597863426
203,12.189,11.9,0.24,0.12143230340740593,0.19100613622879517,0.005002263699769853,0.03985861322263722,0.10896534407942612,0.19815477976621967
204,12.292,11.95,0.26,0.11994899414690485,0.19089589311023597,0.005485289180101653,0.04042317937780109,0.10833721737649299,0.2007416973905761
205,12.314,12.01,0.32,0.11851309790465457,0.19088924184724315,0.005987102311641026,0.04099463745854501,0.1077312883452876,0.20336045506376327
206,12.374,12.06,0.32,0.11712422477703567,0.1909836371360385,0.0065071203722783175,0.04157219638613102,0.10714676082709171,0.20601034555100323
207,12.434,12.12,0.33,0.11578194019183874,0.19117650485081986,0.007044744093846141,0.042155065169533656,0.10658281920053214,0.20869065881327473
208,12.516,12.17,0.39,0.11448576613933298,0.19146524475947388,0.007599358691981555,0.04274245369767398,0.10603862997589907,0.21140068263781528
209,12.537,12.23,0.39,0.11323518246324571,0.19184723321532,0.008170334922245146,0.0433335735294465,0.1055133434070591,0.21413970325561607
210,12.578,12.28,0.39,0.11202962820908452,0.19231982582237067,0.008757030160753338,0.0439276386800646,0.10500609511849732,0.21690700594501303
211,12.64,12.34,0.42,0.11086850302716393,0.19288036007165157,0.009358789507570658,0.044523866402225144,0.10451600774517918,0.21970187562049856
212,12.701,12.39,0.42,0.1097511686276511,0.19352615794618264,0.00997494691111178,0.045121477960581545,0.10404219258307797,0.22252359740589112
213,12.764,12.45,0.38,0.10867695028492821,0.1942545284922743,0.010604826311822463,0.04571969939800851,0.10358375124834482,0.225371457191036
214,12.823,12.5,0.38,0.10764513838855912,0.1950627703548837,0.011247742803420599,0.04631776229219613,0.10313977734319286,0.22824474217128965
215,12.864,12.56,0.37,0.10665499003812139,0.19594817427493613,0.011903003809979645,0.04691490450124358,0.10270935812661486,0.23114274136914947
216,12.925,12.61,0.32,0.10570573067911868,0.19690802554674094,0.012569910277133922,0.04751037089708975,0.10229157618802927,0.23406474613752581
217,13.048,12.67,0.28,0.10479655577713123,0.19793960643386457,0.01324775787566152,0.048103414085798005,0.10188551112185346,0.2370100506442848
218,13.068,12.72,0.31,0.10392663252731758,0.1990401985419928,0.013935838215647093,0.04869329511387263,0.10149024120084416,0.23997795233777205
219,13.088,12.78,0.32,0.10309510159633896,0.20020708514739588,0.014633440069353545,0.049279284159857155,0.10110484504584458,0.24296775239303703
220,13.13,12.83,0.34,0.10230107889369636,0.20143755347964348,0.015339850600830885,0.04986066121045808,0.10072840328936229,0.2459787561384432
221,13.19,12.89,0.4,0.10154365736934401,0.20272889695725568,0.016054356600166863,0.05043671672041628,0.10036000023024493,0.24901027346228244
222,13.252,12.94,0.42,0.10082190883433745,0.2040784173749903,0.01677624572018503,0.051006752255320455,0.09999872547668168,0.25206161919894093
223,13.293,13.0,0.42,0.10013488580122935,0.20548342704145878,0.01750480771335328,0.051570081116538505,0.09964367557484961,0.25513211349412934
224,13.396,13.05,0.45,0.09948162334093383,0.2069412508657625,0.018239335666667723,0.05212602894749173,0.09929395562070778,0.25822108214868467
225,13.417,13.11,0.48,0.09886114095281993,0.20844922839190436,0.01897912723231484,0.05267393432062655,0.09894868085266188,0.2613278569404693
226,13.458,13.16,0.46,0.09827244444485893,0.2100047157798607,0.01972348585198797,0.05321314930459324,0.09860697822303378,0.2644517759239323
227,13.541,13.22,0.43,0.0977145278207318,0.21160508773238018,0.020471721972826883,0.05374304001129243,0.09826798794645791,0.26759218370696886
228,13.563,13.27,0.45,0.09718637517091536,0.2132477393667592,0.021223154253058527,0.05426298712257437,0.09793086502348217,0.2707484317048119
229,13.624,13.33,0.41,0.0966869625648871,0.2149300880309922,0.02197711075553861,0.054772386396430194,0.09759478073774594,0.2739198783708645
230,13.687,13.38,0.38,0.09621525994168117,0.21664957506381355,0.022732930127490412,0.055270649152517656,0.09725892412511629,0.27710588940462816
231,13.75,13.44,0.38,0.09577023299607341,0.21840366749824458,0.0234899627647779,0.05575720273685798,0.0969225034130957,0.28030583793713565
232,13.812,13.49,0.36,0.09535084505768704,0.22018985970830152,0.02424757195904396,0.05623149096550255,0.09658474742870765,0.2835191046944493
233,13.854,13.55,0.36,0.09495605896029606,0.22200567499851517,0.02500513502600038,0.05669297454690875,0.0962449069729294,0.2867450781398247
234,13.935,13.6,0.41,0.09458483889854914,0.2238486671359032,0.02576204441308655,0.05714113148272816,0.09590225615959962,0.28998315459511975
235,13.956,13.66,0.45,0.09423615226928234,0.22571642182404436,0.026517708784663828,0.05757545744668223,0.0955560937166185,0.29323273834198926
236,14.017,13.71,0.45,0.09390897149459422,0.2276065581188981,0.027271554082917766,0.05799546614116465,0.09520574424722399,0.29649324170340635
237,14.059,13.77,0.47,0.09360227582395965,0.22951672978598878,0.028023024562693014,0.05840068963122335,0.09485055944920523,0.29976408510610136
238,14.121,13.82,0.51,0.09331505311284514,0.23144462659854137,0.028771583798577437,0.05879067865566042,0.0944899192900898,0.3030446971245705
239,14.184,13.88,0.51,0.09304630157550033,0.2333879755761535,0.029516715662678474,0.05916500291507333,0.09412323313656402,0.3063345145073793
240,14.225,13.93,0.51,0.09279503150976748,0.235344542163651,0.030257925271665657,0.05952325133671164,0.093749940836604,0.3096329821865619
241,14.308,13.99,0.55,0.09256026699187243,0.2373121313498789,0.03099473990176126,0.05986503231605674,0.09336951375300874,0.312939553270964
242,14.35,14.04,0.52,0.09234104753926228,0.23928858872625164,0.031726709870447636,0.06018997393505468,0.09298145574722759,0.3162536890243747
243,14.412,14.1,0.48,0.09213642973964618,0.24127180148490618,0.03245340938372096,0.06049772415696243,0.09258530411254867,0.3195748588292559
244,14.491,14.15,0.48,0.09194548884446409,0.2432596993563171,0.033174437347759024,0.06078795099782425,0.09218063045584489,0.3229025401368366
245,14.512,14.21,0.46,0.09176732032505817,0.2452502554862735,0.03388941814391398,0.06106034267462518,0.09176704152714357,0.3262362184043032
246,14.572,14.26,0.41,0.09160104138984841,0.24724148725220177,0.034598002365996174,0.06131460773014896,0.0913441799962682,0.3295753870198163
247,14.613,14.32,0.4,0.0914457924607991,0.24923145701897056,0.03529986751885271,0.06155047513456967,0.0909117251757146,0.33291954721611444
248,14.674,14.37,0.45,0.09130073860740343,0.25121827283450904,0.035994718677255434,0.06176769436386711,0.09046939368878942,0.3362682079734669
249,14.735,14.43,0.45,0.09116507093633186,0.25320008906576746,0.036682289104105543,0.06196603545524499,0.09001694008189083,0.33962088591271494
250,14.777,14.48,0.47,0.09103800793481646,0.25517510697572027,0.03736234082694049,0.062145289039822124,0.08955415737969559,0.3429771051790926
251,14.86,14.54,0.53,0.0909187967658264,0.2571415752422231,0.03803466517172112,0.062305266352934895,0.08908087758200352,0.3463363973174713
252,14.901,14.59,0.53,0.0908067145131482,0.25909779041958586,0.038699083252926335,0.062445799222380444,0.08859697210109702,0.34969830113962075
253,14.943,14.65,0.54,0.09070106937457964,0.26104209734374956,0.03935544641908126,0.0625667400348577,0.08810235213867199,0.35306236258407026
254,15.004,14.7,0.59,0.09060120180154217,0.2629728894819932,0.04000363665296021,0.0626679616807835,0.08759696900164388,0.3564281345691374
255,15.046,14.76,0.6,0.09050648558353831,0.26488860922811575,0.04064356692583236,0.06274935747756885,0.08708081435639248,0.35979517683966217
256,15.129,14.81,0.58,0.0904163288760355,0.2667877481440363,0.0412751815052573,0.0628108410713345,0.08655392042126361,0.3631630558079569
257,15.232,14.87,0.58,0.09033017517052402,0.2686688471487644,0.04189845621608423,0.06285234631698097,0.086016360097394,0.3665313443894525
258,15.253,14.92,0.58,0.09024750420566362,0.27053049665575646,0.0425133986544651,0.06287382713653233,0.08546824703815623,0.36989962183350444
259,15.295,14.98,0.53,0.09016783281858944,0.2723713366597936,0.04312004835485089,0.06287525735574098,0.08490973565769838,0.37326747354983403
260,15.356,15.03,0.5,0.09009071573557602,0.27419005677467867,0.04371847691006469,0.06285663051909171,0.08434102107915264,0.37663449093112944
261,15.418,15.09,0.49,0.09001574630134931,0.2759853962232327,0.04430878804463239,0.06281795968353004,0.08376233902310966,0.3800002711723723
262,15.46,15.14,0.44,0.08994255714639038,0.277756143781205,0.044891117641615526,0.06275927719136153,0.0831739656369006,0.3833644170874688
263,15.519,15.2,0.42,0.08987082079158326,0.27950113767680035,0.045465633723218934,0.06268063442278779,0.0825762172651047,0.38672653692374875
264,15.622,15.25,0.48,0.08980025018954267,0.28121926544751835,0.046032536385420354,0.06258210152850892,0.08196945016153084,0.39008624417483834
265,15.642,15.31,0.49,0.08973059920195371,0.2829094637559081,0.046592057686807145,0.062463767142756976,0.08135406014275261,0.39344315739234
266,15.684,15.36,0.5,0.0896616630122686,0.2845707181657002,0.047144461491722627,0.06232573807708891,0.08073048218316463,0.39679689999668405
267,15.745,15.42,0.54,0.08959327847313443,0.2862020628796779,0.04769004326775215,0.06216813899531818,0.0800991899515407,0.4001471000874891
268,15.786,15.47,0.57,0.08952532438799923,0.2878025804406007,0.04822912983757534,0.06199111207006763,0.07946069528921891,0.4034933902537599
269,15.847,15.53,0.56,0.0894577217264896,0.2893714013964875,0.04876207908530158,0.06179481662152839,0.07881554763027214,0.40683540738428
270,15.888,15.58,0.58,0.08939043377335895,0.2909077039315873,0.049289279617553756,0.061579428739131026,0.07816433336428193,0.41017279247859945
271,15.949,15.64,0.61,0.0893234662110584,0.2924107134643825,0.049811150379739606,0.061345140886972314,0.07750767514259667,0.41350519045906126
272,16.011,15.69,0.59,0.08925686713625024,0.29387970221398224,0.05032814022813949,0.06109216149394094,0.07684623112919381,0.4168322499843519
273,16.072,15.75,0.57,0.08919072701083403,0.29531398873628845,0.05084072745860872,0.060820714529552046,0.07618069419748118,0.42015362326511074
274,16.093,15.8,0.58,0.08912517854827692,0.29671293743133953,0.05134941929281827,0.060531039066554715,0.07551179107456185,0.4234689658821459
275,16.154,15.86,0.54,0.08906039653624093,0.2980759580232027,0.05185475132304733,0.06022338883138088,0.07484028143463708,0.4267779366077543
276,16.215,15.91,0.48,0.08899659759665533,0.29940250501369964,0.052357286916599216,0.0598980317434542,0.07416695694330522,0.4300801972305541
277,16.278,15.97,0.46,0.08893403988446356,0.30069207711114293,0.052857616580935185,0.059555249444299324,0.0734926402545236,0.4333754123841284
278,16.339,16.02,0.45,0.08887302272628342,0.3019442166351676,0.05335635729063147,0.05919533681728205,0.07281818396193285,0.4366632493796881
279,16.38,16.08,0.44,0.08881388620015193,0.30315850889867185,0.05385415177726154,0.058818601498688165,0.07214446950610041,0.43994337804293127
280,16.44,16.13,0.47,0.08875701065737815,0.30433458156786414,0.05435166778326524,0.05842536338079512,0.07147240603905813,0.44321547055530697
281,16.482,16.19,0.52,0.08870281618734155,0.3054721040014664,0.05484959728081652,0.058015954107602255,0.07080292924736403,0.4464792012999299
282,16.545,16.24,0.51,0.08865176202593897,0.30657078657022396,0.05534865565669124,0.057590716563893904,0.07013700013487242,0.44973424671243545
283,16.607,16.3,0.52,0.08860434590834433,0.30763037995798687,0.05584958086417843,0.05715000435831241,0.06947560376647352,0.4529802851371121
284,16.689,16.35,0.57,0.08856110336680742,0.3086506744457101,0.05635313254315193,0.05669418130113568,0.06881974797424188,0.4562169966886827
285,16.71,16.41,0.55,0.08852260697435192,0.3096314991797164,0.05686009110950737,0.05622362087746242,0.06817046202765453,0.45944406312012026
286,16.752,16.46,0.54,0.08848946553537439,0.3105727214255046,0.057371256815240246,0.05573870571650408,0.06752879526976549,0.4626611676968854
287,16.813,16.52,0.57,0.08846232322427267,0.31147424580828925,0.05788744878048294,0.05523982705769504,0.06689581572143892,0.465867995077959
288,16.874,16.57,0.56,0.08844185867337774,0.31233601354133145,0.058409503998862196,0.05472738421434307,0.06627260865593868,0.46906423120403784
289,16.916,16.63,0.51,0.0884287840116269,0.31315800164298874,0.058938276317590424,0.054201784035553605,0.06566027514632825,0.4722495631932782
290,16.978,16.68,0.49,0.0884238438555642,0.3139402221433378,0.059474635393743126,0.0536634403672289,0.06505993058825044,0.4754236792450125
291,17.061,16.74,0.47,0.08842781425436508,0.3146827212812322,0.06001946562820394,0.053112773513056856,0.06447270320072279,0.47858626855188774
292,17.121,16.79,0.41,0.08844150159067378,0.31538557869270734,0.06057366507879073,0.05255020969650785,0.06389973250757704,0.48173702122090106
293,17.142,16.85,0.36,0.08846574143911892,0.31604890659169566,0.061138144354091165,0.05197618052495367,0.06334216780207597,0.48487562820384206
294,17.204,16.9,0.38,0.08850139738443748,0.3166728489440431,0.06171382548951664,0.051391122457115676,0.06280116659707473,0.4880017812376671
295,17.266,16.96,0.37,0.08854935980116839,0.31725758063580006,0.0623016408070343,0.05079547627509482,0.06227789306287192,0.49111517279531447
296,17.308,17.01,0.39,0.08861054459684115,0.31780330663674505,0.06290253175995637,0.05018968656221726,0.06177351645465926,0.494215496047411
297,17.368,17.07,0.45,0.08868589192052544,0.31831026116004585,0.06351744776407416,0.049574201187850865,0.061289209531303276,0.49730244483520625
298,17.451,17.12,0.45,0.08877636483860243,0.3187787068188339,0.06414734501636975,0.04894947080019565,0.060826146967136945,0.5003757136549316
299,17.492,17.18,0.44,0.08888294797969067,0.31920893378024057,0.06479318530254143,0.04831594832786047,0.060385503758514814,0.5034349976536356
300,17.532,17.23,0.46,0.08900664615076737,0.319601258917219,0.06545593479462367,0.04767408849088216,0.05996845362705173,0.506479992636442
301,17.593,17.29,0.47,0.08914848292663823,0.3199560249583302,0.0661365628400726,0.04702434732171222,0.05957616742166295,0.5095103950850957
302,17.634,17.34,0.44,0.08930949921503648,0.3202735996355939,0.06683604074382178,0.04636718169654752,0.05920981152169397,0.5125259021876508
303,17.695,17.4,0.43,0.08949075179977638,0.32055437483047894,0.0675553405449504,0.04570304887726793,0.05887054624355933,0.5155262118791958
304,17.8,17.45,0.44,0.08969331186453872,0.32079876571808336,0.06829543378972477,0.04503240606421227,0.05855952425340792,0.5185110228935816
305,17.821,17.51,0.39,0.08991826349998254,0.3210072099095535,0.0690572903028642,0.044355709960035274,0.05827788898839257,0.5214800348261743
306,17.882,17.56,0.35,0.09016670219691914,0.3211801665928163,0.06984187695892344,0.043673416344917386,0.05802677308912614,0.5244329482076552
307,17.943,17.62,0.34,0.09043973332825268,0.3213181156717408,0.07065015645566311,0.042985979663428556,0.05780729684585634,0.5273694645888504
308,17.984,17.67,0.29,0.09073847062229505,0.321421556903853,0.07148308609121842,0.04229385262331515,0.05762056666077995,0.5302892866364526
309,18.045,17.73,0.24,0.09106403462987368,0.3214910090367342,0.07234161654678313,0.04159748580637318,0.05746767352874243,0.5331921182393534
310,18.086,17.78,0.27,0.09141755118736929,0.32152700894325725,0.07322669067639515,0.04089732729145626,0.05734969153834283,0.5360776646251473
311,18.188,17.84,0.28,0.0918001498775449,0.3215301107558417,0.07413924230526311,0.04019382228956073,0.05726767639521112,0.5389456324862109
312,18.209,17.89,0.28,0.09221296248983667,0.32150088499989615,0.07508019503793488,0.03948741279084139,0.05722266396898052,0.5417957301146755
313,18.25,17.95,0.31,0.09265712148168462,0.32143991772659575,0.07605046107749021,0.03877853722339078,0.057215668865303444,0.5446276675456115
314,18.311,18.0,0.34,0.09313375844244895,0.32134780964516985,0.07705094005687452,0.038067630123662995,0.0572476830241998,0.5474411567078208
315,18.353,18.06,0.32,0.09364400256145253,0.3212251752549471,0.07808251788349288,0.03735512181848968,0.05731967434606877,0.5502359115817469
316,18.415,18.11,0.33,0.09418897910168783,0.32107264197751983,0.0791460655982158,0.03664143811871663,0.0574325853467956,0.5530116483640991
317,18.476,18.17,0.36,0.09476980788073804,0.3208908492894807,0.08024243824997235,0.035927000024590136,0.05758733184350599,0.5557680856388462
318,18.538,18.22,0.33,0.09538760176049757,0.3206804478562242,0.08137247378712674,0.03521222344308444,0.057784801672629685,0.5585049445542504
319,18.58,18.28,0.31,0.09604346514730819,0.32044209866729917,0.08253699196685085,0.03449751891735488,0.058025853442017154,0.5612219490056092
320,18.641,18.33,0.31,0.09673849250412266,0.32017647217380096,0.08373679328371218,0.03378329136844963,0.058311315318909894,0.5639188258233627
321,18.704,18.39,0.29,0.09747376687628168,0.319884247428306,0.08497265791870959,0.033069939849316304,0.05864198385558357,0.5665953049661842
322,18.786,18.44,0.23,0.09825035843243737,0.3195661112278996,0.08624534470999909,0.03235785731102616,0.05901862285444523,0.5692511197186512
323,18.807,18.5,0.2,0.09906932302205942,0.31922275726094257,0.08755559014653133,0.031647430381099316,0.05944196227426293,0.5718860068930812
324,18.888,18.55,0.18,0.09993170075081581,0.3188548852583834,0.08890410738576246,0.030939039153854417,0.0599126971790404,0.5744997070351068
325,18.909,18.61,0.16,0.10083851457494586,0.3184632001505877,0.0902915852965176,0.030233056992758082,0.0604314867308126,0.577091964632563
326,18.973,18.66,0.19,0.10179076891556438,0.3180484112307906,0.09171868752797512,0.029529850344774945,0.06099895322734642,0.5796625283272776
327,19.033,18.72,0.25,0.10278944829369645,0.31761123132631724,0.093186051605614,0.028829778566701044,0.06161568118544564,0.5822111511293401
328,19.075,18.77,0.24,0.10383551598676805,0.31715237597866314,0.09469428805487223,0.02813319376336643,0.062282216470352876,0.5847375906334075
329,19.135,18.83,0.24,0.10492991270724981,0.31667256263343896,0.09624397955321766,0.02744044063742882,0.0629990654716695,0.5872416092365581
330,19.198,18.88,0.29,0.10607355530415276,0.31617250984110457,0.09783568011132707,0.026751856350304516,0.06376669432627427,0.5897229743571418
331,19.259,18.94,0.3,0.10726733548810737,0.31565293646933745,0.0994699142840968,0.026067770393627652,0.06458552818885233,0.5921814586539956
332,19.3,18.99,0.28,0.10851211858080452,0.31511456092781037,0.10114717641223286,0.02538850447054702,0.06545595055077888,0.59461684024534
333,19.341,19.05,0.29,0.10980874228961142,0.31455810040612986,0.10286792989516795,0.024714372386233304,0.06637830260821925,0.5970289029266598
334,19.425,19.1,0.29,0.11115801550821684,0.3139842701256998,0.10463260649605446,0.02404567994712206,0.06735288268040841,0.5994174363868878
335,19.485,19.16,0.25,0.11256071714422111,0.31339378260631057,0.10644160567962352,0.02338272486854785,0.06837994567914223,0.601782236422277
336,19.527,19.21,0.22,0.11401759497465074,0.312787346948307,0.10829529398375659,0.022725796690530202,0.06945970263052505,0.6041231051474458
337,19.568,19.27,0.22,0.11552936453043053,0.3121656681312297,0.11019400442566554,0.022075176701563545,0.0705923202499699,0.6064398512032018
338,19.629,19.32,0.16,0.1170967080108693,0.3115294463298395,0.11213803594360018,0.02143113787031729,0.07177792057132662,0.6087322899608367
339,19.689,19.38,0.12,0.11872027322918906,0.31087937624841555,0.11412765287497167,0.02079394478516936,0.07301658063081974,0.6110002437226418
340,19.751,19.43,0.14,0.12040067259005935,0.3102161464741767,0.11616308447168944,0.02016385360147512,0.07430833220622732,0.6132435419183964
341,19.792,19.49,0.15,0.12213848210001359,0.3095404388505682,0.11824452445338841,0.019541111996377782,0.07565316161144046,0.6154620212975243
342,19.855,19.54,0.17,0.12393424041153506,0.3088529278709955,0.12037213059909206,0.018925959130820347,0.07705100954624787,0.6176555261165441
343,19.917,19.6,0.21,0.12578844790150917,0.30815428009340146,0.12254602437772757,0.018318625618312632,0.07850177100095448,0.619823908321358
344,19.998,19.65,0.23,0.12770156578468078,0.3074451535759209,0.1247662906178183,0.017719333499958738,0.08000529521532912,0.6219670277238818
345,20.058,19.71,0.22,0.1296740152627476,0.3067261973337139,0.1270329772166331,0.017128296225261786,0.08156138569138038,0.6240847521725178
346,20.079,19.76,0.25,0.13170617670974194,0.30599805081700826,0.12934609488903484,0.01654571863831942,0.08316980025954533,0.6261769577160404
347,20.12,19.82,0.3,0.1337983888943853,0.30526134341036004,0.13170561695622915,0.015971796969181634,0.08483025119798124,0.6282435287605594
348,20.182,19.87,0.28,0.13595094824014112,0.3045166939531542,0.13411147917459285,0.01540671883026792,0.08654240540475094,0.6302843582193276
349,20.222,19.93,0.26,0.1381641081237188,0.3037647102814066,0.13656357960474869,0.014850663217823634,0.08830588462278209,0.6322993476552244
350,20.284,19.98,0.28,0.1404380782128089,0.30300598879097035,0.13906177852103527,0.01430380051846254,0.09012026571757283,0.6342884074157596
351,20.408,20.04,0.24,0.14277302384385895,0.3022411140222462,0.1416058983614977,0.013766292520873646,0.09198508100767706,0.6362514567604088
352,20.429,20.09,0.2,0.14516906544071087,0.3014706582664387,0.14419572371848657,0.013238292432760205,0.0938998186479944,0.6381884239800714
353,20.449,20.15,0.18,0.14762627797488698,0.3006951811933296,0.14683100136989322,0.012719944903050225,0.0958639230658054,0.6400992465084001
354,20.51,20.2,0.15,0.1501446904682404,0.29991522950044064,0.1495114403509765,0.012211386049360316,0.09787679544933642,0.6419838710247161
355,20.552,20.26,0.14,0.15272428553859904,0.29913133658334035,0.15223671206665507,0.011712743490628853,0.0999377942884048,0.6438422535481966
356,20.612,20.31,0.17,0.15536499898893208,0.2983440222267505,0.1550064504440229,0.011224136384848054,0.1020462359664054,0.6456743595230466
357,20.674,20.37,0.22,0.15806671944045714,0.2975537923160777,0.1578202521247114,0.010745675471931865,0.10420139540261117,0.6474801638943988
358,20.756,20.42,0.22,0.16082928800999838,0.2967611385690442,0.1606776766966154,0.010277463121875855,0.10640250674353748,0.6492596511747292
359,20.777,20.48,0.24,0.1636524980318108,0.2959665382871944,0.16357824696444556,0.009819593388427734,0.10864876410201463,0.6510128155006427
360,20.838,20.53,0.3,0.16653609482404294,0.2951704541271529,0.16652144925858284,0.00937215206845343,0.11093932234263033,0.6527396606799405
361,20.88,20.59,0.29,0.16947977549999688,0.29437333389156606,0.16950673378177564,0.008935216767035051,0.11327329791229951,0.6544402002289328
362,20.943,20.64,0.29,0.17248318882432964,0.2935756103396841,0.17253351499328973,0.008508856968145528,0.11564976971484346,0.65611445739998
363,21.004,20.7,0.33,0.17554593511429542,0.29277770101755335,0.1756011720301546,0.008093134110591187,0.11806778002858942,0.6577624651992239
364,21.108,20.75,0.31,0.17866756618610996,0.29198000810775276,0.1787090491651684,0.007688101668796423,0.12052633546611159,0.6593842663944511
365,21.129,20.81,0.28,0.18184758534652434,0.2911829182985284,0.18185645630133046,0.007293805237942272,0.12302440797530505,0.6609799135130404
366,21.169,20.86,0.28,0.18508544742970223,0.29038680267212585,0.1850426695023343,0.006910282623029237,0.1255609358810037,0.6625494688300139
367,21.23,20.92,0.27,0.18838055887947355,0.2895920166121311,0.18826693155869836,0.006537563931587888,0.128134824966322,0.6640930043462995
368,21.271,20.97,0.22,0.1917322778769908,0.28879889972968575,0.19152845258905515,0.0061756716699172065,0.13074494959280253,0.6656106017574083
369,21.353,21.03,0.19,0.1951399145137424,0.28800777580850573,0.19482641067606332,0.005824620842872564,0.13339015385828837,0.667102352412801
370,21.394,21.08,0.23,0.19860273100979908,0.28721895276867426,0.19815995253632676,0.0054844190573576515,0.13606925279123008,0.6685683572662314
371,21.476,21.14,0.23,0.2021199419770735,0.28643272264918895,0.20152819422360352,0.005155066629741045,0.13878103357989083,0.670008726817304
372,21.496,21.19,0.25,0.20569071472726108,0.2856493616092314,0.2049302218644554,0.004836556697400497,0.1415242568346675,0.6714235810444
373,21.538,21.25,0.31,0.20931416962401114,0.284869129948097,0.20836509242535295,0.0045288753345200565,0.14429765788155452,0.6728130493290242
374,21.6,21.3,0.34,0.21298938047881943,0.28409227214363475,0.21183183451014348,0.004232001672145508,0.14709994808469265,0.6741772703715339
375,21.662,21.36,0.38,0.2167153749901344,0.2833190169089121,0.21532944918673605,0.0039459080223860354,0.1499298161959675,0.675516392098175
376,21.724,21.41,0.41,0.22049113522521244,0.2825495772666888,0.21885691084184342,0.0036705600065932383,0.15278592972973556,0.6768305715593136
377,21.766,21.47,0.43,0.22431559814432775,0.28178415064118845,0.22241316806265585,0.0034059166873304297,0.1556669363609413,0.6781199748187113
378,21.848,21.52,0.41,0.2281876561670409,0.2810229189666009,0.22599714454440384,0.0031519307039384005,0.15857146534511057,0.6793847768336525
379,21.868,21.58,0.41,0.23210615778034385,0.28026604881174694,0.22960774002285747,0.0029085484115557456,0.16149812895891177,0.6806251613257396
380,21.929,21.63,0.43,0.23606990818862517,0.27951369152037003,0.23324383123089276,0.0026757100235726846,0.1644455239601321,0.6818413206422249
381,21.991,21.69,0.39,0.2400776700054985,0.2787659833665834,0.23690427287832724,0.0024533497576156435,0.1674122330659824,0.683033455607837
382,22.032,21.74,0.35,0.2441281639875826,0.2780230457250876,0.24058789865426558,0.002241395985244894,0.17039682644863527,0.6842017753671399
383,22.093,21.8,0.36,0.24822006981029343,0.27728498525586176,0.2442935222511802,0.0020397713855962274,0.17339786324682502,0.6853464972175088
384,22.154,21.85,0.33,0.2523520268856421,0.27655189410306347,0.24801993840989955,0.0018483931031679668,0.17641389309221125,0.6864678464328025
385,22.215,21.91,0.31,0.25652263522192165,0.27582385010782556,0.25176592398458947,0.0016671729098461966,0.17944345764901082,0.6875660560778145
386,22.257,21.96,0.36,0.26073045632502206,0.27510091703455025,0.25553023902669164,0.0014960173711333835,0.18248509216517236,0.6886413668135737
387,22.318,22.02,0.39,0.2649740141409742,0.2743831448101932,0.2593116278866616,0.0013348280164130377,0.1855373270331365,0.6896940266935299
388,22.38,22.07,0.4,0.2692517960392329,0.2736705697759187,0.2631088203322654,0.0011835015129437287,0.18859868935804083,0.6907242909506481
389,22.421,22.13,0.43,0.2735622538361789,0.2729632149504249,0.2669205326821624,0.0010419298431785392,0.1916677045311465,0.6917324217754505
390,22.483,22.18,0.47,0.27790380485832694,0.27226109030421175,0.2707454689535328,0.0009100004849717924,0.1947428978062883,0.6927186880851163
391,22.585,22.24,0.48,0.2822748330447549,0.27156419304408563,0.2745823220225856,0.000787596594232662,0.19782279587724855,0.6936833652838374
392,22.627,22.29,0.49,0.2866736900882687,0.27087250790728074,0.2784297747968655,0.0006745971896165402,0.20090592845408323,0.6946267350147318
393,22.647,22.35,0.55,0.2910986966148057,0.27018600746468363,0.28228650139833494,0.0005708773388991105,0.20399082983656422,0.6955490849036969
394,22.707,22.4,0.52,0.2955481434005563,0.26950465243272853,0.28615116835624826,0.0004763083466955034,0.20707604048304318,0.6964507082956245
395,22.748,22.46,0.49,0.300020292626249,0.26882839199356134,0.2900224358088544,0.0003907579431685307,0.2101601085731717,0.6973319039833998
396,22.808,22.51,0.51,0.304513379167991,0.26815716412306706,0.29389895871294885,0.0003140904733631349,0.21324159156301187,0.6981929759300879
397,22.868,22.57,0.5,0.3090256119240159,0.2674908959262967,0.2977793880602696,0.00024616708679705613,0.21631905773111004,0.6990342329846901
398,22.971,22.62,0.46,0.31355517517668346,0.2668295039797158,0.301662372099711,0.00018684592693612103,0.21939108771406535,0.6998559885918837
399,22.992,22.68,0.44,0.3181002299890632,0.26617289467957334,0.30554655756429766,0.00013598232024571028,0.2224562760300215,0.700658560496229
400,23.054,22.73,0.47,0.32265891563539745,0.2655209645956146,0.30943059090181557,9.342896463824714e-05,0.22551323258837352,0.7014422704413941
401,23.115,22.79,0.49,0.3272293510646522,0.26487360082935313,0.3133131195079377,5.903611726765391e-05,0.22856058418381148,0.7022074438650017
402,23.157,22.84,0.51,0.331809636396227,0.2642306813761744,0.31719279296061187,3.2651781738023906e-05,0.23159697597264378,0.7029544095897484
403,23.219,22.9,0.57,0.33639785444676906,0.2635920754906128,0.32106826425440466,1.4121894889421284e-05,0.23462107292921522,0.7036834995114692
404,23.302,22.95,0.58,0.34099207228694606,0.2629576440541769,0.3249381910334614,3.2905133499961274e-06,0.23763156128020635,0.7043950482848104
405,23.323,23.01,0.59,0.3455903428269685,0.26232723994511803,0.3288012368217524,0.0,0.2406271499146743,0.7050893930071501
406,23.365,23.06,0.65,0.3501907064295715,0.26170070840956644,0.3326560722493034,4.09121041928795e-06,0.24360657176784026,0.7057668729013639
407,23.426,23.12,0.67,0.3547911925490897,0.2610778874334674,0.3365013762731448,1.5403679277307713e-05,0.2465685851768049,0.7064278289979785
408,23.468,23.17,0.66,0.35938982139519954,0.26045860811473204,0.3403358373917504,3.377580650765319e-05,0.24951197520655236,0.7070726038172148
409,23.53,23.23,0.67,0.3639846056198455,0.25984269503502117,0.34415815485173756,5.9045043090820525e-05,0.25243555494477776,0.707701541051401
410,23.591,23.28,0.69,0.36857355202578823,0.259229966630664,0.34796703984561483,9.104807637919375e-05,0.2553381667642419,0.7083149852482402
411,23.672,23.34,0.66,0.37315466329512115,0.25862023556237324,0.3517612166993934,0.00012962101506833087,0.25821868355148186,0.7089132814954335
412,23.693,23.39,0.63,0.3777259397360009,0.258013309083614,0.35553942404892497,0.0001745995740962572,0.26107600990078444,0.7094967751071914
413,23.756,23.45,0.64,0.3822853810457465,0.2574089894076582,0.35930041600384427,0.00022581925988658823,0.26390908327235596,0.7100658113131608
414,23.797,23.5,0.61,0.386830988088376,0.2568070740734764,0.36304296329801256,0.0002831155563595472,0.266716875113576,0.7106207349502618
415,23.857,23.56,0.62,0.3913607646845328,0.2562073563106805,0.36676585442533793,0.00034632411200437974,0.269498391942112,0.7111618901578732
416,23.937,23.61,0.69,0.39587271941158675,0.25560962540375587,0.3704678967598078,0.00041528092809345584,0.27225267638951706,0.7116896200767333
417,23.958,23.67,0.72,0.40036486741150523,0.2550136670557999,0.3741479176585065,0.0004898225478701035,0.274978808203801,0.7122042665518342
418,24.04,23.72,0.73,0.40483523220389384,0.2544192637519219,0.37780476554634496,0.0005697862463171824,0.27767590520941626,0.7127061698395194
419,24.081,23.78,0.77,0.4092818475014322,0.25382619512243265,0.3814373109812023,0.0006550102200069527,0.28034312422316565,0.7131956683189484
420,24.122,23.83,0.8,0.41370275902482,0.25323423830595887,0.3850444476981987,0.0007453337765466169,0.28297966192471224,0.7136730982080691
421,24.184,23.89,0.8,0.41809602631433035,0.25264316831265127,0.3886250936318677,0.0008405975232420848,0.285584755680583,0.7141387932842399
422,24.267,23.94,0.8,0.4224597245351349,0.2520527583876736,0.39217819191503306,0.0009406435548048733,0.288157684320772,0.7145930846096875
423,24.308,24.0,0.83,0.426791946273691,0.2514627803751402,0.3957027118532152,0.0010453156401751896,0.2906977688672473,0.715036300262024
424,24.411,24.05,0.81,0.4310908033226231,0.2508730050826036,0.3991976498734375,0.0011544594087238727,0.2932043732138202,0.715468765070102
425,24.432,24.11,0.78,0.43535442845165756,0.250283202646117,0.4026620304463566,0.0012679225362038098,0.2956769047569461,0.7158908003555285
426,24.473,24.16,0.8,0.43958097716225686,0.24969314289580966,0.4060949069806843,0.0013855549308608483,0.2981148149770847,0.7163027236801666
427,24.536,24.22,0.76,0.44376862942372,0.24910259572178609,0.4094953626888956,0.0015072089200720592,0.3005175999702687,0.7167048485999011
428,24.577,24.27,0.72,0.44791559138863835,0.24851133143999332,0.41286251142320746,0.0016327394377826428,0.30288480092948894,0.7170974844248613
429,24.637,24.33,0.75,0.4520200970856897,0.24791912115755885,0.41619549848074955,0.0017620042129417297,0.3052160045754154,0.7174809359862022
430,24.678,24.38,0.79,0.45608041008776506,0.24732573713702374,0.4194935013767517,0.0018948639590949203,0.3075108435358364,0.7178555034094812
431,24.781,24.44,0.79,0.46009482515340355,0.2467309531588559,0.4227557305844957,0.002031182565248827,0.3097689966730421,0.7182214818946495
432,24.802,24.49,0.85,0.4640616698395113,0.24613454488159184,0.42598143024073126,0.002170827288104051,0.3119901893582637,0.7185791615026802
433,24.843,24.55,0.9,0.46797930608339966,0.24553629019891973,0.4291698788152645,0.002313668945766838,0.3141741936922886,0.7189288269488658
434,24.906,24.6,0.9,0.47184613175227463,0.24493596959301073,0.43232038974350767,0.002459582113050949,0.31632082867149897,0.719270757402799
435,24.946,24.66,0.91,0.47566058215839746,0.24433336648347334,0.43543231202088156,0.00260844531847964,0.318429960298804,0.7196052262950098
436,25.007,24.71,0.96,0.47942113153820937,0.2437282675714095,0.43850503075806646,0.002760141243105764,0.3205015016391949,0.7199325011301564
437,25.068,24.77,0.95,0.4831262944938155,0.2431204631781093,0.4415379676961974,0.0029145569212361395,0.3225354128199057,0.7202528433065767
438,25.151,24.82,0.94,0.48677462739532706,0.24250974757791796,0.4445305816811991,0.0030715839430564967,0.32453170097538486,0.7205665079419515
439,25.172,24.88,0.95,0.4903647297426566,0.24189591932478313,0.44748236909655237,0.0032311186590640814,0.3264904201374684,0.7208737437048138
440,25.233,24.93,0.94,0.4938952454854388,0.2412787815719646,0.4503928642538919,0.003393062386143884,0.32841167107129116,0.7211747926516343
441,25.294,24.99,0.9,0.4973648642998421,0.2406581423843532,0.4532616397409502,0.003557321615067125,0.3302956010575619,0.7214698900692655
442,25.356,25.04,0.88,0.5007723228211344,0.2400338150428053,0.4560883067264678,0.0037238082191858248,0.332142403621848,0.7217592643225975
443,25.397,25.1,0.87,0.5041164058309496,0.23940561833987453,0.4588725152217513,0.003892439664139525,0.3339523182114854,0.7220431367073668
444,25.458,25.15,0.84,0.5073959473982493,0.238773376866315,0.461613954298597,0.0040631392184333264,0.33572562982062565,0.7223217213081279
445,25.52,25.21,0.85,0.5106098319729561,0.23813692128775849,0.464312352263278,0.004235836164774572,0.3374626685637775,0.7225952248614581
446,25.562,25.26,0.91,0.5137569954311771,0.23749608861101543,0.46696747678623646,0.004410466012018342,0.33916380919801553,0.7228638466244811
447,25.623,25.32,0.93,0.5168364260708556,0.23685072243949298,0.46957913498707443,0.004586970707378434,0.34082947059387986,0.7231277782487844
448,25.664,25.37,0.93,0.5198471655565955,0.23620067321727345,0.4721471734744406,0.004765298848237547,0.3424601151549356,0.7233872036597684
449,25.727,25.43,0.97,0.5227883098123263,0.23554579846146043,0.47467147834046,0.004945405892588981,0.34405624818603003,0.7236422989414515
450,25.788,25.48,1.0,0.5256590098604442,0.2348859629824495,0.4771519751094622,0.005127254366936381,0.34561841721045117,0.7238932322267343
451,25.872,25.54,1.0,0.5284584726061474,0.23422103909177575,0.47958862864091845,0.005310814070361714,0.3471472112363904,0.7241401635931609
452,25.893,25.59,1.02,0.5311859615658148,0.23355090679718069,0.48198144298666606,0.00549606227345031,0.3486432599733164,0.7243832449642832
453,25.936,25.65,1.04,0.533840797538458,0.2328754539845605,0.48433046120269757,0.005682983910814131,0.3501072329990667,0.7246226200168095
454,25.996,25.7,1.03,0.536422359219438,0.23219457658653928,0.4866357651159943,0.005871571766034596,0.35153983887864915,0.7248584240937949
455,26.057,25.76,1.0,0.5389300837557947,0.23150817873752758,0.48889747504707803,0.006061826647968599,0.3529418242359073,0.7250907841241833
456,26.119,25.81,1.01,0.5413634672426795,0.23081617291522863,0.49111574948908576,0.006253757557523493,0.3543139727793294,0.7253198185490368
457,26.16,25.87,0.96,0.5437220651605174,0.2301184800685795,0.49329078474425914,0.006447381844132914,0.35565710428335245,0.7255456372547598
458,26.24,25.92,0.92,0.5460054927526149,0.22941502973208416,0.49542281451876835,0.006642725351239014,0.35697207352651283,0.7257683415135924
459,26.281,25.98,0.92,0.5482134253429453,0.22870576012644436,0.4975121094767485,0.0068398225501557506,0.3582597691877197,0.7259880239315873
460,26.341,26.03,0.95,0.5503455985938208,0.22799061824531228,0.49955897675432037,0.007038716661773608,0.35952111270178994,0.7262047684042375
461,26.382,26.09,0.95,0.5524018087031421,0.22726955992787476,0.501563759434211,0.007239459765681567,0.3607570570751942,0.7264186500798803
462,26.462,26.14,0.98,0.5543819125408903,0.22654254991687417,0.5035268359814107,0.007442112896463423,0.3619685856628017,0.7266297353310204
463,26.524,26.2,1.02,0.55628582772454,0.22580956190163146,0.5054486196401766,0.007646746127124775,0.3631567109063395,0.7268380817337293
464,26.545,26.25,1.03,0.5581135326331198,0.22507057854566623,0.5073295577926955,0.00785343863975325,0.3643224730353258,0.7270437380553252
465,26.607,26.31,1.04,0.5598650663597841,0.22432559149857142,0.5091701312797998,0.008062278783627225,0.36546693873137426,0.727246744250596
466,26.669,26.36,1.09,0.5615405286029729,0.2235746013918444,0.510970853684253,0.008273364121089154,0.3665911997569537,0.7274471314668678
467,26.732,26.42,1.07,0.5631400794965024,0.22281761781836315,0.5127322705772561,0.008486801461541784,0.3676963715498945,0.7276449220582158
468,26.772,26.47,1.06,0.5646639393791543,0.22205465929516738,0.5144549587289617,0.008702706883903772,0.3687835917851345,0.727840129609088
469,26.854,26.53,1.08,0.5661123885044949,0.22128575320920166,0.5161395252838937,0.008921205747824809,0.36985401890537756,0.7280327589675692
470,26.915,26.58,1.07,0.5674857666917598,0.22051093574569078,0.5177866069022726,0.009142432693905262,0.37090883062248253,0.7282228062884846
471,26.977,26.64,1.03,0.5687844729187366,0.2197302517988236,0.5193968688683481,0.009366531633116319,0.3719492223914941,0.7284102590865317
472,26.998,26.69,1.02,0.5700089648576475,0.21894375486445333,0.5209710041669015,0.009593655725643786,0.37297640585926434,0.7285950962996514
473,27.038,26.75,1.0,0.5711597583550626,0.21815150691460633,0.5225097325291159,0.009823967349489877,0.3739916072896044,0.7287772883628629
474,27.099,26.8,0.99,0.5722374268568767,0.21735357825373058,0.5240137994490351,0.010057638059296933,0.37499606596683216,0.7289567972928113
475,27.159,26.86,0.99,0.5732426007793521,0.2165500473567684,0.5254839751718172,0.010294848535978755,0.3759910325794616,0.7291335767832836
476,27.221,26.91,1.04,0.5741759668272101,0.2157410006892569,0.5269210536549729,0.010535788527837197,0.3769777675856372,0.7293075723119187
477,27.262,26.97,1.04,0.57503826725977,0.214926532509705,0.5283258515037348,0.010780656783850704,0.37795753956181505,0.7294787212582592
478,27.345,27.02,1.04,0.5758302991061474,0.21410674465449633,0.5296992068816943,0.011029660979737574,0.3789316235361636,0.7296469530332178
479,27.386,27.08,1.09,0.576552913330564,0.21328174630556104,0.5310419783978478,0.011283017637228837,0.3799012993082211,0.7298121892199616
480,27.426,27.13,1.11,0.5772070139488764,0.2124516537410336,0.5323550439712836,0.011540952036717659,0.3808678497564754,0.7299743437261688
481,27.489,27.19,1.1,0.5777935570975281,0.21161659006908018,0.5336392996748515,0.011803698123150762,0.3818325591356889,0.7301333229475812
482,27.55,27.24,1.12,0.5783135500562273,0.2107766849450785,0.5348956585592796,0.01207149840485143,0.3827967113659543,0.7302890259427486
483,27.61,27.3,1.12,0.5787680502257714,0.20993207427240254,0.5361250494593006,0.012344603844961093,0.3837615883156412,0.7304413446188236
484,27.651,27.35,1.1,0.5791581640625656,0.20908289988717108,0.5373284157834453,0.01262327374528986,0.3847284680805519,0.7305901639282404
485,27.753,27.41,1.04,0.5794850459715214,0.20822930922744148,0.53850671428923,0.01290777562254772,0.3856986232617201,0.7307353620761117
486,27.773,27.46,1.06,0.5797498971591455,0.20737145498742351,0.5396609138454989,0.013198385077123549,0.38667331924435316,0.7308768107381824
487,27.835,27.52,0.96,0.5799539644487192,0.20650949475734404,0.5407919941836918,0.013495385654673111,0.38765381248040215,0.7310143752891706
488,27.876,27.57,0.91,0.5800985390594835,0.20564359064964274,0.5419009446398001,0.013799068700717084,0.3886413487771261,0.731147915041312
489,27.938,27.63,0.95,0.5801849553516408,0.20477390891224637,0.5429887628887229,0.014109733208291786,0.3896371615937987,0.7312772834928957
490,28.0,27.68,0.97,0.5802145895387666,0.20390061952973743,0.54405645367265,0.0144276856585012,0.3906424703484079,0.7314023285865248
491,28.083,27.74,0.97,0.5801888583689597,0.2030238958133047,0.545105027524987,0.014753239853664992,0.3916584787358882,0.7315228929767925
492,28.103,27.79,1.01,0.5801092177757973,0.20214391398045603,0.5461354994912034,0.015086716742725985,0.39268637305920506,0.7316388143069887
493,28.164,27.85,1.04,0.5799771614999976,0.20126085272560024,0.5471488878478856,0.01542844423865087,0.3937273205745411,0.731749925494367
494,28.205,27.9,1.03,0.5797942196826783,0.2003748927827484,0.5481462128212647,0.015778757027652017,0.39478246785189336,0.7318560550234682
495,28.267,27.96,1.05,0.5795619574311608,0.1994862164817153,0.5491284953065376,0.016137996370170677,0.3958529391525168,0.731957027247017
496,28.329,28.01,1.08,0.5792819733584206,0.1985950072992987,0.5500967555893956,0.01650650989369273,0.3969398348247913,0.7320526626939564
497,28.39,28.07,1.06,0.5789558980974249,0.1977014494069763,0.5510520120712795,0.01688465137757931,0.39804422972022974,0.7321427783842308
498,28.452,28.12,1.05,0.578585392791691,0.19680572721673875,0.5519952799999703,0.017272780530180575,0.39916717163146603,0.7322271881499538
499,28.472,28.18,1.07,0.5781721475634413,0.1959080249267646,0.5529275702071831,0.01767126275854275,0.40030967975415865,0.7323057029626161
500,28.535,28.23,1.04,0.577717879960781,0.19500852606867133,0.5538498878548651,0.0180804689309565,0.4014727431748108,0.7323781312659544
501,28.595,28.29,0.99,0.5772243333853724,0.19410741305801568,0.5547632311919163,0.018500775132457018,0.40265731938651966,0.7324442793140624
502,28.635,28.34,0.99,0.5766932755021005,0.19320486674962473,0.555668590323002,0.018932562413297497,0.40386433283463097,0.7325039515142396
503,28.696,28.4,0.96,0.5761264966321983,0.19230106599926253,0.5565669459910635,0.019376216530410904,0.4050946734941824,0.732556950773984
504,28.757,28.45,0.95,0.5755258081312544,0.1913961872330962,0.5574592683750494,0.019832127681894986,0.40634919548086756,0.7326030788514564
505,28.819,28.51,0.97,0.5748930407534705,0.1904904040264121,0.5583465159042952,0.02030069023460621,0.40762871569705333,0.7326421367087032
506,28.882,28.56,1.01,0.5742300430034815,0.18958388669303325,0.5592296340908656,0.020782302445018542,0.40893401251418304,0.7326739248669039
507,28.943,28.62,1.02,0.5735386794769922,0.18867680188686145,0.5601095543810863,0.021277366173540115,0.41026582449275023,0.7326982437629024
508,29.026,28.67,1.02,0.5728208291914562,0.18776931221690407,0.5609871930274195,0.0217862865924892,0.41162484914096514,0.7327148941062854
509,29.047,28.73,1.07,0.5720783839080334,0.18686157587702457,0.5618634499817853,0.022309471887944098,0.4130117417132773,0.732723677236307
510,29.087,28.78,1.07,0.5713132464461739,0.18595374629146547,0.5627392078113969,0.02284733295567816,0.4144271140500189,0.7327243954779737
511,29.19,28.84,1.06,0.5705273289923021,0.18504597177697543,0.5636153306381688,0.023400283091363862,0.41587153345955885,0.7327168524966348
512,29.21,28.89,1.08,0.5697225514042182,0.18413839522216452,0.5644926631027772,0.023968737675210055,0.4173455216444789,0.7327008536504478
513,29.251,28.95,1.08,0.5689008395129526,0.18323115378453583,0.5653720293545024,0.02455311385117108,0.41884955367340393,0.7326762063401017
514,29.315,29.0,1.05,0.5680641234239405,0.18232437860550654,0.5662542320680678,0.025153830200810846,0.4203840570002045,0.732642720355232
515,29.355,29.06,1.03,0.5672143358195227,0.18141819454366614,0.567140051488766,0.025771306411870906,0.4219494105323367,0.7326002082170394
516,29.416,29.11,1.03,0.5663534102648571,0.18051271992652243,0.5680302445072202,0.026405962941608623,0.42354594375007515,0.7325484855167087
517,29.477,29.17,0.98,0.5654832795193531,0.1796080663210609,0.5689255437651467,0.02705822067500943,0.4251739358783313,0.7324873712493004
518,29.56,29.22,0.93,0.5646058738556569,0.17870433832358143,0.5698266567934439,0.027728500578021193,0.42683361511262136,0.7324166881428268
519,29.58,29.28,0.98,0.5637231193880682,0.17780163336941243,0.5707342651838044,0.028417223346012828,0.4285251579005678,0.7323362629822258
520,29.662,29.33,0.99,0.5628369364121231,0.17690004156313954,0.5716490237948757,0.029124809047698992,0.43024868828008267,0.7322459269278945
521,29.683,29.39,0.99,0.5619492377569628,0.17599964552989328,0.5725715599937874,0.029851676764808655,0.4320042772751407,0.7321455158283509
522,29.743,29.44,1.03,0.5610619271520121,0.17510052028806128,0.5735024729336824,0.03059824422783241,0.43379194234986657,0.7320348705264488
523,29.805,29.5,1.04,0.5601768976094782,0.17420273314352433,0.5744423328677661,0.031364927448237136,0.43561164692160503,0.7319138371584117
524,29.846,29.55,1.04,0.559296029824254,0.17330634360515293,0.5753916805003692,0.032152140347579225,0.43746329993367233,0.7317822674448639
525,29.927,29.61,1.06,0.5584211905929513,0.1724114033209292,0.5763510263755657,0.03296029438400905,0.4393467554885677,0.7316400189730685
526,29.988,29.66,1.09,0.5575542312539112,0.17151795603381015,0.5773208503040185,0.03378979817672036,0.44126181254251756,0.7314869554696808
527,30.029,29.72,1.07,0.5566969861501071,0.17062603755638062,0.5783016008288766,0.03464105712891689,0.44320821466230487,0.7313229470634196
528,30.092,29.77,1.06,0.555851271116871,0.16973567576341836,0.5792936947316767,0.03551447304989,0.4451856498454196,0.7311478705371379
529,30.154,29.83,1.06,0.5550188819963742,0.16884689060160385,0.580297516579256,0.03641044377684681,0.4471937504046209,0.7309616095687927
530,30.194,29.88,1.03,0.554201593180786,0.16795969411567124,0.5813134183126959,0.03732936279714247,0.44923209291803395,0.7307640549607995
531,30.235,29.94,0.98,0.5534011561860017,0.1670740904903089,0.582341718879281,0.03827161887153318,0.4513001982458606,0.7305551048572265
532,30.317,29.99,0.96,0.5526192982577427,0.16619007610711564,0.5833827039083757,0.03923759565901036,0.4533975316146744,0.7303346649482563
533,30.338,30.05,0.94,0.5518577210117256,0.16530763961589323,0.5844366254320242,0.040227671343706466,0.45552350277008713,0.7301026486613131
534,30.399,30.1,0.93,0.5511180991094906,0.1644267620195079,0.5855037016509659,0.04124221826427995,0.4576774661983163,0.7298589773382783
535,30.48,30.16,0.96,0.5504020789713643,0.16354741677150836,0.5865841167466234,0.042281602546146116,0.45985872141688117,0.7296035803982625
536,30.541,30.21,1.0,0.5497112775278961,0.16266956988568004,0.5876780207394672,0.043346183736925704,0.4620665133343587,0.7293363954855021
537,30.563,30.27,1.0,0.5490472810109808,0.16179318005675972,0.5887855293940323,0.04443631444548198,0.4643000326789076,0.7290573686020277
538,30.665,30.32,1.0,0.548411643785763,0.16091819879161512,0.589906724170771,0.04555233998490807,0.46655841649515434,0.7287664542248303
539,30.686,30.38,1.05,0.5478058872243738,0.1600445705502733,0.591041652224872,0.046694598019810005,0.4688407487090315,0.7284636154072863
540,30.727,30.43,1.03,0.5472314986225321,0.15917223289622498,0.5921903264521569,0.047863418218166795,0.47114606076020665,0.7281488238646012
541,30.788,30.49,1.03,0.5466899301600024,0.15830111665546504,0.5933527255821531,0.04905912190791441,0.47347333230179445,0.7278220600430204
542,30.85,30.54,1.04,0.546182597905815,0.15743114608378198,0.5945287943184451,0.05028202173822539,0.4758214919670789,0.7274833131725451
543,30.912,30.6,1.03,0.5457108808690411,0.1565622390418512,0.5957184435263932,0.05153242134526055,0.4781894182029924,0.7271325813028995
544,30.954,30.65,1.01,0.5452761200958427,0.15569430717769336,0.5969215504683227,0.05281061502200148,0.4805759401700652,0.7267698713225251
545,31.016,30.71,0.99,0.5448796178134383,0.15482725611606551,0.59813795908623,0.05411688739171492,0.4829798387085004,0.7263951989604536
546,31.078,30.76,0.98,0.544522636621508,0.15396098565440508,0.5993674803319938,0.05545151308463564,0.4853998473699192,0.7260085887709807
547,31.139,30.82,0.93,0.5442063987314214,0.1530953899650514,0.6006098925449737,0.05681475641751048,0.4878346535141684,0.7256100741011341
548,31.2,30.87,0.93,0.5439320852534685,0.15223035780359043,0.6018649418767392,0.05820687107570294,0.49028289947037307,0.7251996970409628
549,31.241,30.93,0.99,0.543700835532123,0.15136577272322937,0.603132342762497,0.05962809979760642,0.4927431837611621,0.7247775083566703
550,31.303,30.98,0.99,0.5435137465292327,0.1505015132950613,0.6044117784385892,0.06107867406109044,0.4952140623887298,0.7243435674065742
551,31.408,31.04,1.0,0.5433718722549385,0.14963745333397502,0.6057029015052594,0.0625588137716071,0.49769405018116875,0.7238979420398265
552,31.428,31.09,1.04,0.543276223246036,0.14877346212986858,0.60700533453374,0.06406872695148912,0.5001816221973873,0.7234407084777971
553,31.469,31.15,1.06,0.5432277660914385,0.147909404683757,0.6083186707165924,0.06560860942994726,0.5026752151889036,0.722971951177979
554,31.511,31.2,1.05,0.5432274230043843,0.14704514194831417,0.6096424745601557,0.06717864453339155,0.5051732291168413,0.7224917626802587
555,31.573,31.26,1.08,0.5432760714410154,0.14618053107238985,0.6109762826178531,0.06877900277596237,0.507674028722502,0.7220002434354151
556,31.614,31.31,1.09,0.5433745437649301,0.14531542564910407,0.6123196042630369,0.07040984155044137,0.5101759451499388,0.7214975016157535
557,31.675,31.37,1.07,0.5435236269572642,0.14444967596724995,0.6136719225000419,0.07207130481987865,0.5126772776189847,0.7209836529078636
558,31.757,31.42,1.05,0.5437240623718185,0.14358312926588018,0.6150326948121438,0.07376352281033643,0.5151762951472024,0.7204588202875927
559,31.777,31.48,1.06,0.5439765455347227,0.14271562999206736,0.6164013540451465,0.07548661170517618,0.5176712383191913,0.7199231337774183
560,31.84,31.53,1.02,0.5442817259881064,0.141847020061877,0.6177773093253165,0.07724067334129983,0.5201603211016099,0.7193767301864596
561,31.881,31.59,0.98,0.5446402071771838,0.1409771391246147,0.6191599470103215,0.07902579490771118,0.5226417327021274,0.7188197528333965
562,31.943,31.64,0.99,0.5450525463800316,0.14010582483041892,0.6205486316716886,0.08084204864672671,0.5251136394703109,0.7182523512525476
563,32.005,31.7,1.01,0.5455192546791819,0.1392329131012571,0.6219427071071221,0.08268949155813392,0.5275741868382016,0.717674680883325
564,32.129,31.75,1.02,0.5460407969739608,0.1383582384053316,0.6233414973808089,0.08456816510657304,0.5300215012980443,0.7170869027432635
565,32.149,31.81,1.05,0.5466175920323172,0.1374816340348656,0.6247443078896334,0.08647809493245605,0.5324536924143725,0.7164891830848353
566,32.169,31.86,1.09,0.5472500125806855,0.13660293238726115,0.6261504264530507,0.08841929056682062,0.5348688548674874,0.7158816930362977
567,32.23,31.92,1.11,0.5479383854303076,0.13572196524969182,0.6275591244242859,0.09039174515058923,0.5372650705253055,0.7152646082269032
568,32.271,31.97,1.12,0.5486829916384011,0.13483856408727157,0.6289696578205222,0.09239543515876483,0.5396404105405735,0.7146381083969112
569,32.332,32.03,1.18,0.549484066702627,0.13395256033498737,0.6303812684697829,0.09443032013015926,0.5419929374705255,0.7140023769929535
570,32.393,32.08,1.17,0.5503418007874376,0.13306378569356442,0.6317931851722602,0.09649634240329187,0.5443207074161549,0.7133576007493769
571,32.434,32.14,1.17,0.5512563389810052,0.13217207242940252,0.6332046248738666,0.09859342685912083,0.5466217721783804,0.712703969256247
572,32.496,32.19,1.2,0.5522277815815243,0.1312772536786979,0.634614793849777,0.10072148067127887,0.5488941814284827,0.7120416745147117
573,32.558,32.25,1.2,0.5532561844117535,0.13037916375581943,0.6360228888957521,0.10288039306439625,0.5511359848902729,0.7113709104804373
574,32.599,32.3,1.17,0.5543415591607287,0.12947763846591517,0.6374280985251145,0.10507003508085924,0.553345234531495,0.7106918725958435
575,32.661,32.36,1.18,0.5554838737515996,0.12857251542164078,0.6388296041693454,0.10729025935608084,0.5555199867619648,0.7100047573118944
576,32.723,32.41,1.17,0.5566830527345373,0.12766363436384304,0.6402265813803605,0.10954089990216853,0.5576583046359074,0.709309761600233
577,32.765,32.47,1.17,0.5579389777036444,0.1267508374860017,0.6416182010325748,0.11182177189980505,0.5597582600558684,0.7086070824564974
578,32.909,32.52,1.19,0.5592514877367911,0.12583396976220732,0.6430036305228607,0.11413267149822384,0.5618179359754468,0.7078969163957077
579,32.93,32.58,1.22,0.5606203798572785,0.1249128792784102,0.644382034966443,0.11647337562331839,0.5638354285979569,0.7071794589406719
580,32.951,32.63,1.24,0.5620454095161938,0.12398741756662641,0.6457525783867177,0.11884364179408032,0.5658088495680192,0.7064549041044133
581,33.012,32.69,1.26,0.5635262910942402,0.12305743994176987,0.6471144248969437,0.12124320794767217,0.5677363281530434,0.7057234438676991
582,33.033,32.74,1.32,0.5650626984217794,0.12212280584077492,0.6484667398717553,0.12367179227350905,0.5696160134115896,0.704985267652816
583,33.095,32.8,1.35,0.5666542653158604,0.1211833791636129,0.6498086911065026,0.1261290930567278,0.5714460763456954,0.704240561794781
584,33.156,32.85,1.36,0.5683005861331352,0.12023902861568468,0.6511394499625057,0.1286147885313917,0.5732247120343933,0.7034895090111926
585,33.219,32.91,1.39,0.5700012163376967,0.1192896280509552,0.6524581924964072,0.13112853674378291,0.5749501417458285,0.7027322878719243
586,33.261,32.96,1.4,0.5717556730830163,0.1183350568151386,0.6537641005719276,0.13366997542617418,0.5766206150255861,0.7019690722698623
587,33.322,33.02,1.41,0.5735634358072932,0.11737520008823563,0.6550563629524906,0.13623872188151667,0.5782344117590295,0.7012000308939064
588,33.403,33.07,1.4,0.5754239468416782,0.11640994922573807,0.6563341763733544,0.1388343728795605,0.5797898442056159,0.7004253267054809
589,33.424,33.13,1.41,0.5773366120309681,0.11543920209782386,0.6575967465920329,0.14145650456502654,0.5812852590032831,0.6996451164197742
590,33.505,33.18,1.37,0.5793008013664736,0.11446286342587489,0.6588432894159209,0.1441046723785298,0.5827190391410874,0.6988595499928159
591,33.588,33.24,1.35,0.581315849630786,0.1134808451157002,0.6600730317061081,0.14677841099100855,0.5840896058983072,0.6980687701153536
592,33.608,33.29,1.41,0.5833810570541004,0.11249306658693861,0.6612852123563707,0.14947723425246962,0.585395420748199,0.6972729117143673
593,33.65,33.35,1.43,0.5854956899816584,0.111499455098168,0.662479083246283,0.1522006351558618,0.5866349872245027,0.6964721014629853
594,33.711,33.4,1.45,0.5876589815517846,0.1104999460672426,0.6636539101673495,0.15494808581682218,0.5878068527487146,0.6956664572995565
595,33.772,33.46,1.49,0.5898701323839127,0.10949448338636336,0.6648089737210405,0.15771903746995558,0.5889096104161298,0.6948560879566398
596,33.833,33.51,1.53,0.5921283112759737,0.10848301973139761,0.6659435701876757,0.16051292048222215,0.5899419007387549,0.6940410925007044
597,33.895,33.57,1.54,0.5944326559105738,0.10746551686500738,0.6670570123652546,0.16332914438391744,0.5909024133433796,0.6932215598833829
598,33.956,33.62,1.56,0.5967822735695266,0.10644194593321292,0.6681486303775217,0.16616709791768453,0.5917898886233305,0.6923975685051874
599,33.977,33.68,1.59,0.599176241856457,0.10541228775511406,0.6692177724507649,0.16902614910601665,0.5926031193426791,0.6915691857926562
600,34.038,33.73,1.57,0.6016136094273645,0.10437653310560417,0.670263805659062,0.17190564533773384,0.5933409521919191,0.6907364677899297
601,34.079,33.79,1.56,0.6040933967291319,0.10333468299103685,0.67128611663788,0.17480491347392454,0.5940022892943394,0.6898994587657693
602,34.141,33.84,1.58,0.606614596746045,0.10228674891790773,0.6722841122660751,0.1777232599738357,0.594586089662493,0.6890581908370073
603,34.204,33.9,1.54,0.6091761757544314,0.10123275315465115,0.6732572203164578,0.18065997104113,0.5950913706042927,0.6882126836093552
604,34.244,33.95,1.51,0.6117770740855514,0.10017272898661551,0.674204890075161,0.18361431279082419,0.5955172090783307,0.6873629438364253
605,34.347,34.01,1.49,0.6144162068968604,0.0991067209641984,0.6751265929300849,0.18658553143712642,0.5958627429980228,0.6865089650977503
606,34.368,34.06,1.48,0.6170924649517348,0.09803478514399855,0.6760218229286883,0.18957285350231445,0.5961271724841254,0.6856507274965273
607,34.41,34.12,1.47,0.619804715407739,0.09695698932269335,0.676890097305378,0.19257548604671706,0.5963097610650416,0.6847881973777784
608,34.47,34.17,1.49,0.6225518026134922,0.09587341326321414,0.6777309569787018,0.19559261691980312,0.59640983682417,0.6839213270676033
609,34.532,34.23,1.53,0.6253325489141616,0.09478414891269085,0.6785439670185195,0.19862341503232375,0.5964267934933926,0.6830500546341798
610,34.593,34.28,1.52,0.6281457554655822,0.09368930061157904,0.6793287170833364,0.20166703064936897,0.5963600914917128,0.6821743036711498
611,34.634,34.34,1.52,0.6309902030569896,0.09258898529335546,0.6800848218280297,0.20472259570412854,0.5962092589080583,0.6812939831040254
612,34.736,34.39,1.57,0.633864652942389,0.09148333267413353,0.6808119212822362,0.207789224132133,0.5959738924273433,0.6804089870202323
613,34.757,34.45,1.56,0.636767847680682,0.09037248543146198,0.6815096811997075,0.2108660122257461,0.5956536581990163,0.6795191945233768
614,34.799,34.5,1.54,0.6396985119847436,0.08925659937146739,0.6821777933789358,0.21395203900863818,0.5952482926474427,0.6786244696122568
615,34.861,34.56,1.56,0.6426553535796732,0.08813584358344136,0.6828159759553776,0.21704636662989588,0.5947576032236019,0.6777246610850594
616,34.924,34.61,1.55,0.6456370640704182,0.08701040058094588,0.6834239736656285,0.2201480407773116,0.5941814690976736,0.676819602469097
617,34.965,34.67,1.5,0.6486423198189826,0.08588046642846446,0.684001558083984,0.22325609110929293,0.59351984179216,0.6759091119763818
618,35.069,34.72,1.49,0.6516697828314479,0.08474625085256914,0.6845485278318575,0.22636953170483667,0.5927727457552106,0.6749929924853153
619,35.09,34.78,1.47,0.6547181016550405,0.08360797733653952,0.6850647087605414,0.22948736153112814,0.5919402788737727,0.6740710315487732
620,35.131,34.83,1.45,0.65778591228545,0.08246588319739677,0.6855499541077811,0.23260856492845103,0.5910226129261117,0.673143001428865
621,35.193,34.89,1.45,0.6608718390845072,0.08132021964439738,0.6860041446285914,0.23573211211219194,0.5900199939730956,0.6722086591586343
622,35.256,34.94,1.49,0.6639744957082216,0.08017125181810515,0.6864271887006622,0.23885695969178658,0.5889327426874829,0.6712677466309053
623,35.297,35.0,1.49,0.6670924860450625,0.07901925880917753,0.6868190224045969,0.24198205120646937,0.5877612546203173,0.6703199907143647
624,35.358,35.05,1.49,0.670224405164244,0.07786453365598171,0.6871796095791273,0.24510631767764354,0.5865060004034613,0.6693651033968637
625,35.461,35.11,1.52,0.6733688402736454,0.07670738332013283,0.687508941851369,0.2482286781776146,0.5851675258873053,0.6684027819558317
626,35.482,35.16,1.53,0.6765243716868996,0.07554812863901335,0.6878070386421614,0.25134804041431186,0.5837464522127661,0.6674327091556358
627,35.523,35.22,1.52,0.6796895737991434,0.07438710425428804,0.688073947146539,0.2544633013315008,0.5822434758167828,0.6664545534716931
628,35.585,35.27,1.52,0.6828630160709028,0.07322465851541632,0.6883097422894094,0.2575733477239573,0.5806593683706173,0.6654679693411477
629,35.627,35.33,1.53,0.686043264019559,0.07206115335721854,0.6885145266565178,0.2606770568671636,0.5789949766503685,0.6644725974399348
630,35.688,35.38,1.51,0.6892288802177984,0.07089696415068317,0.6886884304008046,0.2637732971612289,0.5772512223391966,0.6634680649860757
631,35.729,35.44,1.48,0.6924184252983968,0.06973247952637518,0.6888316111242933,0.26686092878888523,0.5754291017608132,0.6624539860690523
632,35.81,35.49,1.48,0.6956104589646395,0.06856810116996379,0.68894425373566,0.26993880438751583,0.5735296855438209,0.6614299620050831
633,35.872,35.55,1.45,0.6988035410056521,0.06740424358949357,0.689026570283636,0.2730057697351835,0.5715541182164645,0.6603955817180347
634,35.913,35.6,1.45,0.7019962323158447,0.0662413338540967,0.6890787997663446,0.27606066445054495,0.5695036177312861,0.6593504221455718
635,36.016,35.66,1.5,0.7051870959175391,0.06507981130391223,0.6891012079165656,0.279102322706429,0.5673794749190743,0.6582940486699858
636,36.036,35.71,1.52,0.7083746979857254,0.06392012723100805,0.6890940869628019,0.28212957395671484,0.5651830528713999,0.6572260155729706
637,36.057,35.77,1.51,0.7115576088737806,0.06276274453108975,0.6890577553659271,0.2851412436759925,0.5629157862509963,0.6561458665134954
638,36.118,35.82,1.53,0.7147344041389196,0.061608137325791595,0.6889925575311492,0.2881361541114241,0.5605791805292922,0.6550531350278567
639,36.18,35.88,1.56,0.7179036655660963,0.06045679055544406,0.6888988634950125,0.2911131250462902,0.5581748111505532,0.6539473450509834
640,36.242,35.93,1.56,0.7210639821890654,0.05930919954237214,0.6887770685872009,0.2940709745748459,0.555704322622253,0.6528280114581311
641,36.283,35.99,1.56,0.7242139513073307,0.0581658695249408,0.6886275930669874,0.29700851988829585,0.5531694275314722,0.6516946406262295
642,36.344,36.04,1.58,0.7273521794977781,0.0570273151626733,0.6884508817342653,0.2999245780718555,0.5505719054872833,0.6505467310142767
643,36.405,36.1,1.54,0.7304772836198817,0.05589406001281526,0.6882474035152121,0.3028179669129267,0.5479136019892427,0.6493837737622352
644,36.446,36.15,1.52,0.7335878918134388,0.05476663597875313,0.6880176510227204,0.3056875057203626,0.5451964272222509,0.6482052533078971
645,36.547,36.21,1.52,0.7366826444878051,0.053645582730744046,0.6877621400917864,0.30853201615467324,0.5424223547781417,0.647010648021165
646,36.568,36.26,1.5,0.7397601953016119,0.05253144709943667,0.687481409290066,0.31135032306883353,0.539593420304395,0.6457994308551598
647,36.609,36.32,1.47,0.7428192121319265,0.05142478244264196,0.6871760194038176,0.3141412553591562,0.5367117200803496,0.6445710700135263
648,36.692,36.37,1.51,0.7458583780317891,0.05032614798578697,0.6868465528994184,0.31690364682556044,0.5337794095212327,0.6433250296332416
649,36.733,36.43,1.54,0.7488763921749895,0.04923610813650539,0.6864936133605862,0.3196363370405385,0.530798701610278,0.6420607704821486
650,36.775,36.48,1.55,0.7518719707868813,0.048155231773893935,0.6861178249014043,0.3223381722261442,0.5277718652591749,0.6407777506703858
651,36.835,36.54,1.57,0.7548438480600064,0.04708409151309072,0.6857198315552238,0.3250080061383934,0.5247012235971481,0.6394754263748732
652,36.917,36.59,1.61,0.7577907770533342,0.04602326294596935,0.6853002966395417,0.3276447009585676,0.5215891521891243,0.6381532525760321
653,36.938,36.65,1.6,0.760711530574014,0.04497332385888079,0.6848599020970176,0.33024712819098245,0.5184380771836736,0.6368106838059163
654,36.998,36.7,1.61,0.7636049020406183,0.04393485342851333,0.6843993478129011,0.33281416956681564,0.5152504733916909,0.6354471749069172
655,37.06,36.76,1.64,0.7664697063269389,0.042908431397084085,0.6839193509092593,0.335344717953578,0.5120288622970462,0.6340621818001452
656,37.101,36.81,1.63,0.7693047805854704,0.04189463722817278,0.6834206450165121,0.3378376782697406,0.5087758100007013,0.6326551622625186
657,37.162,36.87,1.61,0.7721089850498056,0.040894049244553664,0.6829039795229186,0.34029196840390874,0.5054939251000182,0.6312255767114882
658,37.223,36.92,1.6,0.7748812038152426,0.039907243749437125,0.6823701188027587,0.3427065201378326,0.5021858565052038,0.6297728889962504
659,37.305,36.98,1.58,0.7776203455969468,0.03893479413262009,0.6818198414240914,0.34508028007247343,0.4988542911950119,0.628296567194195
660,37.346,37.03,1.53,0.780325344465081,0.03797726996316282,0.681253939337084,0.3474122105562875,0.4955019519139493,0.6267960844112774
661,37.407,37.09,1.5,0.7829951605563625,0.03703523607033914,0.6806732170440111,0.34970129061487526,0.49213159481327784,0.6252709195849707
662,37.47,37.14,1.53,0.7856287807615409,0.036109251614749274,0.6800784907520674,0.3519465168811662,0.48874600703808996,0.6237205582884493
663,37.511,37.2,1.53,0.788225219388248,0.035199869151646614,0.6794705875101595,0.3541469045252662,0.4853480042626733,0.6221444935346476
664,37.573,37.25,1.54,0.7907835187985728,0.03430763368874659,0.6788503443308472,0.3563014881829436,0.48194042817631927,0.6205422265788328
665,37.636,37.31,1.6,0.7933027500205906,0.03343308174100235,0.6782186072986052,0.3584093228814918,0.47852614392173115,0.6189132677182994
666,37.657,37.36,1.6,0.7957820133330349,0.03257674038497243,0.677576230665613,0.36046948496142567,0.4751080374882965,0.6172571370877477
667,37.719,37.42,1.6,0.7982204388223363,0.03173912631545264,0.6769240759363641,0.3624810729921916,0.471689013062694,0.6155733654488517
668,37.78,37.47,1.63,0.8006171869113121,0.03092074490709253,0.6762630109424862,0.36444320867988766,0.46827199033959105,0.6138614949724636
669,37.821,37.53,1.65,0.8029714488588734,0.03012208928380259,0.675593908909314,0.36635503776487527,0.46485990179549813,0.6121210800118505
670,37.882,37.58,1.64,0.805282447230243,0.029343639398851328,0.674917647515922,0.36821573090707443,0.4614556899291614,0.6103516878653286
671,37.944,37.64,1.63,0.8075494363373741,0.02858586112862644,0.6742351079505239,0.37002448455670367,0.4580623044721744,0.608552899526666
672,38.027,37.69,1.63,0.8097717026494771,0.027849205383092355,0.6735471739633181,0.3717805218082591,0.454682699573773,0.6067243104216424
673,38.048,37.75,1.56,0.8119485651737416,0.027134107236035366,0.6728547309190045,0.373483093235594,0.4513198309640392,0.6048655311291682
674,38.11,37.8,1.51,0.814079375806434,0.02644098507825515,0.6721586648512416,0.37513147770605526,0.44797665309991674,0.6029761880854165
675,38.152,37.86,1.49,0.816163519654573,0.025770239796891393,0.6714598615212379,0.37672498317175174,0.44465611629854,0.6010559242694947
676,38.213,37.91,1.43,0.8182004153283775,0.025122253983991212,0.6707592054824799,0.37826294743612693,0.44136116386235474,0.5991043998692639
677,38.275,37.97,1.4,0.8201895152046189,0.024497391177237177,0.6700575791533194,0.37974473889408333,0.43809472920039444,0.5971212929260052
678,38.316,38.02,1.42,0.8221303056608968,0.02389599513551115,0.6693558618987792,0.3811697572439887,0.43485973294990155,0.5951062999567042
679,38.377,38.08,1.42,0.8240223072807347,0.02331838915170582,0.668654929122584,0.3825374341699676,0.431659080102305,0.5930591365527728
680,38.439,38.13,1.4,0.8258650750293047,0.02276487540492132,0.6679556513701571,0.38384723399289045,0.4284956571374268,0.5909795379541196
681,38.5,38.19,1.4,0.8276581983995694,0.022235734353938098,0.6672588934431647,0.38509865428848317,0.42537232916973255,0.5888672595976007
682,38.56,38.24,1.41,0.8294013015286359,0.021731224173654373,0.6665655135261421,0.38629122647102054,0.4222919371104671,0.5867220776390395
683,38.643,38.3,1.37,0.8310940432841546,0.021251580236016625,0.6658763623257539,0.387424516341138,0.4192572948495828,0.5845437894481517
684,38.663,38.35,1.34,0.8327361173206457,0.020797014636826004,0.6651922822232791,0.3884981245963967,0.4162711864614439,0.5823322140758376
685,38.746,38.41,1.35,0.8343272521057171,0.020367715769641137,0.6645141064409519,0.38951168730337643,0.4133363634383484,0.5800871926934072
686,38.767,38.46,1.3,0.8358672109162608,0.019963847947769394,0.6638426582228293,0.39046487633018573,0.4104555419559454,0.5778085890033539
687,38.808,38.52,1.24,0.8373557918048455,0.019585551075057942,0.6631787500309164,0.39135739973837125,0.4076314001746162,0.5754962896213381
688,38.869,38.57,1.21,0.8387928275366417,0.019232940365906878,0.6625231827573161,0.3921890021333017,0.4048665755808318,0.5731502044290679
689,38.93,38.63,1.17,0.8401781854973216,0.01890610611464787,0.6618767449531977,0.39295946497220513,0.4021636623723834,0.5707702668977688
690,38.992,38.68,1.09,0.8415117675724707,0.018605113514175858,0.6612402120754052,0.39366860682912075,0.3995252088911898,0.5683564343819902
691,39.033,38.74,1.05,0.8427935099991362,0.01833000252351053,0.6606143457515256,0.39431628361615934,0.39695371510712135,0.5659086883835466
692,39.115,38.79,1.07,0.8440233831901605,0.018080787783812377,0.6599998930642043,0.39490238876063544,0.39445163015596396,0.5634270347854745
693,39.156,38.85,1.07,0.8452013915319415,0.017857458582281858,0.6593975858554384,0.395426853337809,0.3920213499343053,0.5609115040559585
694,39.217,38.9,1.06,0.8463275731562122,0.01765997886332059,0.65880814005148,0.39588964615911293,0.38966521475380406,0.5583621514222541
695,39.258,38.96,1.1,0.8474019996863705,0.01748828728628868,0.6582322550088718,0.39629077381588224,0.3873855070570771,0.5557790570146799
696,39.32,39.01,1.09,0.8484247759589003,0.017342297329097266,0.657670612882043,0.39663028067868816,0.38518444919734185,0.5531623259807639
697,39.38,39.07,1.08,0.8493960397204461,0.017221897436745993,0.6571238780128452,0.39690824885243653,0.38306420128395646,0.5505120885696316
698,39.421,39.12,1.09,0.8503159613011183,0.017126951213788863,0.6565926963423744,0.39712479808743306,0.381026859096061,0.5478285001867212
699,39.504,39.18,1.09,0.8511847432646262,0.01705729765958192,0.6560776948454459,0.3972800856466415,0.3790744520665978,0.5451117414189156
700,39.524,39.23,1.05,0.8520026200358907,0.01701275144502538,0.6555794809881536,0.39737430612935015,0.3772089413390415,0.5423620180302123
701,39.586,39.29,1.03,0.8527698575068591,0.016993103229378914,0.655098642209023,0.39740769125149716,0.3754322178991916,0.5395795609281321
702,39.646,39.34,1.01,0.853486752621326,0.01699812001564788,0.6546357454243623,0.3973805095829941,0.3737461007843615,0.5367646261011618
703,39.687,39.4,0.96,0.8541536329396082,0.01702754554302751,0.6541913365585,0.39729306624249633,0.3721523353722289,0.5339174945276259
704,39.749,39.45,0.91,0.854770856183913,0.01708110071494225,0.6537659400996485,0.3971457025502046,0.3706525917514798,0.5310384720564638
705,39.852,39.51,0.9,0.8553388097652059,0.017158484061253473,0.653360058682102,0.39693879563944623,0.3692484631761774,0.5281278892604192
706,39.933,39.56,0.87,0.8558579102923188,0.017259372233170058,0.6529741726953983,0.3966727580278933,0.367941464605542,0.5251861012621235
707,39.954,39.62,0.87,0.8563286030639458,0.017383420529294685,0.6526087399209457,0.3963480371493026,0.3667330313305277,0.5222134875334974
708,39.996,39.67,0.9,0.856751361544,0.0175302634511272,0.6522641951964661,0.3959651148466453,0.3656245176882789,0.5192104516688395
709,40.038,39.73,0.91,0.8571266868206419,0.017699515286240478,0.6519409501084561,0.3955245068274494,0.36461719586529945,0.5161774211319202
710,40.101,39.78,0.9,0.8574551070491676,0.01789077071723988,0.6516393927127865,0.3950267620821426,0.3637122547900042,0.5131148469773988
711,40.164,39.84,0.92,0.857737176878867,0.018103605454549032,0.6513598872834904,0.3944724622662294,0.3629107991152698,0.5100232035469258
712,40.205,39.89,0.93,0.8579734768639136,0.018337576891057947,0.6511027740897724,0.3938622210472953,0.3622138482916143,0.506902988140357
713,40.246,39.95,0.91,0.858164612858302,0.018592224776712754,0.6508683692012392,0.3931966834180815,0.36162233573167285,0.503754720662603
714,40.308,40.0,0.89,0.8583112153948117,0.01886707191119955,0.6506569643212858,0.39247652497719526,0.36113710806666866,0.5005789432467127
715,40.35,40.06,0.91,0.8584139390479564,0.019161624852929153,0.6504688266484774,0.39170245117933705,0.3607589244955877,0.4973762198538658
716,40.412,40.11,0.87,0.8584734617808919,0.019475374642521796,0.6503041987656969,0.39087519655711644,0.360488456227744,0.4941471358509699
717,40.474,40.17,0.82,0.8584904842762248,0.01980779753895298,0.6501632985567996,0.3899955239165588,0.3603262860193555,0.4908922975665589
718,40.577,40.22,0.8,0.8584657292506116,0.020158355766494416,0.650046319150496,0.38906422350836395,0.3602729078046418,0.48761233182564767
719,40.597,40.28,0.76,0.8583999407529562,0.020526498270544882,0.6499534288911543,0.3880821121769002,0.36032872642179287,0.4843078854641348
720,40.639,40.33,0.7,0.8582938834459627,0.020911661480399104,0.6498847713361507,0.3870500324888615,0.3604940574339193,0.48097962482332257
721,40.7,40.39,0.72,0.8581483418707551,0.02131327007698738,0.6498404652792987,0.3859688518435275,0.3607691270447718,0.47762823522516845
722,40.761,40.44,0.74,0.8579641196942257,0.021730737763712798,0.6498206047997642,0.3848394615665552,0.361154072108653,0.4742544204289881
723,40.823,40.5,0.74,0.8577420389387126,0.022163468038714485,0.6498252593357946,0.3836627759890691,0.36164894023358074,0.47085890207048725
724,40.864,40.55,0.75,0.8574829391935772,0.022610854967145794,0.6498544737825415,0.3824397315135681,0.36225368997647234,0.4674424190841796
725,40.947,40.61,0.8,0.8571876768082937,0.023072283952280753,0.6499082686132102,0.3811712856679955,0.3629681911289471,0.4640057271104148
726,40.967,40.66,0.8,0.8568571240667767,0.023547132504381105,0.649986640022721,0.379858416149266,0.3637922250922775,0.46054959788835137
727,41.008,40.72,0.8,0.8564921683428153,0.02403477100630558,0.6500895600930127,0.3785021198575349,0.3647254853400219,0.45707481863625216
728,41.07,40.77,0.84,0.856093711236581,0.024534563474883128,0.6502169769790735,0.37710341192247876,0.3657675779669175,0.45358219142044565
729,41.132,40.83,0.85,0.8556626676923079,0.025045868317084243,0.6503688151148026,0.3756633247227706,0.3669180223226657,0.45007253251422275
730,41.214,40.88,0.82,0.8551999650973601,0.02556803908000633,0.6505449754378579,0.3741829068998033,0.36817625172930507,0.44654667174788176
731,41.235,40.94,0.82,0.8547065423630149,0.026100425193688197,0.6507453356327231,0.3726632223666441,0.3695416142809059,0.4430054518510859
732,41.318,40.99,0.81,0.8541833489873691,0.02664237270583668,0.6509697503912895,0.37110534931322253,0.3710133737243429,0.43944972778865643
733,41.338,41.05,0.77,0.8536313441008231,0.027193225007667462,0.6512180516903076,0.3695103792088537,0.37259071041987274,0.43588036609088837
734,41.399,41.1,0.73,0.8530514954946646,0.027752323550181184,0.6514900490850781,0.3678794158033584,0.37427272238013704,0.43229824417945123
735,41.459,41.16,0.76,0.8524447786333189,0.028319008550269396,0.6517855300187161,0.3662135741282257,0.3760584263860379,0.42870424968989285
736,41.52,41.21,0.77,0.8518121756508812,0.028892619686064006,0.6521042601462573,0.36451397949936454,0.37794675917770626,0.4250992797916863
737,41.562,41.27,0.78,0.8511546743325322,0.029472496780958243,0.6524459836727984,0.3627817665229809,0.3799365787185293,0.42148424050665756
738,41.625,41.32,0.84,0.8504732670813725,0.030057980475766827,0.6528104237047803,0.3610180781060206,0.3820266655300062,0.4178600460265315
739,41.688,41.38,0.85,0.84976894987116,0.03064841288853162,0.6531972826134994,0.35922406447246436,0.3842157240950901,0.4142276180302526
740,41.75,41.43,0.85,0.8490427211854515,0.03124313826150081,0.6536062424099477,0.35740088218657023,0.3865023843276737,0.4105878850017045
741,41.811,41.49,0.88,0.8482955809436971,0.03184150359484474,0.6540369651301426,0.3555496931840424,0.3888852031059455,0.4069417815484631
742,41.831,41.54,0.91,0.8475285294149161,0.03244285926675309,0.6544890932302001,0.35367166381204784,0.39136266586745394,0.4032902477222352
743,41.892,41.6,0.91,0.8467425661196784,0.033046559639685766,0.6549622499905463,0.351767963878975,0.3939331882638194,0.3996342283416641
744,41.954,41.65,0.89,0.8459386887212427,0.03365196365269196,0.6554560399288162,0.3498397657148194,0.3965951178731343,0.3959746723182082
745,42.056,41.71,0.91,0.8451178919069526,0.03425843539977769,0.6559700492211443,0.34788824324306344,0.3993467359681745,0.39231253198579674
746,42.077,41.76,0.87,0.8442811662613489,0.03486534469422916,0.6565038461317154,0.34591457106483603,0.40218625933859903,0.38864876243493096
747,42.12,41.82,0.83,0.8434294971328506,0.03547206761864411,0.6570569814505611,0.343919923556001,0.40511184216530627,0.3849843208518567
748,42.18,41.87,0.83,0.8425638634961377,0.03607798706027137,0.6576289889396681,0.3419054739776717,0.40812157794502063,0.38132016586337514
749,42.242,41.93,0.85,0.8416852368124748,0.03668249323113789,0.658219385787468,0.33987239360049165,0.41121350146301916,0.37765725688779395
750,42.283,41.98,0.86,0.8407945798902222,0.037284984172352584,0.6588276730717267,0.337821850842884,0.41438559081167936,0.3739965534924628
751,42.346,42.04,0.89,0.8398928457476718,0.037884866241930736,0.6594533362307352,0.3357550104234152,0.4176357694523073,0.37033901475828934
752,42.428,42.09,0.94,0.8389809764802411,0.03848155458549641,0.6600958455425859,0.3336730325274261,0.42096190831755065,0.3666855986515757
753,42.49,42.15,0.94,0.8380599021339727,0.0390744735892831,0.6607546566122621,0.33157707198812786,0.4243618279516533,0.36303726140348613
754,42.511,42.2,0.95,0.8371305395872476,0.03966305731496149,0.661429210866251,0.32946827748250207,0.42783330068586056,0.35939495689746637
755,42.553,42.26,1.0,0.8361937914426526,0.040246749915942986,0.662118936054374,0.3273477907425869,0.43137405284638863,0.3557596360649627
756,42.614,42.31,0.99,0.8352505449309786,0.0408250060349164,0.6628232467584807,0.32521674578297355,0.43498176699249486,0.3521322462898071
757,42.677,42.37,0.98,0.8343016708293609,0.04139729118247579,0.6635415449075946,0.3230762681454801,0.43865408418229035,0.34851373082165
758,42.718,42.42,1.01,0.8333480223955619,0.041963082096796944,0.6642732202990496,0.3209274741619934,0.4423886062640167,0.34490502819882846
759,42.779,42.48,1.0,0.8323904343204055,0.042521867084355236,0.6650176511251481,0.3187714702363857,0.44618289819056656,0.34130707168105745
760,42.841,42.53,0.96,0.8314297217003782,0.043073146341643824,0.6657742045048983,0.3166093521462646,0.4500344903550431,0.3377207886923313
761,42.903,42.59,0.95,0.8304666790324119,0.04361643225779194,0.6665422370203894,0.3144422043652002,0.45394088094513224,0.3341471002744233
762,42.963,42.64,0.93,0.8295020792328254,0.044151249697946794,0.6673210952573705,0.3122710994059939,0.4578995383139758,0.33058692055134387
763,43.004,42.7,0.93,0.8285366726823457,0.044677136267281425,0.6681101163495908,0.310097097185513,0.4619079033650975,0.32704115620509505
764,43.065,42.75,0.95,0.8275711862990432,0.04519364255552622,0.6689086285264252,0.3079212444116387,0.46596339194873077,0.3235107059630468
765,43.127,42.81,1.01,0.8266063226409001,0.04570033236198132,0.6697159516632376,0.3057445739929486,0.4700633972666867,0.3199964600972473
766,43.168,42.86,1.02,0.8256427590396371,0.04619678290101601,0.6705313978338784,0.30356810447177074,0.4742052922827371,0.31649929993596737
767,43.21,42.92,1.04,0.8246811467673081,0.04668258498812037,0.6713542718646623,0.3013928394811855,0.4783864321354161,0.3130200973877866
768,43.272,42.97,1.11,0.8237221102370785,0.04715734320665077,0.6721838718891667,0.2992197672264325,0.4826041565501934,0.30955971447851666
769,43.334,43.03,1.12,0.8227662462395436,0.04762067605544492,0.6730194899031957,0.2970498599910356,0.4868557922480933,0.3061190029012301
770,43.394,43.08,1.13,0.8218141232159112,0.04807221607746013,0.6738604123192902,0.29488407366782343,0.4911386553480026,0.30269880357959883
771,43.457,43.14,1.16,0.8208662805693346,0.048511609969572815,0.674705920520198,0.2927233473149543,0.49545005376009316,0.2992999462446758
772,43.518,43.19,1.19,0.8199232280156353,0.04893851867371188,0.6755552914107776,0.29056860273703156,0.4997872895679759,0.2959232490251681
773,43.538,43.25,1.17,0.818985444974601,0.04935261744957823,0.6764077979679247,0.2884207440913774,0.504147661397371,0.2925695180511989
774,43.601,43.3,1.15,0.8180533800030302,0.049753595929304895,0.6772627097882338,0.28628065751953563,0.5085284667692084,0.28923954707154886
775,43.661,43.36,1.17,0.8171274502706752,0.05014115815449746,0.6781192936332239,0.28414921080410976,0.5129270044351639,0.2859341170843578
776,43.742,43.41,1.13,0.8162080410802117,0.050515022596159566,0.6789768139720238,0.2820272530510672,0.5173405766936673,0.2826539959812649
777,43.803,43.47,1.13,0.8152955054322433,0.05087492215807538,0.6798345335214128,0.27991561439766566,0.5217664916843686,0.27939993820496783
778,43.823,43.52,1.2,0.8143901636361907,0.05122060416429239,0.6806917137830265,0.2778151057461965,0.5262020656589496,0.27617268442016873
779,43.885,43.58,1.23,0.8134923029677195,0.05155183033137906,0.6815476155774463,0.27572651852370383,0.5306446252260456,0.27297296119784187
780,43.947,43.63,1.25,0.8126021773732041,0.05186837672610888,0.6824014995748436,0.2736506244676964,0.5350915095679621,0.26980148071270554
781,44.01,43.69,1.29,0.8117200072215686,0.052170033709202916,0.6832526268218652,0.27158817543769975,0.5395400726268981,0.26665894045371985
782,44.052,43.74,1.32,0.8108459791037491,0.05245660586576876,0.6841002592645165,0.2695399032523483,0.5439876852585285,0.26354602294737256
783,44.093,43.8,1.33,0.8099802456799832,0.05272791192308047,0.6849436602669283,0.2675065195516095,0.5484317373510068,0.26046339549349523
784,44.154,43.85,1.34,0.8091229255751854,0.052983784656345796,0.6857820951260122,0.2654887156836943,0.5528696399076679,0.2574117099133872
785,44.215,43.91,1.38,0.8082741033227548,0.05322407078311084,0.6866148315821219,0.2634871626162429,0.5572988270919254,0.2543916023100883
786,44.255,43.96,1.37,0.8074338293572312,0.05344863084697922,0.6874411403259107,0.26150251087142984,0.5617167582330366,0.25140369284071634
787,44.317,44.02,1.35,0.8066021200562,0.05365733909139948,0.688260295501605,0.2595353904846805,0.566120919791558,0.24844858550083798
788,44.379,44.07,1.37,0.8057789578317699,0.053850083324354196,0.6890715752069128,0.25758641098672175,0.5705088272834248,0.2455268679208546
789,44.44,44.13,1.34,0.804964291271822,0.05402676477480563,0.6898742619897702,0.2556561614086493,0.5748780271616555,0.24263911117434492
790,44.501,44.18,1.3,0.8041580353311105,0.0541872979417239,0.6906676433421068,0.2537452103095792,0.5792260986546809,0.23978586959826068
791,44.541,44.24,1.33,0.8033600715721143,0.05433161043650664,0.6914510121907608,0.25185410582632656,0.5835506555602391,0.23696768062482595
792,44.623,44.29,1.36,0.8025702484553313,0.05445964281961185,0.6922236673856006,0.2499833757444358,0.5878493479936694,0.23418506462495234
793,44.644,44.35,1.38,0.8017883816785281,0.054571348432240756,0.6929849141848494,0.24813352758978338,0.5921198640893216,0.2314385247629624
794,44.705,44.4,1.41,0.8010142545642918,0.054666693223919434,0.6937340647375357,0.24630504873995596,0.5963599316537063,0.22872854686242386
795,44.749,44.46,1.45,0.8002476184951313,0.05474565557684324,0.6944704385629464,0.24449840655467872,0.6005673197690211,0.22605559928292565
796,44.81,44.51,1.46,0.7994881933952989,0.054808226127863714,0.6951933630269375,0.24271404852465434,0.6047398403457815,0.22342013280767276
797,44.871,44.57,1.47,0.7987356682584451,0.05485440758901565,0.6959021738149743,0.2409524024382207,0.608875349623453,0.22082258054183102
798,44.932,44.62,1.52,0.7979897017201933,0.054884214567483484,0.6965962154017826,0.23921387656524787,0.6129717496181598,0.21826335782159062
799,45.015,44.68,1.52,0.7972499226747282,0.05489767338582909,0.697274841517507,0.2374988598576249,0.6170269895167293,0.2157428621339265
800,45.035,44.73,1.5,0.7965159309345,0.05489482190317954,0.6979374156102898,0.23580772216554224,0.6210390670165026,0.2132614730470364
801,45.077,44.79,1.51,0.79578729793213,0.05487570933798642,0.6985833113051988,0.23414081446863338,0.6250060296104911,0.21081955215142817
802,45.138,44.84,1.51,0.7950635674635317,0.05484039609293531,0.6992119128594428,0.23249846912093403,0.6289259758175848,0.208417443011617
803,45.2,44.9,1.48,0.7943442564712339,0.05478895358257277,0.6998226156138547,0.23088100010854706,0.6327970563575851,0.20605547112840833
804,45.263,44.95,1.46,0.7936288558668497,0.05472146406419299,0.7004148264406452,0.22928870331888293,0.6366174752708441,0.20373394391177718
805,45.304,45.01,1.48,0.7929168313916393,0.054638020472461774,0.7009879641874097,0.22772185682038665,0.6403854909822327,0.20145315066438185
806,45.366,45.06,1.48,0.7922076245140565,0.05453872625815174,0.7015414601173265,0.22618072115173188,0.6440994173090641,0.19921336257576186
807,45.426,45.12,1.49,0.7915006533630896,0.05442369523126493,0.7020747583453651,0.22466553961956995,0.6477576244124579,0.1970148327272691
808,45.467,45.17,1.55,0.7907953136960839,0.05429305140872518,0.702587316270182,0.223176538604046,0.6513585396915365,0.19485779610774934
809,45.528,45.23,1.56,0.790090979899654,0.05414692886669223,0.7030786050012489,0.22171392787136257,0.6549006486197908,0.19274246963994293
810,45.589,45.28,1.56,0.7893870060222671,0.05398547159738428,0.7035481097806785,0.22027790089267077,0.658382495523012,0.1906690522175318
811,45.67,45.34,1.6,0.788682726837064,0.05380883337014229,0.7039953303991787,0.2188686351685721,0.6618026842982998,0.18863772475272517
812,45.73,45.39,1.62,0.787977458933489,0.053617177596342845,0.7044197816055703,0.2174862925585189,0.6651598790738228,0.18664865023425053
813,45.751,45.45,1.62,0.7872705018363425,0.05341067719765999,0.704820993509391,0.2161310196143757,0.6684528048091571,0.18470197379561565
814,45.812,45.5,1.63,0.7865611391509333,0.05318951447709469,0.7051985119762075,0.21480294791738572,0.6716802478361761,0.18279782279353374
815,45.853,45.56,1.65,0.7858486397330627,0.052953880992155075,0.7055518990153788,0.21350219441779927,0.6748410563405934,0.18093630689643386
816,45.914,45.61,1.63,0.7851322588826061,0.052703977429573313,0.7058807331601045,0.21222886177643716,0.6779341407843786,0.17911751818299185
817,45.975,45.67,1.61,0.7844112395594214,0.05244001348098789,0.7061846098396587,0.21098303870748103,0.6809584742693409,0.1773415312506124
818,46.016,45.72,1.63,0.783684813620259,0.05216220771905758,0.706463141743698,0.20976480032181916,0.6839130928422296,0.17560840333374378
819,46.097,45.78,1.62,0.7829522030752736,0.051870787473455755,0.7067159591784901,0.20857420847027902,0.6867970957416987,0.17391817443181917
820,46.158,45.83,1.63,0.7822126213626303,0.05156598870614018,0.7069427104148293,0.2074113120860682,0.6896096455874426,0.17227086744653328
821,46.179,45.89,1.68,0.7814652746395513,0.05124805588524859,0.7071430620273104,0.20627614752577234,0.6923499685117533,0.17066648832809875
822,46.24,45.94,1.71,0.780709363088022,0.05091724185694389,0.707316699224574,0.2051687389083114,0.6950173542337352,0.1691050262301024
823,46.301,46.0,1.71,0.7799440822333222,0.050573807714514175,0.7074633261701323,0.20408909845129458,0.6976111560764552,0.16758645367260766
824,46.383,46.05,1.72,0.7791686242735933,0.05021802266402572,0.7075826662934345,0.20303722680428737,0.7001307909274334,0.16611072671323246
825,46.403,46.11,1.77,0.7783821794187473,0.049850163885853775,0.7076744625908927,0.20201311337862018,0.702575739143045,0.1646777851260228
826,46.466,46.16,1.76,0.7775839372370905,0.049470516391500345,0.7077384779166866,0.20101673667347392,0.7049455443975832,0.16328755258803707
827,46.528,46.22,1.75,0.776773088008027,0.049079372875284404,0.7077744952632317,0.20004806459806945,0.7072398134778831,0.16193993687363148
828,46.59,46.27,1.78,0.7759488240791315,0.04867703356069715,0.7077823180312328,0.19910705478987983,0.7094582160245636,0.16063483005646714
829,46.633,46.33,1.76,0.775110341225818,0.0482638060413631,0.7077617702892414,0.1981936549288382,0.7116004842210539,0.1593721087192403
830,46.694,46.38,1.72,0.7742568400117584,0.04784000511662517,0.7077126970226127,0.1973078030474976,0.7136664124316674,0.1581516341710917
831,46.757,46.44,1.72,0.7733875271480921,0.047405952621836174,0.7076349643717315,0.19644942783704003,0.7156558567900296,0.15697325267257847
832,46.839,46.49,1.7,0.7725016168493462,0.04696197725352429,0.7075284598593279,0.19561844894894204,0.7175687347391587,0.1558367956680044
833,46.86,46.55,1.67,0.7715983321838612,0.046508414389679745,0.7073930926066729,0.19481477729201116,0.7194050245244168,0.1547420800248408
834,46.901,46.6,1.69,0.7706769064164175,0.04604560590547635,0.7072287935383497,0.19403831532447552,0.7211647646404213,0.1536889082799473
835,46.963,46.66,1.74,0.769736584340673,0.0455738999847848,0.7070355155752137,0.19328895734083384,0.7228480532328408,0.1526770688922937
836,47.023,46.71,1.74,0.7687766235989556,0.04509365092786925,0.7068132338150682,0.19256658975319352,0.724455047455873,0.15170633650189144
837,47.064,46.77,1.74,0.7677962959868693,0.04460521895571639,0.7065619457005132,0.19187109136684408,0.7259859627861519,0.15077647219466997
838,47.124,46.82,1.79,0.7667948887401377,0.044108970011495476,0.7062816711733756,0.19120233364981734,0.7274410722938686,0.14988722377306954
839,47.185,46.88,1.79,0.7657717058011067,0.043605275559654516,0.7059724528151095,0.19056018099611377,0.7288207058719959,0.14903832603214215
840,47.248,46.93,1.79,0.7647260690623785,0.043094512383122854,0.7056343559725669,0.18994449098213786,0.730125249424628,0.14822950104096574
841,47.308,46.99,1.8,0.7636573195851004,0.042577062379060955,0.7052674688685452,0.1893551146157955,0.7313551440155784,0.14746045842917496
842,47.348,47.04,1.81,0.7625648187895033,0.0420533123535904,0.7048719026965511,0.18879189657766743,0.7325108849784935,0.14673089567840375
843,47.389,47.1,1.78,0.7614479496153962,0.04152365381593773,0.7044477916992727,0.1882546754536536,0.7335930209898487,0.14604049841845662
844,47.451,47.15,1.76,0.7603061176504506,0.0409884827724464,0.7039952932302868,0.18774328395851542,0.734602153106261,0.1453889407280758
845,47.512,47.21,1.76,0.7591387522242358,0.04044819952095724,0.7035145877985504,0.1872575491498544,0.7355389337675818,0.14477588544022874
846,47.595,47.26,1.71,0.7579453074660704,0.03990320844612294,0.7030058790952132,0.18679729263220282,0.7364040657672137,0.14420098445189325
847,47.615,47.32,1.7,0.7567252633248113,0.03935391781630175,0.7024693940022385,0.1863623307510547,0.7371983011910014,0.14366387903836483
848,47.698,47.37,1.76,0.7554781265487425,0.03880073958271427,0.7019053825822045,0.18595247477682422,0.7379224403259136,0.14316420017213843
849,47.719,47.43,1.76,0.7542034316237665,0.03824408918149565,0.7013141180485203,0.1855675310788178,0.738577330539563,0.142701568846398
850,47.781,47.48,1.77,0.7529007416681246,0.037684385339152235,0.7006958967151558,0.1852073012893355,0.7391638651314755,0.1422755964031002
851,47.842,47.54,1.81,0.7515696492818843,0.037122049881806264,0.700051037924868,0.1848715824580282,0.7396829821569783,0.141885884865568
852,47.924,47.59,1.82,0.7502097773494809,0.03655750754850672,0.6993798839548848,0.1845601671966486,0.740135663224636,0.14153202727544584
853,47.946,47.65,1.82,0.748820779793712,0.03599118580878119,0.6986827998990556,0.18427284381433492,0.7405229322682867,0.14121360803385022
854,48.008,47.7,1.82,0.7474023422797812,0.03542351468450514,0.6979601735255914,0.18400939644360875,0.7408458542948725,0.14093020324659394
855,48.048,47.76,1.85,0.7459541828682213,0.03485492657606851,0.6972124151096654,0.18376960515735147,0.7411055341093904,0.14068138107343744
856,48.11,47.81,1.83,0.7444760526157627,0.03428585609276377,0.6964399572403177,0.1835532460771114,0.7413031150184073,0.1404667020814055
857,48.172,47.87,1.8,0.7429677361233973,0.033716739887309895,0.6956432546012805,0.18336009147318974,0.7414397775136666,0.14028571960227476
858,48.214,47.92,1.81,0.74142905203106,0.0331480164944414,0.6948227837254813,0.18318990985707598,0.741516737937381,0.14013798009435174
859,48.297,47.98,1.78,0.7398598534585052,0.03258012617345037,0.6939790427230902,0.18304246606691152,0.7415352471308302,0.140023023508622
860,48.359,48.03,1.74,0.7382600283921046,0.0320135107544654,0.6931125509830385,0.18291752134672992,0.7414965890678482,0.1399403836592906
861,48.38,48.09,1.73,0.7366295000173647,0.0314486134881206,0.6922238488479352,0.18281483342026186,0.7414020794746967,0.13988958859866668
862,48.44,48.14,1.75,0.7349682269970274,0.0308858788981226,0.6913134972623002,0.18273415656006556,0.7412530644376741,0.13987016099627625
863,48.502,48.2,1.75,0.7332762036946453,0.030325752636068515,0.690382077394019,0.182675241652634,0.7410509189996438,0.13988161852204475
864,48.542,48.25,1.77,0.731553460343589,0.029768681337732184,0.6894301902289282,0.18263783626002258,0.7407970457464889,0.13992347423338014
865,48.604,48.31,1.8,0.7298000631615105,0.029215112479956045,0.6884584561384567,0.18262168467849624,0.7404928733843967,0.13999523696599378
