,Time_Host,Time_Arduino,easingdata,CH1_Oxy,CH1_Deoxy,CH2_Oxy,CH2_Deoxy,CH3_Oxy,CH3_Deoxy
0,1.03,0.04,0.0,0.0,0.23761887312315041,0.0,0.2752088953938925,0.11486127545140257,0.17560475185563704
1,1.051,0.1,0.0,0.002648841748579132,0.23472228315487315,0.0017473938842084416,0.27170892689626286,0.11583926693913571,0.17548961679212152
2,1.071,0.15,0.0,0.005369657321792313,0.2318165549398636,0.0035170175513919203,0.2682467025883752,0.11687220101667033,0.17536605123088558
3,1.091,0.21,0.0,0.008162375619663577,0.22890230911151016,0.00530849170047787,0.26482343510423617,0.11796030852407566,0.1752338909131218
4,1.112,0.26,0.0,0.01102687442545862,0.22598016590756415,0.007121420870100794,0.261440293726465,0.1191037788825271,0.17509297371967428
5,1.133,1.05,0.0,0.0139629797212252,0.22305074504808814,0.008955393499300726,0.25809840313781995,0.12030275940793447,0.17494313982771
6,1.154,1.11,0.0,0.016970465045005965,0.22011466563772286,0.010809982000819285,0.25479884223956406,0.12155735466510667,0.17478423186809572
7,1.216,1.16,0.0,0.02004905089150645,0.21717254609186482,0.01268474284737554,0.2515426430384079,0.12286762586386747,0.17461609508333065
8,1.297,1.22,0.0,0.02319840415799312,0.2142250040862407,0.01457921667130891,0.24833078960364002,0.12423359029850103,0.17443857748588124
9,1.318,1.27,0.0,0.026418137637185417,0.21127265652925598,0.016492928377979596,0.24516421709593042,0.12565522083186714,0.1742515300167588
10,1.379,1.33,0.02,0.029707809558891924,0.2083161195563944,0.018425387273318192,0.24204381086917473,0.12713244542548938,0.17405480670417772
11,1.42,1.38,0.02,0.03306692318212167,0.2053560085458521,0.020376087205913315,0.2389704056466343,0.12866514671687862,0.17384826482212676
12,1.48,1.44,-0.01,0.036494926439374305,0.20239293815451698,0.022344506724016364,0.23594478477254424,0.13025316164531842,0.17363176504868402
13,1.563,1.49,-0.04,0.039991211634776036,0.19942752237335984,0.0243301092478274,0.23296767954029787,0.13189628112730284,0.1734051716239023
14,1.604,1.55,-0.03,0.043555115197684686,0.1964603746012669,0.02633234325741325,0.23003976859824807,0.13359424978277432,0.17316835250709206
15,1.645,1.6,-0.06,0.04718591749333599,0.19349210773629832,0.028350642496601828,0.22716167743406376,0.13534676571325407,0.17292117953333652
16,1.708,1.66,-0.07,0.05088284269203948,0.19052333428328672,0.030384426193185255,0.22433397793844218,0.13715348033288083,0.1726635285690814
17,1.77,1.71,-0.04,0.05464505869835425,0.18755466647659857,0.032433099295740536,0.22155718804882252,0.13901399825329042,0.17239527966664073
18,1.812,1.77,-0.06,0.0584716771415894,0.18458671641677857,0.03449605272734048,0.21883177147359642,0.1409278772231835,0.17211631721745047
19,1.872,1.82,-0.08,0.06236175342888719,0.1816200962197022,0.036572663656384556,0.21615813749716312,0.14289462812335085,0.171826530103892
20,1.934,1.88,-0.07,0.06631428686206203,0.17865541817680788,0.038662295784733104,0.21353664086606544,0.14491371501785036,0.17152581184951476
21,2.058,1.93,-0.05,0.07032822081928734,0.17569329492495653,0.040764299653286436,0.21096758175634137,0.14698455526196183,0.17121406076750625
22,2.078,1.99,-0.09,0.07440244300264084,0.17273433962447216,0.04287801296511923,0.20845120582211174,0.14910651966747396,0.17089118010728901
23,2.12,2.04,-0.12,0.0785357857524285,0.16977916614393512,0.04500276092625883,0.20598770432528427,0.15127893272578524,0.17055707819915658
24,2.161,2.1,-0.1,0.08272702642910851,0.16682838925032764,0.047137856604178185,0.20357721434608947,0.15350107288922282,0.1702116685968867
25,2.223,2.15,-0.13,0.08697488786353216,0.16388262480313243,0.04928260130405683,0.20121981907399245,0.15577217291089743,0.1698548702182925
26,2.284,2.21,-0.16,0.09127803887610458,0.16094248995096677,0.05143628496283687,0.19891554817835563,0.1580914202433103,0.1694866074836909
27,2.326,2.26,-0.12,0.09563509486534326,0.15800860332928696,0.05359818656106422,0.19666437825805877,0.16045795749581862,0.16910681045227313
28,2.428,2.32,-0.11,0.10004461846618135,0.15508158525763913,0.055767574552467176,0.19446623336908153,0.16287088295095553,0.1687154149563454
29,2.448,2.37,-0.14,0.10450512027823107,0.15216205793487417,0.057943707311187385,0.19232098562882352,0.1653292511394945,0.16831236273338432
30,2.469,2.43,-0.14,0.10901505966409415,0.14925064563071405,0.060125833596536414,0.19022845589574156,0.1678320734740506,0.1678976015558329
31,2.531,2.48,-0.12,0.11357284561768101,0.14634797487207157,0.06231319303510198,0.18818841452276194,0.17037831894092434,0.1674710853585549
32,2.593,2.54,-0.14,0.11817683770237736,0.14345467462256886,0.06450501661997861,0.1862005821828492,0.172966914849804,0.16703277436388062
33,2.635,2.59,-0.16,0.12282534705876912,0.14057137645375992,0.06670052722685302,0.184264630765031,0.17559674764084457,0.16658263520421113
34,2.696,2.65,-0.13,0.1275166374815058,0.1376987147066221,0.06889894014663306,0.18238018433907116,0.17826666374853542,0.1661206410421868
35,2.758,2.7,-0.14,0.1322489265647511,0.1348373266419186,0.07109946363426925,0.18054682018685364,0.1809754705216594,0.16564677168845007
36,2.82,2.76,-0.16,0.1370203869155321,0.13198785257805967,0.07330129947337657,0.178764069898395,0.18372193719853472,0.16516101371704137
37,2.862,2.81,-0.13,0.14182914743414832,0.1291509360151083,0.0755036435562181,0.17703142053026225,0.18650479593661823,0.1646633605784573
38,2.923,2.87,-0.11,0.14667329466063883,0.12632722374360048,0.07770568647856457,0.1753483158240294,0.18932274289543877,0.16415381271038298
39,2.985,2.92,-0.15,0.15155087418613453,0.12351736593687901,0.07990661414889554,0.17371415748227953,0.19217443937171783,0.16363237764609728
40,3.026,2.98,-0.15,0.1564598921277611,0.12072201622569273,0.08210560841135467,0.17212830649956662,0.19505851298542629,0.16309907012054442
41,3.129,3.03,-0.14,0.16139831666560883,0.11794183175388431,0.0843018476818219,0.1705900845456968,0.1979735589154197,0.16255391217406942
42,3.15,3.09,-0.16,0.16636407964015568,0.11517747321407634,0.08649450759642179,0.1690987753986454,0.20091814118317844,0.16199693325382064
43,3.192,3.14,-0.18,0.1713550782083966,0.11242960486237703,0.08868276167174888,0.1676536264243883,0.2038907939830511,0.16142817031282555
44,3.254,3.2,-0.15,0.1763691765567891,0.10969889451124903,0.09086578197604935,0.16625385010088295,0.20689002305725887,0.1608476679067238
45,3.336,3.25,-0.19,0.18140420766897483,0.10698601349979603,0.0930427398105526,0.16489862558337207,0.2099143071137739,0.16025547828808895
46,3.356,3.31,-0.21,0.1864579751460815,0.10429163664079429,0.09521280640009727,0.1635871003080912,0.21296209928503712,0.1596516614981904
47,3.418,3.36,-0.16,0.19152825507725074,0.10161644214383925,0.09737515359214227,0.16231839163134607,0.21603182862532677,0.15903628545595894
48,3.501,3.42,-0.11,0.19661279795787778,0.09896111151399598,0.09952895456320593,0.16109158850079125,0.21912190164443418,0.1584094260438234
49,3.522,3.47,-0.1,0.20170933065289381,0.09632632942536441,0.10167338453173953,0.1599057531555843,0.22223070387515154,0.15777116719001327
50,3.583,3.53,-0.04,0.20681555840227908,0.0937127835690154,0.10380762147641137,0.1587599228519295,0.2253566014719462,0.15712160094687233
51,3.624,3.58,0.06,0.21192916686587407,0.09112116447483298,0.1059308468587508,0.15765311161038317,0.22849794283809613,0.15646082756470486
52,3.684,3.64,0.09,0.21704782420446642,0.08855216530689608,0.10804224634907184,0.15658431198118347,0.2316530602784886,0.15578895556066982
53,3.746,3.69,0.14,0.22216918319405868,0.08600648163214064,0.11014101055456475,0.15555249682381658,0.2348202716752373,0.15510610178224218
54,3.788,3.75,0.24,0.2272908833701591,0.08348481116215477,0.11222633574841057,0.15455662109703178,0.23799788218324666,0.15441239146475827
55,3.871,3.8,0.28,0.2324105531988782,0.08098785346805955,0.11429742459874913,0.15359562365553442,0.24118418594284255,0.15370795828254544
56,3.913,3.86,0.32,0.2375258122715622,0.07851630966850691,0.11635348689631075,0.15266842904959704,0.2443774678065911,0.15299294439311767
57,3.974,3.91,0.42,0.24263427351964112,0.07607088209088152,0.11839374027949631,0.1517739493238527,0.24757600507743285,0.1522675004738995
58,4.035,3.97,0.5,0.24773354544632323,0.07365227390583388,0.12041741095566258,0.15091108581157894,0.2507780692552726,0.15153178575092913
59,4.076,4.02,0.55,0.2528212343717215,0.07126118873532003,0.12242373441734021,0.15007873092085264,0.2539819277891799,0.15078596801899385
60,4.137,4.08,0.61,0.25789494668796203,0.0688983302344085,0.12441195615208922,0.14927576990907357,0.2571858458323808,0.15003022365267019
61,4.219,4.13,0.72,0.26295229112080853,0.06656440164723493,0.12638133234468343,0.1485010826425089,0.26038808799725477,0.14926473760777134
62,4.239,4.19,0.76,0.2679908809943436,0.06426010533761586,0.12833113057031736,0.14775354533768,0.26358692010760115,0.14848970341274909
63,4.319,4.24,0.8,0.2730083364952682,0.06198614229497206,0.1302606304775381,0.14703203228158718,0.26678061094549,0.1477053231496526
64,4.341,4.3,0.9,0.27800228693340384,0.05974321161634733,0.1321691244596102,0.14633541752794446,0.2699674339900658,0.14691180742430057
65,4.401,4.35,0.93,0.28297037299500344,0.05753200996541891,0.13405591831303607,0.1456625765667462,0.2731456691457317,0.14610937532536933
66,4.463,4.41,0.97,0.2879102489855018,0.055353231009465244,0.13592033188197294,0.1450123879645919,0.27631360445719205,0.14529825437213548
67,4.524,4.46,1.08,0.29281958505836236,0.053207564835296414,0.1377616996873165,0.14438373497326643,0.27946953780888234,0.14447868045063655
68,4.585,4.52,1.15,0.297696069426709,0.051095697345170395,0.13957937153925623,0.14377550710413173,0.2826117786063687,0.14365089773802514
69,4.667,4.57,1.2,0.302537410554471,0.04901830963373706,0.14137271313215544,0.1431866016659537,0.28573864943735305,0.14281515861490315
70,4.687,4.63,1.27,0.30734133932382274,0.04697607734709893,0.1431411066206593,0.1426159252638923,0.2888484877099886,0.14197172356543938
71,4.748,4.68,1.37,0.31210561117577806,0.044969670025159544,0.14488395117599526,0.1420623952575051,0.2919396472662911,0.1411208610650952
72,4.789,4.74,1.41,0.31682800822089185,0.04299975042852973,0.14660066352150006,0.14152494117571784,0.29501049996852347,0.14026284745580708
73,4.851,4.79,1.45,0.3215063413171313,0.04106697385136482,0.14829067844647872,0.14100250608680734,0.29805943725652634,0.1393979668085024
74,4.912,4.85,1.54,0.32613845211208475,0.039171987421596735,0.14995344929755994,0.1404940479215601,0.301084871674067,0.13852651077284892
75,4.994,4.9,1.58,0.330722215046786,0.03731542939008533,0.15158844844676128,0.13999854074790882,0.3040852383623828,0.1376487784141567
76,5.015,4.96,1.59,0.33525553931853774,0.03549792841024143,0.15319516773552183,0.13951497599550308,0.30705899651919033,0.13676507603737154
77,5.056,5.01,1.67,0.33973637080021674,0.033720102809680075,0.15477311889399975,0.13904236362882766,0.31000463082152424,0.13587571699812276
78,5.118,5.07,1.74,0.34416269391363835,0.031982559855449934,0.15632183393497875,0.13857973326764264,0.3129206528108525,0.13498102150081387
79,5.179,5.12,1.8,0.34853253345465357,0.030285895014358365,0.15784086552178325,0.13812613525365944,0.3158056022389883,0.1340813163837741
80,5.22,5.18,1.84,0.3528439563677452,0.028630691209891052,0.1593297873096706,0.13768064166249588,0.31865804837340167,0.13317693489151458
81,5.321,5.23,1.95,0.3570950734679973,0.027017518077223645,0.16078819426024252,0.1372423472600676,0.32147659126062167,0.13226821643414552
82,5.343,5.29,1.97,0.36128404110843193,0.025446931217839572,0.16221570292850152,0.1368103704026722,0.3242598629465333,0.13135550633400742
83,5.385,5.34,1.99,0.3654090627908498,0.02391947145529514,0.16361195172225906,0.1363838538801135,0.32700652865249075,0.13043915555956603
84,5.449,5.4,1.95,0.3694683907184549,0.022435664093694786,0.16497660113367965,0.13596196570130892,0.32971528790628885,0.1295195204466237
85,5.51,5.45,2.0,0.373460327288696,0.020996018180428767,0.16630933394282077,0.13554389982190654,0.33238487562714164,0.12859696240692609
86,5.551,5.51,2.01,0.37738322652491074,0.019601025774683412,0.1676098553931068,0.13512887681351804,0.3350140631638903,0.12767184762433706
87,5.613,5.56,2.07,0.38123549544550245,0.01825116122318191,0.1688778933387437,0.1347161444742693,0.33760165928570784,0.12674454673892793
88,5.697,5.62,2.12,0.3850155953695205,0.016946880444563137,0.17011319836414315,0.13430497838050381,0.3401465111245817,0.1258154345195356
89,5.718,5.67,2.11,0.3887220431576452,0.015688620223760892,0.17131554387548295,0.13389468237961905,0.34264750506889574,0.12488488952551234
90,5.779,5.73,2.14,0.39235341238768584,0.014476797517715526,0.17248472616458854,0.13348458902417287,0.34510356760747896,0.12395329375847328
91,5.84,5.78,2.22,0.3959083344637962,0.013311808773731608,0.17362056444537843,0.13307405994754454,0.3475136661235602,0.12302103230486018
92,5.902,5.84,2.23,0.39938549965868564,0.01219402926176793,0.17472290086317158,0.1326624861815467,0.34987680963813433,0.12208849297012164
93,5.964,5.89,2.24,0.4027836580881885,0.011123812421901087,0.1757916004772058,0.1322492884164616,0.35219204950230776,0.12115606590528939
94,5.985,5.95,2.33,0.4061016206176459,0.010101489228144201,0.17682655121675592,0.13183391720404142,0.35445848003826264,0.1202241432267138
95,6.066,6.0,2.38,0.40933825969966564,0.00912736756973525,0.17782766381127887,0.13141585310408258,0.35667523912855026,0.11929311862971756
96,6.128,6.06,2.39,0.4124925101429469,0.008201731650951762,0.17879487169505268,0.1309946067752711,0.35884150875350906,0.11836338699692614
97,6.168,6.11,2.44,0.4155633698119716,0.007324841410479737,0.17972813088681625,0.13056971901111247,0.3609565154766963,0.11743534400203784
98,6.23,6.17,2.49,0.4185499002574793,0.006496931961363009,0.18062741984496083,0.13014076072189135,0.36301953087832495,0.11650938570978549
99,6.293,6.22,2.49,0.42145122727774664,0.005718213052570141,0.1814927392988777,0.12970733286372638,0.3650298719368073,0.11558590817283776
100,6.355,6.28,2.5,0.4242665414107988,0.004988868553225868,0.18232411205712878,0.1292690663158811,0.3669869013586043,0.11466530702638623
101,6.375,6.33,2.55,0.426995098357774,0.004309055960550355,0.183121582793182,0.12882562170756118,0.36889002785667396,0.11374797708116137
102,6.436,6.39,2.55,0.42963621933775775,0.0036789059325136203,0.1838852178095279,0.12837668919546422,0.3707387063778934,0.11283431191560139
103,6.498,6.44,2.55,0.43218929137448686,0.003098521846143012,0.18461510478105425,0.1279219881933735,0.37253243827989746,0.11192470346787085
104,6.538,6.5,2.6,0.4346537675153996,0.002567979382328313,0.18531135247858369,0.12746126705512595,0.3742707714578397,0.11101954162838963
105,6.6,6.55,2.64,0.4370291669835856,0.002087326137859325,0.18597409047349658,0.12699430271232012,0.3759533004216377,0.11011921383350586
106,6.662,6.61,2.63,0.4393150752632684,0.0016565812653331232,0.18660346882437623,0.126520900268156,0.37757966632432294,0.10922410466093725
107,6.704,6.66,2.68,0.4415111441195396,0.001275735141511645,0.1871996577466338,0.1260408925488458,0.37914955694217556,0.10833459542761291
108,6.806,6.72,2.71,0.44361709155315215,0.0009447490646938086,0.18776284726609208,0.12555413961411077,0.3806627066073986,0.10745106379055563
109,6.827,6.77,2.71,0.4456327016912735,0.0006635549816673465,0.18829324685752846,0.12506052822837604,0.38211889609416566,0.1065738833514461
110,6.867,6.83,2.7,0.44755782461519483,0.00043205524481126564,0.18879108506919465,0.12455997129438573,0.3835179524589539,0.10570342326551
111,6.929,6.88,2.74,0.4493923761260777,0.00025012239991990473,0.18925660913433615,0.12405240725107661,0.38485974883615415,0.10484004785536014
112,6.989,6.94,2.71,0.4511363374498989,0.00011759900529729343,0.189690084570735,0.12353779943765023,0.38614420419001594,0.10398411623041515
113,7.051,6.99,2.67,0.4527897548828225,3.429748262112662e-05,0.19009179476929547,0.12301613542586406,0.38737128302403706,0.10313598191250495
114,7.113,7.05,2.68,0.4543527393782755,0.0,0.1904620405726787,0.1224874263226355,0.38854099504894646,0.10229599246825913
115,7.176,7.1,2.67,0.45582546607704827,1.4458387550479443e-05,0.19080113984496852,0.121951706045111,0.38965339481045314,0.10146448914886014
116,7.197,7.16,2.64,0.4572081737817639,7.739408571256103e-05,0.19110942703332126,0.12140903057039337,0.39070858127793195,0.10064180653773817
117,7.278,7.21,2.66,0.45850116437707233,0.0001884981264271395,0.19138725272251475,0.12085947716215643,0.3917066973952074,0.09982827220678556
118,7.32,7.27,2.72,0.4597048021969255,0.00034743114722481306,0.1916349831832704,0.12030314357642222,0.39264792959458156,0.09902420638167155
119,7.38,7.32,2.7,0.46081951334029597,0.0005538234382243036,0.19185299991518837,0.11974014724881281,0.39353250727524386,0.09822992161683647
120,7.441,7.38,2.7,0.46184578493672385,0.0008072750220109185,0.19204169918510475,0.11917062446561315,0.3943607022472156,0.09744572248073524
121,7.566,7.43,2.75,0.46278416436311154,0.0011073557663538259,0.19220149156166025,0.11859472952097305,0.39513282814200956,0.09667190525187312
122,7.587,7.49,2.74,0.4636352584132322,0.0014536055297067118,0.1923328014468643,0.11801263386251591,0.39584923979123493,0.09590875762613038
123,7.607,7.54,2.7,0.4643997324214561,0.0018455343394065391,0.19243606660545098,0.11742452522751558,0.3965103325744189,0.09515655843581769
124,7.648,7.6,2.73,0.4650783093422379,0.00228262260243555,0.1925117376928383,0.11683060677167276,0.3971165417373589,0.09441557738084726
125,7.708,7.65,2.72,0.46567176878694894,0.002764321348537384,0.19256027778251267,0.11623109619238599,0.39766834168235043,0.09368607477235309
126,7.749,7.71,2.69,0.46618094601967336,0.00329005250539421,0.19258216189365765,0.11562622484827302,0.3981662452316526,0.09296830128906258
127,7.81,7.76,2.67,0.46660673091361105,0.0038592092055080665,0.19257787651982305,0.11501623687659637,0.3986108028655615,0.0922624977467092
128,7.912,7.82,2.67,0.46695006686972407,0.0044711561243988476,0.19254791915938907,0.1144013883102067,0.39900260193645903,0.09156889488076299
129,7.933,7.87,2.62,0.46721194969924174,0.00512522984972101,0.1924927978485302,0.1137819461956185,0.3993422658601914,0.0908877131427366
130,7.975,7.93,2.59,0.46739342647159077,0.005820739280904702,0.19241303069732832,0.11315818771384605,0.39963045328611096,0.09021916251029707
131,8.038,7.98,2.63,0.46749559432925714,0.006556966058924904,0.19230914542961972,0.11253039930563198,0.39986785724707896,0.08956344231138164
132,8.079,8.04,2.62,0.4675195992710276,0.0073331650257689816,0.1921816789270962,0.11189887580267684,0.4000552042906835,0.08892074106247486
133,8.161,8.09,2.56,0.4674666349050097,0.008148564713107586,0.19203117677810919,0.11126391956642703,0.40019325359289004,0.08829123632116463
134,8.203,8.15,2.59,0.46733794117280747,0.00900236785959644,0.1918581928315588,0.11062583963591643,0.400282796055304,0.08767509455305814
135,8.264,8.2,2.61,0.4671348030462193,0.009893751956166246,0.19166328875619149,0.10998495088608705,0.40032465338720546,0.0870724710131148
136,8.326,8.26,2.58,0.4668585491978427,0.010821869818605995,0.19144703360558304,0.10934157319794831,0.4003196771734903,0.08648350964145263
137,8.388,8.31,2.58,0.46651055064698854,0.011785850186717791,0.19121000338904512,0.10869603064189329,0.40026874792963596,0.08590834297369868
138,8.428,8.37,2.61,0.46609221938233864,0.012784798349308575,0.19095278064865687,0.10804865067547877,0.4001727741447924,0.08534709206595933
139,8.489,8.42,2.56,0.465605006962812,0.01381779679427343,0.19067595404259494,0.1073997633569706,0.4000326913140929,0.08479986643447288
140,8.53,8.48,2.54,0.46505040309812395,0.014883905883023083,0.19038011793490284,0.1067497005759549,0.39984946096126767,0.0842667640099847
141,8.654,8.53,2.56,0.46442993421052126,0.015982164548515806,0.19006587199180827,0.1060987953023099,0.3996240696526287,0.08374787110685607
142,8.675,8.59,2.52,0.46374516197915766,0.017111591016157356,0.18973382078465606,0.10544738085480368,0.39935752800347096,0.08324326240688074
143,8.716,8.64,2.46,0.4629976818685416,0.018271183546826376,0.1893845733994781,0.10479579019053525,0.39905086967790326,0.0827530009577464
144,8.737,8.7,2.46,0.46218912164243964,0.0194599212012695,0.18901874305315947,0.1041443552164042,0.3987051503830778,0.08227713818603924
145,8.797,8.75,2.47,0.46132113986456663,0.020676764625085,0.18863694671609496,0.10349340612376792,0.39832144685873616,0.08181571392465539
146,8.858,8.81,2.45,0.4603954243873356,0.021920656853477424,0.18823980474117574,0.102843270747397,0.39790085586292456,0.08136875645446168
147,8.9,8.86,2.45,0.4594136908298886,0.02319052413493808,0.18782794049889925,0.1021942739497728,0.39744449315466346,0.08093628256003543
148,9.003,8.92,2.5,0.45837768104658205,0.024485276773004255,0.18740198001835798,0.1015467370317049,0.3969534924743022,0.08051829759929953
149,9.023,8.97,2.48,0.4572891615870717,0.025803809985271105,0.18696255163383343,0.10090097717016612,0.3964290045222545,0.08011479558684807
150,9.086,9.03,2.46,0.45614992214913197,0.027145004778867988,0.1865102856367075,0.10025730688413503,0.3958721959367882,0.07972575929073215
151,9.128,9.08,2.5,0.4549617740253391,0.028507728841641242,0.18604581393240227,0.09961603352907371,0.3952842482715411,0.07935116034244201
152,9.189,9.14,2.5,0.4537265485447652,0.029890837448275264,0.18556976970207684,0.09897745882043109,0.39466635697342867,0.07899095935978374
153,9.252,9.19,2.48,0.4524460955108516,0.031293174380526693,0.18508278706883044,0.09834187838629474,0.3940197303616069,0.07864510608231436
154,9.293,9.25,2.48,0.4511222816366589,0.03271357286066857,0.18458550076816863,0.09770958134910777,0.3933455886081502,0.07831353951896419
155,9.375,9.3,2.49,0.449756988978714,0.03415085649715818,0.184078545822484,0.09708084993624608,0.3926451627210966,0.07799618810743944
156,9.418,9.36,2.43,0.4483521133706882,0.03560384024146939,0.18356255721930065,0.09645595911917788,0.39191969353050565,0.07769296988496424
157,9.458,9.41,2.41,0.44690956285813443,0.03707133135498484,0.18303816959303343,0.09583517628088861,0.391170430678153,0.0774037926698958
158,9.521,9.47,2.43,0.4454312561354838,0.038552130384830935,0.18250601691001225,0.09521876091125038,0.39039863161145977,0.0771285542537237
159,9.584,9.52,2.4,0.44391912098644887,0.040045032147543506,0.18196673215650824,0.09460696433001706,0.3896055605822056,0.07686714260294399
160,9.626,9.58,2.39,0.4423750927289138,0.04154882671946538,0.1814209470294832,0.09400002943710081,0.38879248765052793,0.07661943607027724
161,9.689,9.63,2.43,0.4408011126653136,0.04306230043278357,0.18086929162975707,0.09339819048973852,0.3879606876946534,0.07638530361467032
162,9.751,9.69,2.42,0.4391991265394432,0.044584236876102516,0.1803123941572614,0.09280167290609938,0.38711143942677123,0.07616460502948948
163,9.813,9.74,2.39,0.4375710830005928,0.0461134178984255,0.17975088060801994,0.09221069309484739,0.3862460244154297,0.07595719117828945
164,9.855,9.8,2.43,0.43591893207588145,0.04764862461540062,0.17918537447248087,0.09162545831016401,0.38536572611481607,0.0757629042375313
165,9.937,9.85,2.44,0.43424462365165906,0.04918863841668225,0.1786164964348257,0.09104616653172937,0.3844718289012713,0.07558157794562047
166,9.958,9.91,2.43,0.43255010596484617,0.050732241973265736,0.17804486407290188,0.09047300636912756,0.38356561711738085,0.07541303785763956
167,10.0,9.96,2.41,0.4308373241050829,0.05227822024368038,0.17747109155846202,0.08990615699010039,0.3826483741239749,0.07525710160515704
168,10.124,10.02,2.44,0.42910821852855613,0.053825361477973434,0.1768957893574263,0.08934578807204141,0.38172138136037487,0.0751135791604921
169,10.145,10.07,2.39,0.42736472358436206,0.055372458218459805,0.1763195639299188,0.08879205977608923,0.38078591741321643,0.07498227310481205
170,10.208,10.13,2.33,0.42560876605425274,0.05691830829623142,0.1757430174298503,0.08824512274314489,0.3798432570941696,0.07486297889943548
171,10.229,10.18,2.35,0.4238422637065918,0.05846171582240832,0.17516674740382973,0.08770511811110504,0.37889467052685105,0.07475548515970996
172,10.289,10.24,2.34,0.42206712386531203,0.0600014921730737,0.17459134648918592,0.08717217755255889,0.37794142224318594,0.07465957393082923
173,10.33,10.29,2.32,0.4202852419946171,0.06153645696678631,0.17401740211087655,0.08664642333213672,0.37698477028942057,0.0745750209649687
174,10.392,10.35,2.36,0.4184985003001164,0.06306543903352567,0.17344549617705649,0.08612796838263292,0.3760259653419278,0.07450159599914373
175,10.476,10.4,2.38,0.4167087663470385,0.06458727737390378,0.17287620477308385,0.08561691639896446,0.3750662498328994,0.07443906303323225
176,10.496,10.46,2.37,0.41491789169615306,0.06610082210747385,0.17231009785376517,0.08511336194897201,0.37410685708600017,0.07438718060764572
177,10.559,10.51,2.37,0.4131277105580322,0.06760493540899493,0.1717477389336695,0.08461739060006897,0.3731490104620483,0.07434570208017925
178,10.62,10.57,2.41,0.41134003846629935,0.0690984924315627,0.1711896847753732,0.08412907906080037,0.3721939225148013,0.07431437590161118
179,10.682,10.62,2.38,0.4095566709705331,0.070580382215567,0.17063648507552331,0.0836484953364495,0.3712427941569372,0.07429294588965696
180,10.723,10.68,2.37,0.4077793823495138,0.07204950858247586,0.1700886821486409,0.08317569889787021,0.37029681383633317,0.07428115150091147
181,10.786,10.73,2.41,0.40600992434551025,0.07350479101247251,0.16954681060861113,0.082710740862718,0.3693571567227512,0.0742787281004354
182,10.849,10.79,2.4,0.40425002492029954,0.07494516550498764,0.1690113970478343,0.08225366418820715,0.3684249839050454,0.07428540722865555
183,10.909,10.84,2.35,0.4025013870335928,0.07636958542117098,0.16848295971403032,0.08180450387445959,0.3675014415990069,0.07430091686525883
184,10.951,10.9,2.37,0.4007656874445084,0.07777702230735077,0.16796200818471443,0.08136328717743059,0.36658766036596346,0.07432498168976233
185,11.032,10.95,2.4,0.3990445755366939,0.07916646669853583,0.1674490430393975,0.08093003383028889,0.36568475434225134,0.07435732333844254
186,11.094,11.01,2.38,0.3973396721676493,0.0805369289010335,0.1669445555296122,0.0805047562720087,0.36479382047966596,0.07439766065731286
187,11.115,11.06,2.38,0.39565256854276215,0.08188743975330122,0.1664490272469118,0.08008745988186011,0.3639159377969938,0.07444570995085674
188,11.237,11.12,2.44,0.3939848251145298,0.08321705136421326,0.16596292978902102,0.07967814321847755,0.3630521666427248,0.0745011852262464
189,11.257,11.17,2.43,0.3923379705074396,0.08452483782798179,0.16548672442435267,0.07927679826219279,0.36220354796906395,0.07456379843279883
190,11.278,11.23,2.42,0.39071350046899755,0.08580989591500293,0.1650208617551377,0.07888341065930284,0.3613711026173857,0.07463325969644437
191,11.36,11.28,2.45,0.3891128768474398,0.08707134573790332,0.16456578137945255,0.0784979599669226,0.3605558306153088,0.07470927754899763
192,11.381,11.34,2.44,0.3875375265967089,0.08830833139205053,0.1641219115524622,0.07812041989706855,0.3597587104856115,0.07479155915203191
193,11.443,11.39,2.41,0.3859888408093106,0.08952002156978905,0.16368966884722969,0.07775075855864155,0.35898069856723536,0.07487981051518032
194,11.524,11.45,2.41,0.3844681737776757,0.09070561014768726,0.16326945781546776,0.07738893869602902,0.35822272834865604,0.07497373670872531
195,11.567,11.5,2.41,0.3829768420846457,0.09186431674611871,0.1628616706486323,0.07703491792312023,0.35748570981390676,0.07507304207038486
196,11.607,11.56,2.38,0.38151612372368615,0.09299538726053233,0.16246668683978174,0.07668864895160868,0.35677052880154747,0.07517743040625488
197,11.649,11.61,2.37,0.3800872572494123,0.09409809436379327,0.16208487284664694,0.07635007981254265,0.35607804637686485,0.07528660518591529
198,11.709,11.67,2.42,0.3786914409589867,0.09517173797900312,0.16171658175636908,0.07601915407017379,0.35540909821758043,0.07540026973174162
199,11.77,11.72,2.4,0.3773298321049206,0.09621564572222237,0.16136215295237716,0.07569581102721204,0.3547644940133361,0.07551812740247982
200,11.833,11.78,2.4,0.3760035461397898,0.09722917331451891,0.16102191178389685,0.07537998592061725,0.35414501687923067,0.07563988177114518
201,11.874,11.83,2.45,0.37471365599337153,0.0982117049627628,0.16069616923860486,0.07507161010705395,0.35355142278369056,0.07576523679729907
202,11.937,11.89,2.46,0.37346119138271255,0.09916265370858855,0.1603852216189754,0.07477061123711953,0.35298443999098533,0.07589389699374509
203,11.997,11.94,2.42,0.37224713815565236,0.10008146174497265,0.1600893502228956,0.07447691341744166,0.3524447685187353,0.07602556758768099
204,12.06,12.0,2.43,0.37107243766832826,0.10096760069994454,0.1598088210291516,0.07419043735975193,0.35193307961080017,0.07615995467634859
205,12.102,12.05,2.42,0.36993798619718926,0.10182057188705594,0.15954388438840644,0.07391110051607672,0.3514500152259822,0.07629676537724144
206,12.166,12.11,2.4,0.3688446343860452,0.1026399065223384,0.15929477472031855,0.07363881719923585,0.35099618754300527,0.0764357079729677
207,12.226,12.16,2.37,0.36779318672868166,0.10342516590756921,0.15906171021747167,0.07337349868793071,0.3505721784822531,0.07657649205091833
208,12.309,12.22,2.39,0.3667844010875661,0.10417594157973953,0.15884489255680231,0.07311505331586661,0.3501785392447517,0.07671882863794015
209,12.331,12.27,2.4,0.36581898824915865,0.10489185542667251,0.15864450661920243,0.0728633865445989,0.34981578986887757,0.07686243033024343
210,12.392,12.33,2.37,0.3648976115163096,0.10557255976877326,0.15846072021793917,0.07261840102010973,0.3494844188052682,0.07700701141877245
211,12.434,12.38,2.42,0.3640208863381807,0.10621773740690667,0.15829368383648187,0.07237999661344696,0.3491848825104064,0.07715228801022939
212,12.494,12.44,2.41,0.36318937997807815,0.10682710163639685,0.1581435303762845,0.07214807044599125,0.348917605059359,0.0772979781438691
213,12.556,12.49,2.38,0.36240361121954684,0.10740039622714605,0.1580103749150495,0.07192251690002358,0.3486829777781747,0.07744380190410939
214,12.597,12.55,2.39,0.3616640501110476,0.10793739536990667,0.15789431447599092,0.07170322761531055,0.3484813588964701,0.0775894815289541
215,12.68,12.6,2.4,0.3609711177495295,0.10843790358881204,0.15779542780861058,0.07149009147247129,0.34831307322076155,0.07773474151422287
216,12.701,12.66,2.38,0.36032518610321174,0.1089017556203614,0.15771377518150576,0.07128299456394026,0.34817841182912607,0.0778793087136077
217,12.762,12.71,2.34,0.3597265778738966,0.1093288162591546,0.15764939818773713,0.07108182015338925,0.34807763178778034,0.07802291243461706
218,12.824,12.77,2.36,0.359175566399136,0.10971898017076724,0.15760231956329485,0.07088644862451349,0.3480109558901841,0.07816528453050134
219,12.886,12.82,2.32,0.3586723755945679,0.11007217167223055,0.15757254301921172,0.07069675742010331,0.3479785724192766,0.07830615948827341
220,12.947,12.88,2.28,0.3582171799367182,0.11038834448062573,0.15756005308788054,0.0705126209723151,0.3479806349334517,0.07844527451295663
221,12.988,12.93,2.3,0.3578101044865135,0.11066748143033316,0.1575648149841305,0.07033391062503552,0.3480172620768617,0.07858236960820603
222,13.051,12.99,2.3,0.357451224953676,0.11090959415949753,0.15758677448161304,0.07016049454920675,0.34808853741461865,0.07871718765345252
223,13.114,13.04,2.28,0.3571405678020801,0.11111472276628956,0.15762585780502927,0.06999223765196019,0.3481945092934383,0.07884947447771354
224,13.155,13.1,2.29,0.3568781103960597,0.1112829354355773,0.15768197153870306,0.06982900148042093,0.3483351907282489,0.0789789789301989
225,13.216,13.15,2.31,0.35666378118757897,0.11141432803668141,0.15775500255196612,0.06967064412109417,0.3485105593152762,0.07910545294782477
226,13.279,13.21,2.27,0.3564974599441118,0.11150902369301191,0.15784481794179628,0.06951702009580799,0.3487205571721151,0.07922865161973938
227,13.3,13.26,2.25,0.3563789780170136,0.11156717232458277,0.15795126499313353,0.06936798025524803,0.3489650909052984,0.07934833324896605
228,13.403,13.32,2.28,0.35630811865010786,0.11158895016463612,0.15807417115729652,0.06922337167116736,0.3492440316058749,0.07946425941127135
229,13.424,13.37,2.25,0.35628461732816574,0.11157455925179108,0.15821334404892512,0.06908303752836688,0.34955721487350955,0.07957619501136813
230,13.484,13.43,2.22,0.3563081621649367,0.11152422689922999,0.15836857146187489,0.06894681701752578,0.3499044408696088,0.0796839083365619
231,13.526,13.48,2.23,0.35637839433037183,0.11143820514246358,0.15853962140448138,0.06881454522992948,0.35028547439996127,0.07978717110794561
232,13.587,13.54,2.21,0.3564949085166714,0.11131677016720555,0.15872624215460043,0.06868605305509247,0.3507000450273745,0.07988575852923559
233,13.651,13.59,2.15,0.35665725344277915,0.11116022171884794,0.1589281623348233,0.06856116708221119,0.3511478472147595,0.07997944933332855
234,13.691,13.65,2.15,0.35686493239691475,0.11096888249499152,0.15914509100826527,0.06843970950632773,0.3516285404990919,0.08006802582665513
235,13.774,13.7,2.17,0.35711740381670876,0.11074309752245083,0.15937671779534118,0.06832149804004133,0.352141749696629,0.08015127393140777
236,13.794,13.76,2.14,0.35741408190645624,0.11048323352012215,0.1596227130119578,0.0682063458315686,0.35268706513972065,0.08022898322573069
237,13.876,13.81,2.12,0.3577543372909613,0.11018967824908008,0.1598827278295487,0.06809406138994895,0.3532640429454973,0.08030094698196959
238,13.918,13.87,2.16,0.3581374977054053,0.10986283985126036,0.16015639445734453,0.06798444851822133,0.35387220531668007,0.0803669622030765
239,13.98,13.92,2.12,0.3585628487206448,0.10950314617808081,0.16044332634722613,0.06787730625542353,0.3545110408747287,0.08042682965725563
240,14.021,13.98,2.1,0.35902963450333464,0.1091110441103292,0.1607431184214658,0.06777242882825801,0.3551800050255111,0.08048035391092445
241,14.167,14.03,2.11,0.3595370586102765,0.10868699887060258,0.16105534732362417,0.06766960561323627,0.3558785203576569,0.08052734336005289
242,14.187,14.09,2.1,0.3600842848164019,0.10823149332951046,0.16137957169284214,0.06756862111005701,0.3566059770737246,0.08056761025993474
243,14.207,14.14,2.05,0.3606704379758118,0.10774502730677758,0.16171533246174344,0.06746925492690697,0.35736173345428146,0.08060097075344944
244,14.248,14.2,2.04,0.3612946049152937,0.10722811686832638,0.16206215317813774,0.06737128177832738,0.35814511635494783,0.08062724489789197
245,14.308,14.25,2.04,0.3619558353597266,0.10668129362039516,0.16241954035068173,0.06727447149626908,0.35895542173641576,0.08064625669048112
246,14.349,14.31,2.0,0.3626531428887539,0.10610510400174439,0.16278698381862042,0.06717858905494528,0.35979191522739173,0.08065783409269725
247,14.412,14.36,1.98,0.36338550592406393,0.10550010857501545,0.16316395714568588,0.06708339461006806,0.36065383272034823,0.08066180905364206
248,14.515,14.42,2.03,0.36415186874655636,0.10486688131831852,0.16354991803818075,0.06698864355301812,0.36154038099989705,0.08065801753263832
249,14.536,14.47,2.01,0.3649511425426081,0.10420600891810874,0.1639443087872225,0.06689408658043211,0.3624507384035209,0.08064629952129014
250,14.578,14.53,1.99,0.36578220647859405,0.1035180900643625,0.1643465567350728,0.06679946977960614,0.36338405551433983,0.08062649906520784
251,14.64,14.58,2.02,0.36664390880277475,0.10280373474899332,0.1647560747654215,0.06670453473002518,0.3643394558855342,0.08059846428556898
252,14.681,14.64,2.02,0.36753506797364455,0.10206356356836849,0.16517226181743835,0.06660901862124459,0.3653160367960126,0.08056204740064707
253,14.741,14.69,2.0,0.3684544738138267,0.10129820703072172,0.1655945034233494,0.066512654387281,0.36631287003688245,0.0805171047474069
254,14.802,14.75,2.0,0.3694008886885965,0.10050830486922573,0.1660221722692373,0.06641517085762713,0.36732900272824043,0.0804634968032476
255,14.884,14.8,2.02,0.3703730487081,0.09969450536148798,0.16645462877871203,0.0663162929249766,0.36836345816576926,0.08040108820796697
256,14.904,14.86,1.97,0.37136966495232115,0.09885746465624966,0.16689122171905404,0.06621574172970209,0.3694152366965824,0.08032974778602237
257,14.965,14.91,1.94,0.3723894247178245,0.09799784610809345,0.16733128882938894,0.06611323486108207,0.3704833166237135,0.08024934856917239
258,15.029,14.97,1.96,0.37343099278526515,0.09711631962099164,0.16777415747040153,0.0660084865752264,0.3715666551385919,0.0801597678195983
259,15.071,15.02,1.93,0.37449301270660773,0.09621356100153015,0.16821914529504786,0.0659012080295951,0.37266418928077777,0.08006088705361847
260,15.132,15.08,1.91,0.3755741081109358,0.09529025132261709,0.16866556093967155,0.06579110753392381,0.37377483692414515,0.07995259206612365
261,15.194,15.13,1.96,0.3766728840276554,0.09434707629842748,0.16911270473488335,0.06567789081727195,0.37489749778861725,0.07983477295586115
262,15.254,15.19,1.98,0.3777879282258266,0.09338472567125215,0.1695598694355154,0.06556126131080867,0.3760310544764747,0.07970732415168066
263,15.296,15.24,1.97,0.3789178125682986,0.09240389261082725,0.17000634096891554,0.06544092044586411,0.3771743735321965,0.07957014443983378
264,15.358,15.3,2.0,0.3800610943792992,0.09140527312664667,0.1704513992007948,0.06531656796672845,0.3783263065247426,0.079423136992402
265,15.4,15.35,2.03,0.3812163178241231,0.09038956549371176,0.1708943187177864,0.06518790225767736,0.3794856911511586,0.07926620939691456
266,15.463,15.41,2.01,0.3823820152995806,0.08935746969214256,0.17133436962582185,0.06505462068372055,0.38065135236036346,0.07909927368720827
267,15.504,15.46,2.01,0.3835567088338831,0.08830968686105883,0.17177081836337674,0.06491641994459876,0.3818221034959531,0.07892224637557187
268,15.567,15.52,2.05,0.3847389114946508,0.08724691876712529,0.1722029285285916,0.06477299644156986,0.3829967474568404,0.07873504848620251
269,15.63,15.57,2.02,0.38592712880373564,0.08616986728812523,0.17262996171923528,0.06462404665649907,0.38417407787451724,0.07853760558998589
270,15.69,15.63,2.0,0.3871198601575491,0.08507923391187369,0.17305117838444248,0.06446926754270457,0.3853528803056917,0.07832984784059664
271,15.731,15.68,2.02,0.3883156002515721,0.08397571925070665,0.17346583868711488,0.06430835692693268,0.3865319334390044,0.07811171001190238
272,15.794,15.74,2.06,0.38951284050770146,0.0828600225716959,0.17387320337582912,0.06414101392176198,0.3877100103144785,0.07788313153663863
273,15.835,15.79,2.04,0.3907100705030542,0.0817328413426551,0.1742725346650461,0.06396693934767161,0.3888858795542956,0.07764405654631354
274,15.896,15.85,2.07,0.39190577939880383,0.08059487079395426,0.1746630971223785,0.06378583616396793,0.3900583066034354,0.0773944339123006
275,15.978,15.9,2.12,0.3930984573675873,0.07944680349615146,0.17504415856165373,0.06359740990773796,0.3912260549786739,0.07713421728807401
276,15.998,15.96,2.11,0.39428659701799307,0.07828932895346977,0.17541499094051355,0.06340136913997015,0.392387887524408,0.07686336515253885
277,16.061,16.01,2.12,0.3954686948146376,0.0771231332131822,0.1757748712612951,0.06319742589796745,0.39354256767375356,0.0765818408544088
278,16.123,16.07,2.18,0.3966432524923311,0.0759488984910004,0.17612308247393063,0.06298529615317647,0.3946888607133593,0.07628961265758577
279,16.165,16.12,2.17,0.39780877846284896,0.07476730281256518,0.1764589143795954,0.0627647002735431,0.3958255350503641,0.07598665378748776
280,16.227,16.18,2.16,0.3989637892128327,0.07357901967110352,0.17678166453382468,0.0625353634894702,0.39695136347992177,0.07567294247825887
281,16.289,16.23,2.18,0.400106810691367,0.07238471770125002,0.1770906391478128,0.06229701636241718,0.39806512445170306,0.0753484620207756
282,16.351,16.29,2.19,0.4012363796857899,0.07118506036894544,0.17738515398659482,0.062049395255154086,0.3991656033337735,0.07501320081134877
283,16.413,16.34,2.17,0.40235104518430015,0.06998070567724644,0.17766453526279674,0.06179224280266665,0.4002515936722177,0.07466715240102192
284,16.496,16.4,2.2,0.40344936972390877,0.06877230588783854,0.177928120524613,0.06152530838272385,0.4013218984448496,0.07431031554538794
285,16.515,16.45,2.38,0.404529930722256,0.06756050725804143,0.1781752595366329,0.06124834858516932,0.40237533130730707,0.07394269425487753
286,16.576,16.51,2.37,0.40559132179179475,0.06634594979310564,0.17840531515209027,0.060961127679070734,0.4034107178297974,0.07356429784550217
287,16.617,16.56,2.39,0.4066321540348375,0.06512926701361527,0.1786176641750648,0.06066341807693929,0.4044268967227665,0.0731751409900473
288,16.657,16.62,2.47,0.40765105731797835,0.06391108573782352,0.17881169821112894,0.060355000795301636,0.40542272104981514,0.07277524376969183
289,16.739,16.67,2.48,0.4086466815244298,0.06269202587874695,0.17898682450492076,0.06003566591096515,0.4063970594262721,0.07236463172598341
290,16.781,16.73,2.48,0.4096176977828508,0.06147270025582507,0.17914246676311285,0.05970521301240008,0.40734879720191297,0.07194333591304448
291,16.822,16.78,2.52,0.4105627996712872,0.0602537144209175,0.17927806596123347,0.059363451645790696,0.4082768376263792,0.07151139294983681
292,16.884,16.84,2.53,0.4114807043948977,0.05903566649835301,0.17939308113278818,0.05901020175543383,0.4091801029958934,0.07106884507227482
293,16.945,16.89,2.5,0.4123701539361964,0.057819147038678353,0.17948699013914135,0.05864529411823737,0.41005753577990195,0.07061574018496194
294,17.005,16.95,2.52,0.4132299161765859,0.05660473888571229,0.17955929041864296,0.058268570772100806,0.41090809972629383,0.07015213191232786
295,17.11,17.0,2.57,0.4140587859879744,0.055393017056505435,0.17960949971352053,0.05787988543795869,0.411730780943852,0.06967807964896351
296,17.129,17.06,2.57,0.41485558629328084,0.05418454863381833,0.17963715677309647,0.057479103935219315,0.4125245889605867,0.0691936486089762
297,17.15,17.11,2.58,0.41561916909462215,0.0529798926707468,0.179641822031938,0.05706610459023413,0.41328855775659556,0.06869890987420652
298,17.213,17.17,2.68,0.4163484164679874,0.05177960010713545,0.1796230782615889,0.05664077863731973,0.4140217467700991,0.06819394044115247
299,17.275,17.22,2.71,0.41704224152323044,0.050584213697404075,0.17958053119457595,0.05620303061175303,0.4147232418753257,0.06767882326643487
300,17.316,17.28,2.72,0.41769958932827844,0.049394267949352824,0.17951381011942083,0.0557527787340932,0.4153921563309591,0.06715364731061865
301,17.377,17.33,2.78,0.4183194377965454,0.04821028907342147,0.17942256844543047,0.05528995528515265,0.41602763169792156,0.06661850758017525
302,17.461,17.39,2.82,0.4189007985366409,0.047032794941783286,0.17930648423609213,0.05481450697091326,0.41662883872534673,0.06607350516732789
303,17.502,17.44,2.8,0.4194427176635638,0.04586229505658465,0.1791652607099728,0.054326395276647066,0.4171949782036798,0.06551874728748348
304,17.585,17.5,2.83,0.4199442765706576,0.04469929052661611,0.17899862670809874,0.0538255968094787,0.4177252817839218,0.064954347313934
305,17.605,17.55,2.87,0.4204045926616767,0.043544274051712774,0.17880633712686383,0.05331210362863354,0.4182190127621084,0.06438042480950776
306,17.667,17.61,2.84,0.420822820042369,0.042397729914215726,0.17858817331558208,0.05278592356263743,0.41867546682817147,0.06379710555485676
307,17.749,17.66,2.84,0.42119815017102114,0.04126013397686919,0.1783439434378571,0.05224708051276563,0.4190939727783802,0.06320452157307159
308,17.769,17.72,2.9,0.42152981246743215,0.04013195368656507,0.17807348279598548,0.05169561474207885,0.41947389319059425,0.06260281115030915
309,17.852,17.77,2.93,0.42181707487979797,0.03901364808336232,0.17777665411765614,0.05113158314940636,0.4198146250616003,0.06199211885210853
310,17.872,17.83,2.94,0.42205924440900267,0.03790566781421045,0.17745334780425634,0.05055505952761928,0.42011560040582296,0.06137259553506743
311,17.935,17.88,3.0,0.42225566758984706,0.03680845515081069,0.17710348214016158,0.049966134805491724,0.4203762868147494,0.0607443983535556
312,17.997,17.94,3.04,0.42240573092880296,0.03572244401105374,0.17672700346246653,0.04936491727238614,0.42059618797646714,0.06010769076114693
313,18.059,17.99,3.03,0.4225088612979684,0.034648059983479716,0.17632388629070683,0.04875153278494346,0.42077484415479866,0.0594626425064599
314,18.1,18.05,3.04,0.42256452628498986,0.03358572035422763,0.17589413341621796,0.048126124954944983,0.42091183262760473,0.058809429623112204
315,18.182,18.1,3.09,0.42257223449881853,0.032535834135979526,0.17543777595086965,0.04748885531755613,0.4210067680839196,0.05814823441351838
316,18.203,18.16,3.08,0.4225315358312595,0.031498802098450594,0.17495487333500392,0.04683990347923656,0.4210593029796637,0.05747924542628919
317,18.264,18.21,3.07,0.42244202167435896,0.030475016800029987,0.17444551330448854,0.046179467244686405,0.42106912785174777,0.056802657427028905
318,18.324,18.27,3.12,0.4223033250937391,0.029464862620228495,0.17390981181687537,0.045507762722274823,0.42103597159044914,0.056118671362355814
319,18.407,18.32,3.08,0.422115120958053,0.02846871579261709,0.17334791293672797,0.04482502440743483,0.42095960167000074,0.055427494316981615
320,18.428,18.38,3.01,0.42187712602477456,0.027486944437942945,0.17275998868025466,0.04413150524351125,0.4208398243373884,0.054729339463681005
321,18.469,18.43,3.05,0.42158909898256913,0.02651990859709641,0.1721462388194456,0.04342747665955364,0.42067648475939606,0.05402442600597785
322,18.551,18.49,3.08,0.4212508404505164,0.025567960263580426,0.17150689064597194,0.04271322858456694,0.4204694671279578,0.053312979113387934
323,18.612,18.54,3.08,0.4208621929344846,0.024631443415118793,0.1708421986951669,0.04198906943775739,0.42021869472388307,0.052595229849112024
324,18.654,18.6,3.08,0.42042304074098785,0.023710694044055656,0.17015244443047917,0.04125532609434914,0.41992412993902006,0.05187141509015309
325,18.715,18.65,3.15,0.419933309848908,0.022806040186248485,0.1694379358888582,0.04051234382660827,0.4195857742569568,0.05114177743990495
326,18.776,18.71,3.13,0.4193929677395243,0.021917801948219344,0.16869900728759932,0.03976048621978065,0.4192036681924073,0.05040656513331343
327,18.838,18.76,3.13,0.4188020231853716,0.021046291532394693,0.16793601859324195,0.03900013506271813,0.41877789118949427,0.04966603193475317
328,18.943,18.82,3.17,0.41816052599851733,0.02019181326032245,0.16714935505317358,0.03823169021302193,0.41830856147922074,0.0489204370287939
329,18.963,18.87,3.16,0.4174685667389231,0.019354663593791857,0.16633942669065466,0.037455569436561864,0.4177958358964865,0.04817004490404588
330,18.984,18.93,3.11,0.4167262763836253,0.018535131153790265,0.1655066677640397,0.036672208221239413,0.41723990965708374,0.047415125230283656
331,19.045,18.98,3.13,0.41593382595753814,0.01773349673722144,0.16465153619102785,0.035882059564873975,0.4166410160951603,0.04665595272905329
332,19.086,19.04,3.13,0.41509142612674405,0.01695003333128187,0.16377451293883613,0.035085593737092344,0.41599942636169446,0.04589280703797611
333,19.167,19.09,3.08,0.41419932675519966,0.016185006125358333,0.16287610138125508,0.03428329801508964,0.41531544908455953,0.045125972568980766
334,19.187,19.15,3.08,0.41325781642581794,0.015438672520301388,0.16195682662361055,0.03347567639314444,0.4145894299907832,0.044355738360722125
335,19.309,19.2,3.11,0.41226722192690385,0.014711282134953922,0.16101723479670477,0.032663249265836164,0.41382175149161904,0.04358239792546436
336,19.33,19.26,3.08,0.41122790770491896,0.014003076809861972,0.16005789232085577,0.031846553085001145,0.41301283223106044,0.04280624909071543
337,19.37,19.31,3.08,0.41014027528453495,0.013314290608158747,0.1590793851411914,0.031026139990536016,0.4121631265984407,0.04202759383590532
338,19.431,19.37,3.13,0.40900476265693053,0.012645149813684331,0.15808231793539215,0.030202577415200868,0.41127312420578227,0.04124673812439898
339,19.472,19.42,3.12,0.4078218436372962,0.01199587292646205,0.15706731329511356,0.0293764476635939,0.4103433493305951,0.040463991731127975
340,19.514,19.48,3.1,0.40659202719254467,0.011366670655691611,0.1560350108823564,0.028548347465481363,0.4093743603248686,0.03967966806611161
341,19.576,19.53,3.1,0.4053158567402667,0.010757745910446578,0.15498606656208916,0.02771888750369,0.40836674899105757,0.038894083994124314
342,19.679,19.59,3.11,0.4039939094200249,0.010169293788288849,0.15392115151247068,0.02688869191679568,0.4073211399259183,0.0381075596507538
343,19.7,19.64,3.08,0.4026267953381269,0.009601501562041738,0.15284095131407663,0.026058397776867578,0.4062381898331015,0.03732041825510099
344,19.742,19.7,3.05,0.40121515678706543,0.009054548665007262,0.15174616501958757,0.025228654542571012,0.4051185868054463,0.036532985919396264
345,19.803,19.75,3.09,0.3997596674408479,0.008528606674964165,0.15063750420544925,0.02440012348799681,0.4039630495779586,0.03574559145583378
346,19.864,19.81,3.04,0.39826103152746617,0.008023839297321703,0.14951569200705922,0.023573477107644847,0.4027723267524815,0.034958566180944735
347,19.925,19.86,2.99,0.3967199829797666,0.007540402347825252,0.1483814621390656,0.022749398498040717,0.40154719599509414,0.0341722437178279
348,19.966,19.92,3.01,0.39513728456597563,0.007078443735203542,0.1472355579023792,0.02192858071651736,0.4002884632072882,0.033386959796524854
349,20.028,19.97,2.98,0.3935137270011199,0.006638103444100905,0.14607873117950157,0.021111726117750074,0.39899696167199045,0.03260305205277662
350,20.089,20.03,2.96,0.39185012804056313,0.006219513518563672,0.144911741419761,0.020299545668710662,0.39767355117549275,0.03182085982534981
351,20.152,20.08,2.97,0.3901473315568602,0.005822798046286226,0.14373535461602702,0.019492758242825006,0.39631911710635476,0.031040723952090687
352,20.192,20.14,2.99,0.3884062066011258,0.005448073143788906,0.14255034227446026,0.018692089894256164,0.3949345695323389,0.030262986564853076
353,20.253,20.19,2.95,0.3866276464501226,0.005095446942703223,0.14135748037885737,0.01789827311334662,0.39352084225645645,0.029487990883450017
354,20.315,20.25,2.93,0.3848125676402936,0.004765019577376882,0.14015754835116578,0.017112046064335987,0.3920788918532213,0.028716081008794185
355,20.399,20.3,2.96,0.3829619089899805,0.0044568831740698445,0.13895132800976412,0.016334151806535135,0.3906096966862404,0.027947601715403295
356,20.42,20.36,2.92,0.38107663061109437,0.004171121842066574,0.13773960252712478,0.01556533750018166,0.38911425590830057,0.02718289824345256
357,20.482,20.41,2.88,0.37915771291151934,0.003907811667060815,0.1365231553884917,0.014806353598234562,0.38759358844513153,0.026422316090556713
358,20.543,20.47,2.9,0.3772061555895503,0.0036670207071459963,0.13530276935320626,0.014057953025405313,0.38604873196404654,0.025666200803455406
359,20.584,20.52,2.86,0.37522297662168674,0.003448808991641111,0.13407922542029074,0.013320890345763182,0.3844807418286756,0.02491489776975605
360,20.645,20.58,2.81,0.37320921124512707,0.0032532285228318338,0.1328533017998542,0.012595920920287456,0.382890690041015,0.024168752009861745
361,20.707,20.63,2.81,0.3711659109362958,0.0030803232805852363,0.1316257728918252,0.01188380005577039,0.3812796641720179,0.023428107969186655
362,20.769,20.69,2.81,0.36909414238671084,0.002930129229737996,0.13039740827346208,0.011185282146494216,0.3796487662819415,0.02269330931073768
363,20.789,20.74,2.77,0.36699498647744067,0.0028026743301519746,0.1291689716970549,0.010501119810110895,0.3779991118316606,0.021964698708127783
364,20.851,20.8,2.76,0.36486953725335797,0.0026979785493693935,0.12794122009920592,0.00983206301916723,0.3763318285861417,0.021242617639083052
365,20.892,20.85,2.77,0.36271890089834824,0.002616053877870551,0.12671490262305457,0.009178858229746971,0.3746480555112748,0.020527406179502727
366,20.954,20.91,2.74,0.36054419471260674,0.0025569043470193478,0.12549075965479575,0.00854224750872862,0.37294894166525705,0.01981940279812727
367,21.015,20.96,2.7,0.35834654609313465,0.0025205260498536103,0.12426952187582337,0.007922967661165183,0.3712356450857297,0.019118944151866567
368,21.075,21.02,2.72,0.35612709151853233,0.0025069071649212998,0.12305190933181186,0.007321749359279749,0.36950933167387057,0.018426364881832906
369,21.137,21.07,2.69,0.35388697553917586,0.0025160279833655245,0.12183863052002573,0.006739316274537241,0.36777117407665116,0.017741997410109747
370,21.2,21.13,2.64,0.35162734977385646,0.002547860939429159,0.1206303814961213,0.006176384214217466,0.36602235056847365,0.017066171737273088
371,21.22,21.18,2.63,0.3493493719139484,0.0026023706445109742,0.11942784500167108,0.005633660263897887,0.36426404393339606,0.016399215240672848
372,21.283,21.24,2.6,0.34705420473614895,0.0026795139248748535,0.11823168961360965,0.005111841937240638,0.36249744034915754,0.015741452473477188
373,21.345,21.29,2.53,0.3447430151247944,0.002779239863099174,0.11704256891677194,0.004611616334445892,0.36072372827419513,0.01509320496448951
374,21.386,21.35,2.49,0.3424169731047031,0.002901489843355637,0.11586112070066738,0.004133659310686849,0.3589440973388195,0.014454791018768245
375,21.489,21.4,2.52,0.3400772508854348,0.0030461976006073664,0.11468796618159952,0.003678634655792329,0.3571597372416796,0.013826525519102687
376,21.509,21.46,2.48,0.3377250219177994,0.0032132892737938156,0.11352370925120127,0.003247193286379853,0.35537183665259636,0.013208719728424599
377,21.571,21.51,2.45,0.33536145996339733,0.003402683463031855,0.11236893575241243,0.0028399724515612676,0.3535815821227954,0.012601681093258894
378,21.613,21.57,2.48,0.33298773817792915,0.0036142912908213864,0.11122421278387998,0.002457594953248039,0.35179015700353317,0.01200571304832599
379,21.674,21.62,2.48,0.330605028208989,0.0038480164672040594,0.11009008803372058,0.0021006683819754907,0.3499987403740915,0.011421114822406079
380,21.715,21.68,2.42,0.3282144993090402,0.004103755358787528,0.10896708914354711,0.0017697843690610184,0.3482085059801118,0.01084818124557603
381,21.777,21.73,2.44,0.32581731746426323,0.004381397061520593,0.10785572310362118,0.001465517855845593,0.3464206211832395,0.010287202557937686
382,21.902,21.79,2.43,0.32341464453995994,0.004680823477090196,0.10675647567995354,0.0011884263807467653,0.3446362459230588,0.009738464219969345
383,21.923,21.84,2.38,0.32100763744318644,0.0050019093928125695,0.10566981087413425,0.0009390493848618649,0.3428565316923005,0.009202246724653744
384,21.964,21.9,2.35,0.31859744730327216,0.005344522564923282,0.10459617041663037,0.0007179075368879098,0.34108262052630556,0.008678825411561819
385,22.006,21.95,2.36,0.31618521867084737,0.005708523805227879,0.10353597329423991,0.0005255020781523025,0.3393156440077182,0.008168470283093898
386,22.069,22.01,2.29,0.31377208873595924,0.006093767071129419,0.10248961531234158,0.0003623141885403626,0.3375567222873711,0.007671445823084748
387,22.131,22.06,2.25,0.3113591865657987,0.006500099559081628,0.10145746869253107,0.00022880437405855912,0.3358069631223013,0.007188010817966301
388,22.173,22.12,2.27,0.3089476323624924,0.006927361801523613,0.1004398817061841,0.0001254118767033314,0.33406746093179907,0.006718418180651981
389,22.253,22.17,2.27,0.30653853674133963,0.00737538776733849,0.0994371783444343,5.255410723129019e-05,0.33233929587235456,0.006262914777274401
390,22.274,22.23,2.24,0.30413300002980775,0.00784400496585101,0.0984496580249961,1.0626101370200296e-05,0.33062353293232366,0.005821741256887533
391,22.335,22.28,2.25,0.30173211158755703,0.008333034554358474,0.09747759533619706,0.0,0.32892122104710414,0.005395131884232748
392,22.376,22.34,2.25,0.29933694914775594,0.008842291449179869,0.09652123981851347,2.102455386876299e-05,0.3272333922356065,0.004983314375660459
393,22.439,22.39,2.22,0.2969485781799684,0.009371584440210088,0.09558081578383343,7.402465346047306e-05,0.32556106075881064,0.004586509738298714
394,22.5,22.45,2.19,0.2945680512749293,0.009920716308983533,0.09465652217260499,0.0001593008846816534,0.3239052223012067,0.00420493211257275
395,22.542,22.5,2.21,0.2921964075515498,0.010489483950279628,0.09374853244896893,0.00027712911106696285,0.32226685317592285,0.0038387886181964134
396,22.604,22.56,2.16,0.2898346720865088,0.011077678497323384,0.09285699453392905,0.0004277600831965251,0.3206469095543462,0.003488279203769985
397,22.666,22.61,2.11,0.28748385536678767,0.011685085450635289,0.09198203077657545,0.0006114190759684708,0.31904632672103017,0.0031535965001235674
398,22.707,22.67,2.11,0.28514495276549323,0.012311484810567328,0.09112373796333781,0.0008283055542978867,0.3174660183546673,0.0028349256775413697
399,22.77,22.72,2.08,0.2828189440412974,0.01295665121352772,0.09028218736520366,0.0010785928677395132,0.3159068758358789,0.0025324443069926856
400,22.832,22.78,2.03,0.2805067928617785,0.013620354071860142,0.08945742482278311,0.0013624279744705442,0.3143697675825391,0.00224632222549183
401,22.873,22.83,2.04,0.27820944635089334,0.01430235771732535,0.08864947086903929,0.0016799311950280477,0.31285553841330344,0.001976721405711348
402,22.956,22.89,2.05,0.27592783466074705,0.015002421548137667,0.08785832088944104,0.0020311959961521785,0.31136500893997,0.0017237958299770927
403,22.997,22.94,2.05,0.2736628705677693,0.015720300179533252,0.08708394531923523,0.0024162888050358925,0.30989897498925917,0.0014876913687806794
404,23.058,23.0,2.02,0.27141544909336873,0.016455743597892276,0.08632628987747797,0.0028352488542563686,0.30845820705457183,0.001268545663951653
405,23.1,23.05,2.05,0.26918644714911055,0.017208497318495487,0.08558527583740377,0.003288088057667687,0.3070434497782797,0.001066488016620064
406,23.162,23.11,2.01,0.2669767232064547,0.01797830254704491,0.08486080033266179,0.0037747909175211785,0.30565542146510843,0.000881639280066567
407,23.224,23.16,1.97,0.2647871169910894,0.01876489634510317,0.0841527366989098,0.004295314463018724,0.3042948136271866,0.0007141117575186852
408,23.286,23.22,1.98,0.262618449201897,0.019568011799598446,0.08346093485022672,0.00484958822039968,0.302962290561336,0.0005640091049250967
409,23.347,23.27,1.96,0.2604715212545919,0.02038737819650239,0.08278522168977735,0.00543751421454248,0.3016584889591734,0.0004314262387356878
410,23.368,23.33,1.91,0.25834711505007557,0.02122272119873685,0.08212540155413323,0.006058967001956457,0.3003840175505731,0.00031644924872898837
411,23.429,23.38,1.89,0.2562459927675374,0.022073763028328874,0.08148125669061601,0.006713793734983928,0.29913945678101445,0.00021915531595102946
412,23.489,23.44,1.89,0.2541688966823154,0.02294022265281698,0.08085254776698816,0.007401814257023206,0.2979253585233122,0.000139612635849939
413,23.55,23.49,1.87,0.2521165490085093,0.023821815975901127,0.08023901441277356,0.008122821228597537,0.2967422458241917,7.788034670780044e-05
414,23.591,23.55,1.85,0.2500896517663151,0.024718256032321317,0.07964037579144541,0.00887658028411417,0.2955906126861346,3.400846348632002e-05
415,23.651,23.6,1.88,0.248088886674021,0.025629253186940863,0.07905633120267307,0.009662830219160095,0.29447092388488866,8.037817209342783e-06
416,23.712,23.66,1.8,0.24611491506457195,0.0265545153379905,0.07848656071378086,0.010481283208135964,0.2933836148230046,0.0
417,23.754,23.71,1.77,0.2441683778265878,0.027493748124395066,0.07793072581954263,0.011331625051937244,0.29232909141974583,9.9173158827603e-06
418,23.814,23.77,1.78,0.24224989536971112,0.028446655137054404,0.07738847012941105,0.012213515455281475,0.29130773003769034,3.780273746463282e-05
419,23.876,23.82,1.78,0.2403600676141731,0.02941293813389073,0.07685942008125861,0.013126588333173438,0.2903198774463141,8.365986864074061e-05
420,23.938,23.88,1.74,0.23849947400447066,0.030392297258437194,0.07634318568068446,0.014070452145911804,0.28936585082280086,0.00014748291352777756
421,23.98,23.93,1.73,0.2366686735470418,0.031384431261754664,0.07583936126491514,0.015044690261982284,0.2884459377902826,0.00022925665189064702
422,24.062,23.99,1.72,0.23486820487180834,0.032389037727504635,0.07534752629030182,0.016048861348143262,0.2875603964936835,0.00032895642137226817
423,24.082,24.04,1.65,0.23309858631744265,0.03340581330002226,0.07486724614239598,0.017082499785963837,0.2867094557133099,0.00044654810686580517
424,24.185,24.1,1.59,0.2313603160402049,0.034434453915214935,0.07439807296756484,0.01814511611402858,0.2858933150162964,0.0005819881373888079
425,24.205,24.15,1.58,0.22965387214617644,0.03547465503408208,0.07393954652507843,0.019236197494992138,0.2851121449459678,0.0007352234908254467
426,24.266,24.21,1.52,0.22797971284667942,0.036526111878617866,0.07349119505856687,0.020355208206646366,0.2843660872491086,0.0009061917068913172
427,24.307,24.26,1.45,0.2263382766366182,0.03758851966981671,0.07305253618571035,0.021501590156143783,0.2836552551410422,0.0010948209086438748
428,24.389,24.32,1.43,0.22472998249541515,0.038661573867454356,0.0726230778049876,0.02267476341651205,0.2829797336083082,0.0013010298328123952
429,24.472,24.37,1.4,0.22315523011015428,0.03974497041126771,0.07220231901827705,0.023874126784596692,0.28233957974861595,0.0015247278691623242
430,24.492,24.43,1.33,0.22161440012049896,0.04083840596311689,0.07178975106808202,0.025099058359600277,0.28173482314762593,0.0017658151090607726
431,24.533,24.48,1.28,0.22010785438491004,0.04194157814970187,0.07138485828813862,0.0263489161414671,0.2811654662919886,0.002024182403371657
432,24.574,24.54,1.28,0.21863593626765138,0.043054185805429655,0.07098711906616698,0.02762303864848717,0.2806314850179493,0.0022997114297707605
433,24.636,24.59,1.22,0.21719897094601856,0.044175929215077875,0.07059600681753796,0.028920745553646286,0.28013282899469955,0.00259227476952373
434,24.697,24.65,1.2,0.215797265737154,0.045306510355969394,0.07021099096863011,0.030241338339426962,0.27966942224152413,0.0029017359937165968
435,24.758,24.7,1.21,0.21443111044371443,0.04644563313943731,0.06983153794863084,0.031584100970950914,0.27924116367766627,0.0032279497588686063
436,24.841,24.76,1.19,0.21310077771756136,0.047593003651382776,0.06945711218850223,0.03294830058749443,0.2788479277037099,0.003570761911797086
437,24.861,24.81,1.16,0.2118065234405635,0.04874833039170014,0.06908717712579361,0.034333188212465865,0.27848956481317044,0.00393000960355691
438,24.925,24.87,1.17,0.2105485871215381,0.04991132451228195,0.06872119621395237,0.0357379994819104,0.2781659022328921,0.0043055214122405495
439,24.965,24.92,1.2,0.20932719230830432,0.0510817000532406,0.06835863393476371,0.037161955391495395,0.27787674459076395,0.0046971174743962755
440,25.026,24.98,1.19,0.20814254701376653,0.05225917417691357,0.06799895681254886,0.03860426306172453,0.27762187460919074,0.005104609624797166
441,25.088,25.03,1.2,0.20699484415488595,0.05344346739917533,0.06764163442875663,0.04006411652089469,0.2774010538226911,0.005527801544273874
442,25.17,25.09,1.26,0.2058842620033451,0.05463430381756865,0.06728614043558813,0.04154069750512593,0.2772140233179381,0.005966488915306855
443,25.192,25.14,1.26,0.2048109646466647,0.055831411335788096,0.0669319535672914,0.04303317627469119,0.27706050449452774,0.006420459585064394
444,25.253,25.2,1.26,0.20377510245850114,0.057034521884091846,0.06657855864775715,0.044540712445833845,0.27694019984473406,0.006889493735571666
445,25.294,25.25,1.33,0.20277681257683697,0.05824337163526357,0.06622544759303707,0.04606245583725299,0.27685279375050337,0.007373364060689444
446,25.356,25.31,1.34,0.20181621938877953,0.05945770121576497,0.06587212040740272,0.04759754733041309,0.27679795329593954,0.007871835949568976
447,25.438,25.36,1.32,0.20089343502069743,0.06067725591170717,0.06551808617156532,0.049145119742779304,0.2767753290935391,0.008384667676236248
448,25.479,25.42,1.37,0.20000855983243918,0.06190178586924311,0.06516286402168608,0.05070429871301425,0.2767845561224448,0.008911610594949217
449,25.542,25.47,1.4,0.19916168291439273,0.06313104628895379,0.06480598411782325,0.052274203597111005,0.2768252545770002,0.009452409340965817
450,25.562,25.53,1.37,0.1983528825861613,0.064364797613781,0.064446988600486,0.053853948374391045,0.27689703072389765,0.010006802036361456
451,25.626,25.58,1.37,0.19758222689563634,0.06560280571006456,0.06408543253398215,0.05544264256229075,0.27699947776622263,0.010574520500545699
452,25.686,25.64,1.42,0.1968497741172434,0.06684484204127074,0.0637208848352526,0.05703939213890471,0.2771321767126997,0.011155290465140398
453,25.749,25.69,1.43,0.19615557324812344,0.06809068383402705,0.06335292918688408,0.05864330047231315,0.27729469725044503,0.011748831792898993
454,25.81,25.75,1.44,0.19549966450099773,0.06934011423609318,0.06298116493298406,0.06025346925576318,0.2774865986195228,0.01235485870036645
455,25.851,25.8,1.51,0.1948820797924576,0.07059292246589152,0.06260520795659376,0.06186899944778373,0.27770743048759566,0.012973079983992494
456,25.913,25.86,1.54,0.194302843225437,0.07184890395319636,0.06222469153731727,0.06348899221628457,0.27795673382297514,0.013603199249406799
457,25.954,25.91,1.55,0.19376197156465982,0.07310786047055391,0.06183926718786258,0.06511254988564402,0.27823404176440497,0.014244915143560188
458,26.015,25.97,1.6,0.19325947470390184,0.07436960025500375,0.06144860546821998,0.06673877688576928,0.2785388804859571,0.014897921589432091
459,26.076,26.02,1.65,0.1927953561239609,0.07563393811969062,0.06105239677624144,0.06836678070212751,0.27887077005547944,0.015561908023003758
460,26.137,26.08,1.66,0.1923696133402904,0.07690069555498831,0.06065035211342996,0.06999567282577328,0.27922922528510113,0.016236559632201965
461,26.179,26.13,1.66,0.19198223833930866,0.07816970081880718,0.06024220382479369,0.07162456970242938,0.2796137565723682,0.01692155759752852
462,26.282,26.19,1.72,0.19163321800245056,0.07944078901581435,0.05982770631166745,0.07325259367969959,0.2800238707306553,0.01761657933409962
463,26.302,26.24,1.71,0.19132253451708017,0.08071380216534028,0.059406636716459606,0.07487887395147502,0.2804590718075587,0.018321298734820145
464,26.343,26.3,1.69,0.19105016577343703,0.08198858925775905,0.05897879557833954,0.07650254749854363,0.2809188618900374,0.01903538641441335
465,26.405,26.35,1.74,0.1908160857468419,0.0832650062991202,0.05854400745893273,0.07812276002435077,0.28140274189511544,0.019758509954015818
466,26.465,26.41,1.77,0.190620264864437,0.08454291634378568,0.05810212153713379,0.07973866688480319,0.28191021234499963,0.02049033414603427
467,26.506,26.46,1.76,0.19046267035576617,0.08582218951480906,0.05765301217218441,0.08134943401096738,0.2824407741255014,0.021230521238957033
468,26.568,26.52,1.8,0.1903432665865208,0.0871027030118068,0.057196579434190674,0.08295423882351,0.28299392922668676,0.02197873118181848
469,26.648,26.57,1.86,0.190262015374806,0.08838434110610831,0.05673274960128692,0.08455227113776075,0.2835691814647252,0.022734621868029752
470,26.668,26.63,1.86,0.19021887628932885,0.08966699512302902,0.0562614756226974,0.08614273405832719,0.28416603718396316,0.023497849378310034
471,26.729,26.68,1.88,0.19021380692897882,0.09095056341118335,0.055782737547002706,0.08772484486224584,0.28478400593831366,0.024268068222477037
472,26.79,26.74,1.92,0.19024676318334596,0.09223495129883567,0.055296542914981185,0.0892978358697091,0.2854226011511323,0.025044931579868774
473,26.831,26.79,1.91,0.19031769947380048,0.09352007103735621,0.05480292711646662,0.0908609553014343,0.2860813407528287,0.02582809153817456
474,26.894,26.85,1.9,0.19042656897482937,0.09480584173190186,0.05430195371073564,0.09241346812173748,0.2867597477955426,0.0266171993304624
475,26.996,26.9,1.93,0.19057332381538702,0.096092189259489,0.053793714710004784,0.09395465686634799,0.2874573510442803,0.027411905570210744
476,27.016,26.96,1.94,0.19075791526006847,0.09737904617466678,0.05327833082567937,0.09548382245396236,0.2881736855439624,0.02821186048418049
477,27.057,27.01,1.9,0.19098029386995197,0.09866635160304428,0.052755951677053894,0.09700028498049998,0.28890829316188316,0.029016714142999583
478,27.118,27.07,1.93,0.1912404096429784,0.09995405112298318,0.05222675596221289,0.09850338449502385,0.28966072310511304,0.029826116689373308
479,27.18,27.12,1.98,0.1915382121337447,0.10124209663583875,0.05169095159092123,0.09999248175634913,0.29043053241241773,0.030639718563869527
480,27.221,27.18,1.97,0.1918736505525974,0.10253044622520695,0.05114877577932563,0.1014669589694646,0.2912172864202945,0.03145717072826213
481,27.282,27.23,1.97,0.19224667384392494,0.10381906400571463,0.05060049510631619,0.10292622050101356,0.2920205592027649,0.032278124886444395
482,27.406,27.29,2.04,0.19265723074357405,0.1051079199619727,0.05004640553142273,0.10436969357318282,0.29283993398461056,0.0331022337029404
483,27.427,27.34,2.04,0.19310526981535825,0.10639698977838559,0.04948683237415839,0.10579682893540017,0.29367500352780007,0.033929151019047823
484,27.468,27.4,2.04,0.19359073946667815,0.10768625466056542,0.048922130254771136,0.10720710151324357,0.2945253704909241,0.034758532066648716
485,27.532,27.45,2.09,0.19411358794333353,0.10897570114911699,0.048352682996421585,0.10860001103394498,0.2953906477615261,0.03559003367972527
486,27.572,27.51,2.1,0.19467376330369168,0.11026532092649954,0.047778903488870185,0.109975082627841,0.2962704587612927,0.03642331450361299
487,27.635,27.56,2.08,0.19527121337248943,0.11155511061752008,0.047201233513822466,0.11133186740510587,0.29716443772414314,0.03725803520201803
488,27.676,27.62,2.07,0.19590588567466835,0.11284507158383485,0.04662014353214153,0.1126699430071242,0.2980722299473321,0.03809385866182334
489,27.738,27.67,2.08,0.19657772734974518,0.11413520971271146,0.04603613243318948,0.11398891413192556,0.2989934920157522,0.038930450195714554
490,27.779,27.73,2.05,0.1972866850472875,0.11542553520026361,0.045449727246607834,0.1152884130331813,0.29992789199967046,0.0397674777426795
491,27.82,27.78,2.04,0.198032704804099,0.11671606232938624,0.044861482816890744,0.11656809999232923,0.3008751096261729,0.04060461206647181
492,27.884,27.84,2.09,0.19881573190373578,0.11800680924263593,0.0442719814411479,0.11782766376340734,0.3018348364246021,0.041441526952160045
493,27.944,27.89,2.1,0.19963571071898806,0.11929779771027828,0.04368183247050438,0.11906682199011903,0.3028067758462937,0.042277899400890176
494,27.986,27.95,2.09,0.2004925845379881,0.12058905289367464,0.04309167187563852,0.12028532159454526,0.3037906433589383,0.04311340982297232
495,28.046,28.0,2.13,0.20138629537463887,0.12188060310413362,0.0425021617770086,0.12148293913682831,0.304786166515933,0.04394774222936876
496,28.109,28.06,2.14,0.20231678376410966,0.12317247955733229,0.04191398994036984,0.12265948114510737,0.3057930850011395,0.04478058442162383
497,28.171,28.11,2.11,0.20328398854420296,0.12446471612342185,0.04132786923823501,0.12381478441498305,0.3068111506495235,0.04561162818025066
498,28.232,28.17,2.12,0.20428784662344726,0.1257573490729782,0.04074453707797818,0.12494871627783548,0.30784012744420597,0.046440569451582085
499,28.294,28.22,2.15,0.20532829273681272,0.1270504168190356,0.04016475479730842,0.12606117483740856,0.3088797914905113,0.04726710853309852
500,28.355,28.28,2.11,0.2064052591899755,0.12834395965552775,0.03958930702784487,0.12715208917417634,0.3099299309676422,0.048090950257256605
501,28.376,28.33,2.07,0.20751867559307388,0.12963801949254647,0.039019001027509284,0.1282214195171177,0.3109903460586461,0.04891180417384679
502,28.477,28.39,2.09,0.20866846858490173,0.1309326395889003,0.038454665982434015,0.12926915738263406,0.3120608488593678,0.049729384730893576
503,28.497,28.44,2.08,0.20985456154848156,0.13222786428249375,0.03789715227907811,0.13029532568042648,0.3131412632670951,0.05054341145408364
504,28.539,28.5,2.04,0.21107687431894775,0.13352373871904877,0.037347330747248456,0.13129997878620758,0.31423142484960853,0.05135360912467619
505,28.6,28.55,2.06,0.21233532288465234,0.13482030857967306,0.03680609187472938,0.13228320258117693,0.31533118069533245,0.052159707955815746
506,28.662,28.61,2.08,0.2136298190823861,0.1361176198077568,0.036274344994235645,0.13324511445823964,0.3164403892452829,0.05296144376713105
507,28.703,28.66,2.04,0.21496027028760084,0.13741571833566926,0.03575301744342465,0.13418586329499108,0.31755892010749637,0.053758558157477064
508,28.765,28.72,2.03,0.21632657910051703,0.13871464981174145,0.035243053698727725,0.13510562939353218,0.3186866538546234,0.054550798675664494
509,28.847,28.77,2.08,0.2177286430290089,0.1400144593280685,0.03474541448378573,0.1360046243872245,0.3198234818053758,0.05533791898901445
510,28.868,28.83,2.06,0.2191663541691703,0.14131519114971555,0.034261075853302674,0.13688309111450672,0.32096930579052074,0.05611967904956477
511,28.929,28.88,2.05,0.22063959888447895,0.14261688844594017,0.03379102825316649,0.1377413034598699,0.3221240379041272,0.05689584525773435
512,28.99,28.94,2.1,0.22214825748449105,0.14391959302404414,0.03333627555772647,0.13857956616202477,0.3232876002407768,0.05766619062321854
513,29.054,28.99,2.12,0.22369220390400918,0.145223345066431,0.032897834085164245,0.13939821458920054,0.32445992461947276,0.058430494922846875
514,29.098,29.05,2.08,0.2252713053836781,0.14652818287139419,0.032476731591940915,0.1401976144814228,0.32564095229499473,0.05918854485509924
515,29.159,29.1,2.1,0.22688542215296878,0.1478341425981169,0.03207400624734247,0.1409781616595765,0.3268306336574813,0.05994013419095014
516,29.221,29.16,2.1,0.22853440711652537,0.14914125801632988,0.0316907055891816,0.1417402817010824,0.32802892792105137,0.06068506392069424
517,29.283,29.21,2.09,0.23021810554486521,0.15044956026104547,0.03132788546175271,0.14248442958207794,0.3292358028023056,0.06142314239640628
518,29.323,29.27,2.09,0.23193635477042607,0.15175907759277876,0.03098660893716923,0.1432110892860921,0.3304512341895606,0.062154185469707184
519,29.405,29.32,2.14,0.233688983889938,0.1530698351636783,0.030667945221238283,0.14392077337931292,0.33167520580367865,0.06287801662453198
520,29.426,29.38,2.12,0.23547581347408222,0.15438185479000327,0.030372968545060688,0.14461402255259634,0.33290770885136073,0.06359446710461485
521,29.488,29.43,2.1,0.2372966552853859,0.15569515473138412,0.03010275704359389,0.14529140513032085,0.3341487416717839,0.0643033760354199
522,29.633,29.49,2.14,0.23915131200530562,0.1570097494772895,0.029858391622479864,0.14595351654607847,0.3353983093774811,0.06500459054025627
523,29.653,29.54,2.14,0.24103957697146386,0.1583256495410816,0.029640954814509703,0.14660097878508555,0.3366564234903814,0.06569796585032932
524,29.674,29.6,2.12,0.24296123392602062,0.15964286126197963,0.029451529627157955,0.1472344397931484,0.33792310157394245,0.06638336540850506
525,29.695,29.65,2.12,0.24491605677618386,0.16096138661517093,0.029291198382668762,0.1478545728520508,0.3391983668623236,0.06706066096659438
526,29.756,29.71,2.13,0.24690380936788386,0.16228122303023096,0.02916104155221548,0.14846207592131822,0.34048224788755505,0.06772973267598624
527,29.819,29.76,2.09,0.24892424527364346,0.1636023632179544,0.02906213658568925,0.1490576709464347,0.34177477810567236,0.06839046917147426
528,29.879,29.82,2.08,0.2509771075956596,0.16492479500567916,0.02899555673869707,0.14964210313373005,0.34307599552277807,0.0690427676481326
529,29.961,29.87,2.11,0.2530621287850762,0.1662485011811836,0.02896236989836682,0.15021614019230303,0.34438594232198166,0.06968653393109815
530,29.981,29.93,2.09,0.2551790304783731,0.1675734593452326,0.028963637409567512,0.15078057154347824,0.34570466449214743,0.07032168253810978
531,30.044,29.98,2.07,0.25732752335173875,0.16889964177283076,0.02900041290315333,0.1513362074984273,0.3470322114593474,0.07094813673463918
532,30.086,30.04,2.08,0.25950730699422936,0.1702270152832268,0.02907374112782739,0.15188387840474804,0.3483686357218955,0.071565828581427
533,30.148,30.09,2.07,0.26171806980046247,0.17155554111869775,0.029184656787211032,0.15242443376295373,0.3497139924898148,0.07217469897421656
534,30.189,30.15,2.03,0.2639594888835453,0.172885174832126,0.029334183383710435,0.15295874131393628,0.35106833932956943,0.07277469767547508
535,30.251,30.2,2.03,0.26623123000888865,0.17421586618339804,0.029523332070794134,0.15348768609853722,0.35243173581486004,0.0733657833379139
536,30.313,30.26,2.04,0.2685329475494937,0.17554755904470976,0.029753100515322813,0.15401216949042212,0.3538042431842484,0.07394792351965675
537,30.376,30.31,2.0,0.27086428446322885,0.17688019131494695,0.03002447177159874,0.15453310820353444,0.3551859240063306,0.07452109469095096
538,30.437,30.37,1.97,0.2732248722925416,0.17821369484337934,0.03033841316881937,0.15505143327549528,0.3565768418531278,0.07508528223235797
539,30.458,30.42,1.98,0.2756143311869775,0.1795479953629356,0.030695875213630618,0.15556808902840025,0.3579770609823127,0.07564048042438445
540,30.52,30.48,1.95,0.2780322699488008,0.18088301243331942,0.03109779050948629,0.15608403200851706,0.3593866460288319,0.0761866924285152
541,30.58,30.53,1.9,0.2804782861019252,0.18221865939417994,0.03154507269452995,0.15660022990641775,0.36080566170642203,0.07672393025958998
542,30.642,30.59,1.92,0.28295196598426575,0.1835548433284776,0.032038615399720485,0.15711766045911094,0.3622341725194414,0.07725221474943797
543,30.704,30.64,1.95,0.28545288486353176,0.1848914650360898,0.03257929122892471,0.15763731033578604,0.36367224248536056,0.07777157550165792
544,30.745,30.7,1.91,0.28798060707638873,0.18622841901760462,0.03316795076269883,0.15816017400885793,0.36511993486817373,0.07828205083742218
545,30.807,30.75,1.91,0.2905346861908372,0.18756559346818608,0.03380542158746918,0.15868725261214778,0.3665773119229161,0.07878368773218705
546,30.869,30.81,1.93,0.29311466519157425,0.18890287028137046,0.03449250735180267,0.15921955278823288,0.3680444346514136,0.07927654174319426
547,30.951,30.86,1.91,0.2957200766880309,0.1902401250626515,0.03522998685143772,0.15975808552719364,0.36952136256933993,0.07976067692764313
548,30.972,30.92,1.9,0.29835044314469633,0.19157722715272874,0.03601861314472921,0.1603038649991437,0.37100815348459776,0.08023616575140179
549,31.054,30.97,1.98,0.3010052771332431,0.19291403966032494,0.03685911270014446,0.1608579073830446,0.3725048632869933,0.08070308898811006
550,31.074,31.03,2.05,0.3036840816058713,0.19425041950450161,0.03775218457743158,0.16142122969436692,0.3740115457491127,0.08116153560850901
551,31.136,31.08,2.14,0.30638635018918564,0.19558621746640203,0.0386984996440585,0.16199484861417524,0.3755282523382772,0.08161160265982471
552,31.198,31.14,2.23,0.3091115674978342,0.19692127825031508,0.039698699828471504,0.16257977932218054,0.3770550320394417,0.08205339513504861
553,31.26,31.19,2.27,0.3118592094670832,0.19825544055386884,0.04075339741162854,0.16317703433622277,0.378591931188961,0.08248702583200614
554,31.302,31.25,2.26,0.3146287437034917,0.19958853714703664,0.04186317435811829,0.16378762236050265,0.3801389933192444,0.08291261520219861
555,31.364,31.3,2.27,0.3174196298528737,0.20092039495951325,0.04302858168799985,0.16441254714471945,0.3816962590144525,0.08333029118952506
556,31.426,31.36,2.28,0.3202313199847801,0.2022508351759376,0.04425013889032663,0.16505280635613864,0.3832637657774947,0.0837401890591035
557,31.467,31.41,2.23,0.32306325899278243,0.20357967333842147,0.04552833337918334,0.16570939046652136,0.38484154790865455,0.08414245121648581
558,31.508,31.47,2.22,0.3259148850098763,0.2049067194558827,0.046863619992961014,0.1663832816557863,0.3864296363961883,0.0845372270175915
559,31.57,31.52,2.25,0.32878562983834303,0.206231778119745,0.048256420537509004,0.16707545273421848,0.38802805881922564,0.08492467256968395
560,31.631,31.58,2.24,0.3316749193934161,0.2075546486256105,0.04970712337372278,0.16778686608495696,0.3896368392632621,0.08530495052369665
561,31.693,31.63,2.21,0.3345821741601003,0.20887512510052794,0.051216083050048815,0.16851847262838077,0.39125599824847807,0.08567822985820192
562,31.796,31.69,2.21,0.33750680966248053,0.21019299663548252,0.05278361998030772,0.1692712108098813,0.3928855526710736,0.0860446856552933
563,31.816,31.74,2.2,0.34044823694484316,0.21150804742273818,0.05441002016715711,0.17004600561237881,0.39452551575776157,0.08640449886862694
564,31.837,31.8,2.16,0.34340586306390625,0.21282005689765734,0.05609553497143399,0.17084376759481867,0.39617589703351147,0.08675785608384841
565,31.9,31.85,2.16,0.34637909159142605,0.214128799884622,0.05784038092752883,0.1716653919578035,0.3978367023025758,0.08710494927163139
566,31.961,31.91,2.21,0.34936732312640006,0.21543404674668723,0.05964473960484778,0.17251175763746818,0.39950793364275455,0.0874459755335719
567,32.043,31.96,2.21,0.3523699558160455,0.21673556353860876,0.06150875751532528,0.17338372642864436,0.401189589412777,0.08778113684120246
568,32.064,32.02,2.18,0.35538638588469834,0.21803311216290605,0.06343254606686162,0.17428214213826482,0.402881664272613,0.08811063976840156
569,32.168,32.07,2.22,0.3584160081697592,0.21932645052865166,0.06541618156247903,0.1752078297698346,0.4045841492164758,0.08843469521746772
570,32.189,32.13,2.23,0.3614582166638039,0.22061533271270894,0.06745970524491346,0.176161594739666,0.4062970316182437,0.08875351813911372
571,32.251,32.18,2.21,0.36451240506198207,0.22189950912317324,0.06956312338627817,0.1771442221254677,0.4080202952889938,0.08906732724664258
572,32.292,32.24,2.23,0.3675779673138253,0.22317872666480434,0.07172640742234129,0.17815647594781206,0.4097539205462982,0.0893763447245934
573,32.334,32.29,2.25,0.3706542981785878,0.22445272890627832,0.07394949413085482,0.1791990984849751,0.4114978842948997,0.0896807959321839
574,32.394,32.35,2.23,0.3737407937832414,0.2257212562491229,0.07623228585326251,0.18027280962163053,0.4132521601183416,0.08998090910191776
575,32.518,32.4,2.23,0.3768368521822418,0.22698404609824657,0.07857465075900662,0.1813783062318779,0.41501671838109233,0.09027691503377151
576,32.538,32.46,2.28,0.37994187391817064,0.228240833034016,0.0809764231515529,0.18251626159707734,0.4167915263406611,0.0905690467854184
577,32.559,32.51,2.28,0.3830552625823363,0.22949134898585924,0.08343740381516052,0.1836873248589296,0.41857654826915475,0.09085753935898377
578,32.621,32.57,2.3,0.38617642537439595,0.23073532340736347,0.085957360401335,0.18489212050816642,0.4203717455836821,0.09114262938484938
579,32.662,32.62,2.44,0.38930477366004324,0.2319724834528006,0.08853602785382186,0.1861312479091207,0.42217707698497603,0.09142455480303187
580,32.724,32.68,2.47,0.39243972352579853,0.23320255415496555,0.09117310887092407,0.18740528086033634,0.4239924986035834,0.0917035545426458
581,32.785,32.73,2.45,0.3955806963299461,0.23442525860417493,0.09386827440386039,0.18871476719127558,0.42581796415298473,0.09197986819991089
582,32.827,32.79,2.48,0.3987271192486802,0.23564031812826616,0.09662116418981913,0.19006022839510495,0.4276534250890439,0.09225373571506516
583,32.889,32.84,2.52,0.40187842581654865,0.23684745247346145,0.09943138731830889,0.19144215929749264,0.4294988307752475,0.09252539704842415
584,32.95,32.9,2.51,0.4050340564603075,0.23804637998601194,0.1022985228293681,0.1928610277613166,0.4313541286532336,0.09279509185574092
585,33.011,32.95,2.53,0.4081934590253335,0.23923681779459455,0.1052221203421652,0.1943172744271516,0.43321926441813435,0.09306305916299941
586,33.054,33.01,2.57,0.4113560892937559,0.24041848199348037,0.1082017007124983,0.19581131248935735,0.4350941821982515,0.09332953704078559
587,33.116,33.06,2.53,0.4145214114934966,0.24159108782649827,0.1112367567176858,0.19734352750750755,0.4369788247385849,0.09359476227839278
588,33.178,33.12,2.51,0.41768889879740667,0.24275434987178435,0.11432675376731806,0.19891427725279295,0.438873133587724,0.0938589700578144
589,33.26,33.17,2.53,0.42085803381167997,0.24390798222725696,0.11747113063830464,0.2005238915889448,0.44077704928759054,0.09412239362775333
590,33.28,33.23,2.56,0.42402830905268263,0.24505169869669818,0.12066930023260457,0.20217267238716727,0.442690511565487,0.09438526397774599
591,33.342,33.28,2.55,0.42719922741128225,0.24618521297626808,0.12392065035596934,0.20386089347454187,0.44461345952785336,0.09464780951247775
592,33.384,33.34,2.58,0.43037030260369136,0.2473082388412424,0.127224544515968,0.2055888006153754,0.4465458318550829,0.09491025572636479
593,33.446,33.39,2.64,0.43354105960777806,0.24842049033276797,0.13058032273751027,0.2073566115249904,0.4484875669967063,0.09517282487849715
594,33.486,33.45,2.65,0.43671103508377046,0.2495216819444552,0.1339873023940503,0.20916451591544882,0.4504386033662292,0.09543573566808716
595,33.548,33.5,2.69,0.4398797777782868,0.2506115288086657,0.13744477905265012,0.21101267557261655,0.4523988795348976,0.0956992029106409
596,33.63,33.56,2.78,0.443046848910679,0.25168974688238965,0.14095202733111475,0.21290122446377469,0.4543683344236769,0.09596343721515008
597,33.651,33.61,2.8,0.4462118225407615,0.2527560531326348,0.144508301765467,0.21483026887472756,0.45634690749275214,0.09622864466267422
598,33.712,33.67,2.81,0.4493742859170951,0.25381016572127996,0.14811283768608963,0.2167998875751464,0.45833453892790293,0.0964950264867453
599,33.773,33.72,2.84,0.4525338398050837,0.2548518041893708,0.1517648521009023,0.21881013201080116,0.4603311698231524,0.09676277875608291
600,33.814,33.78,2.86,0.4556900987942343,0.25588068964084804,0.15546354458397998,0.22086102652131673,0.4623367423591432,0.09703209206015291
601,33.875,33.83,2.84,0.4588426915840095,0.25689654492569625,0.15920809816806072,0.22295256858210769,0.4643511999767347,0.09730315119813879
602,33.937,33.89,2.86,0.46199126124776907,0.2578990948225026,0.1629976802394309,0.2250847290691714,0.46637448754533517,0.0975761348719241
603,33.998,33.94,2.89,0.4651354654743385,0.25888806622042343,0.16683144343371528,0.22725745254546195,0.4684065515254914,0.09785121538370056
604,34.039,34.0,2.88,0.46827497678676194,0.25986318830056626,0.1707085265311318,0.2294706575675905,0.4704473401252542,0.0981285583388335
605,34.101,34.05,2.91,0.4714094827378067,0.26082419271679536,0.1746280553497967,0.2317242370116119,0.4724968034498244,0.09840832235463862
606,34.163,34.11,2.99,0.474538686081781,0.26177081377597733,0.17858914363568293,0.23401805841665285,0.4745548936439689,0.09869065877574669
607,34.225,34.16,3.01,0.47766230492223255,0.2627027886176755,0.1825908939478496,0.23635196434510541,0.4766215650266946,0.09897571139674068
608,34.266,34.22,3.02,0.4807800728351144,0.2636198573933011,0.18663239853758296,0.23872577275806894,0.47869677421767415,0.09926361619274403
609,34.389,34.27,3.1,0.48389173896705817,0.26452176344471984,0.19071274022011983,0.24113927740469876,0.480780480254948,0.09955450105862462
610,34.409,34.33,3.16,0.4869970681084809,0.26540825348229696,0.19483099323767025,0.24359224822411318,0.4828726447034751,0.09984848555747018
611,34.43,34.38,3.17,0.49009584074137835,0.26627907776232995,0.19898622411251105,0.24608443175854647,0.4849732317541557,0.10014568067899957
612,34.492,34.44,3.19,0.49318785306178814,0.26713399026378837,0.20317749248897224,0.2486155515765502,0.4870822083130183,0.1004461886085869
613,34.534,34.49,3.25,0.49627291697704623,0.2679727488642656,0.2074038519631842,0.25118530870521655,0.4891995440803248,0.1007501025075835
614,34.595,34.55,3.22,0.4993508600780682,0.2687951155150648,0.21166435089950528,0.2537933820705489,0.49132521161942455,0.1010575063056216
615,34.657,34.6,3.22,0.5024215255869688,0.2696008564153769,0.2159580332326131,0.2564394289451796,0.493459186415239,0.10136847450558528
616,34.74,34.66,3.24,0.5054847722803775,0.27038974218555883,0.22028393925430861,0.2591230854026522,0.49560144692229446,0.10168307200192857
617,34.761,34.71,3.24,0.5085404743888263,0.2711615480395429,0.22464110638414456,0.2618439667774601,0.4977519746022443,0.10200135391300579
618,34.844,34.77,3.24,0.5115885214725908,0.27191605395639684,0.2290285699230384,0.264601668130005,0.4999107539508232,0.10232336542806078
619,34.865,34.82,3.29,0.5146288182743625,0.2726530448510163,0.23344536378906963,0.26739576471563326,0.5020777725141625,0.10264914166950241
620,34.926,34.88,3.33,0.5176612845491231,0.2733723107438811,0.23789052123470283,0.27022581245691063,0.5042530208943921,0.10297870757106982
621,34.989,34.93,3.33,0.5206858548715906,0.2740736469297566,0.2423630755447377,0.27309134841830474,0.5064364927444471,0.10331207777245663
622,35.031,34.99,3.36,0.5237024784216192,0.27475685414520873,0.246862060714361,0.2759918912824387,0.5086281847520172,0.1036492565309252
623,35.093,35.04,3.41,0.5267111187479633,0.275421738734812,0.251386512106759,0.2789269418271008,0.5108280966126009,0.1039902376504058
624,35.154,35.1,3.42,0.529711753510869,0.27606811281596505,0.2559354670898367,0.2818959834022137,0.5130362309916713,0.10433500442855013
625,35.218,35.15,3.44,0.5327043742040172,0.27669579444225806,0.2605079656516687,0.28489848240601506,0.5152525934759877,0.10468352962219452
626,35.258,35.21,3.5,0.5356889858564012,0.2773046077653717,0.26510305099437587,0.28793388875976966,0.5174771925141342,0.10503577543166846
627,35.319,35.26,3.56,0.5386656067147791,0.27789438319550364,0.2697197701061995,0.29100163638037874,0.5197100393464069,0.10539169350435552
628,35.381,35.32,3.54,0.5416342679073791,0.27846495756032524,0.27435717431161777,0.2941011436502779,0.5219511479242235,0.10575122495787118
629,35.463,35.37,3.58,0.5445950130895819,0.27901617426247344,0.27901431979942554,0.29723181388403774,0.5242005348192851,0.10611430042316329
630,35.484,35.43,3.59,0.5475478980723237,0.27954788343558706,0.2836902681287701,0.3003930357911161,0.5264582191227883,0.10648084010776371
631,35.526,35.48,3.56,0.5504929904339939,0.28005994209890067,0.2883840867131986,0.3035841839342593,0.5287242223350421,0.10685075387933979
632,35.588,35.54,3.55,0.5534303691166035,0.28055221431042776,0.29309484928282314,0.30680461918311985,0.5309985682458865,0.10722394136963205
633,35.669,35.59,3.61,0.5563601240070035,0.2810245713187804,0.2978216363247519,0.3100536891627163,0.5332812828063273,0.1076002920988172
634,35.689,35.65,3.61,0.5592823555039163,0.28147689171367324,0.30256353550197723,0.3133307286963961,0.535572393991799,0.10797968562029808
635,35.751,35.7,3.61,0.5621971740715347,0.28190906157513146,0.3073196420509377,0.3166350602429568,0.5378719316574625,0.10836199168589238
636,35.832,35.76,3.67,0.5651046997804475,0.282320974621391,0.312089059158002,0.31996599432756273,0.540179927385931,0.10874707043135885
637,35.853,35.81,3.69,0.5680050618366747,0.2827125323554338,0.31687089831514587,0.32332282996605577,0.5424964143278371,0.10913477258216914
638,35.914,35.87,3.68,0.5708983980996465,0.2830836442100663,0.3216642796551356,0.3267048550822113,0.54482142703567,0.10952493967940943
639,35.976,35.92,3.71,0.5737848545900177,0.28343422769143867,0.32646833226657507,0.33011134691745675,0.5471550012913449,0.10991740432568331
640,36.017,35.98,3.74,0.5766645849882507,0.28376420852092726,0.3312821944892269,0.33354157243258026,0.5494971739279978,0.11031199045088158
641,36.079,36.03,3.8,0.57953775012495,0.2840735207753482,0.33610501419006955,0.3369947887010083,0.5518479826465371,0.11070851359768594
642,36.202,36.09,3.79,0.5824045174639726,0.28436210702551357,0.3409359490205884,0.3404702432933026,0.554207465827504,0.11110678122667206
643,36.222,36.14,3.81,0.5852650605793799,0.28462991847317176,0.3457741666558482,0.34396717465256554,0.5565756623388395,0.11150659304083951
644,36.243,36.2,3.78,0.5881195586273384,0.28487691508636614,0.35061884501593,0.34748481246041235,0.5589526113401938,0.11190774132929358
645,36.325,36.25,3.74,0.590968195814096,0.28510306573321087,0.35546917247036436,0.3510223779930822,0.5613383520844589,0.11231001132966814
646,36.366,36.31,3.79,0.593811160861166,0.2853083483140307,0.3603243480262144,0.35457908446716424,0.5637329237172227,0.1127131816087573
647,36.427,36.36,3.8,0.5966486464688405,0.28549274989174317,0.36518358150047436,0.3581541373743087,0.5661363650748281,0.11311702446075125
648,36.488,36.42,3.76,0.5994808487791103,0.2856562668203119,0.37004609367745483,0.36174673480420577,0.5685487144816883,0.11352130632243598
649,36.571,36.47,3.79,0.6023079668390441,0.285798904871076,0.37491111645181224,0.36535606775510443,0.570970009547473,0.11392578820470166
650,36.592,36.53,3.82,0.6051302020656486,0.28592067935677806,0.3797778929578692,0.3689813204312941,0.5734002869647591,0.11433022613968907
651,36.633,36.58,3.79,0.6079477577132347,0.28602161525315595,0.38464567768583235,0.3726216705273276,0.5758395823077174,0.11473437164289142
652,36.695,36.64,3.78,0.610760838344314,0.2861017473180114,0.3895137365854691,0.3762762894992127,0.5782879298323884,0.11513797218950889
653,36.737,36.69,3.81,0.6135696493050499,0.28616112020772627,0.39438134715777234,0.3799443428231771,0.5807453622790792,0.11554077170431999
654,36.797,36.75,3.79,0.6163743962062747,0.286199788591222,0.39924779853513315,0.3836249902428003,0.583211910677382,0.1159425110642778
655,36.86,36.8,3.75,0.6191752844110633,0.28621781726136064,0.4041123915505466,0.3873173860053525,0.5856876041542899,0.11634292861296736
656,36.963,36.86,3.76,0.6219725185298269,0.28621528124373197,0.4089744387963694,0.3910206790881501,0.5881724697458381,0.11674176068596998
657,36.984,36.91,3.75,0.6247663019238636,0.2861922659026868,0.4138332646731452,0.3947340134156724,0.59066653221266,0.11713874214607435
658,37.025,36.97,3.69,0.6275568362182697,0.2861488670443571,0.4186882054290088,0.3984565280680803,0.593169813859777,0.11753360692718054
659,37.085,37.02,3.71,0.6303443208250522,0.2860851910163154,0.42353860919017494,0.4021873574816733,0.5956823343608812,0.11792608858566951
660,37.147,37.08,3.76,0.6331289524772005,0.28600135480346534,0.42838383598301544,0.40592563164172535,0.598204110587272,0.11831592085796407
661,37.209,37.13,3.76,0.6359109247743763,0.28589748611973737,0.43322325774823295,0.40967047626804204,0.6007351564415278,0.11870283822298464
662,37.313,37.19,3.77,0.6386904277407687,0.285773723495172,0.4380562583476274,0.41342101299353395,0.603275482695908,0.11908657646819736
663,37.334,37.24,3.85,0.6414676473955669,0.2856302163579816,0.4428822335639244,0.417176359536079,0.6058250968354287,0.11946687325794603
664,37.376,37.3,3.86,0.6442427653364444,0.28546712511116323,0.44770059109409727,0.42093562986396604,0.6083840029055232,0.11984346870275314
665,37.396,37.35,3.86,0.6470159583364166,0.28528462120318165,0.45251075053657075,0.42469793435522035,0.6109522013641914,0.12021610592826429
666,37.457,37.41,3.91,0.6497873979544299,0.28508288719218233,0.45731214337265746,0.4284623799511383,0.6135296889385365,0.12058453164250414
667,37.54,37.46,3.94,0.652557250160029,0.28486211680313867,0.4621042129425628,0.43222807030438437,0.616116458485597,0.12094849670010571
668,37.58,37.52,3.92,0.6553256749724442,0.28462251497730806,0.46688641441628914,0.4359941059220182,0.6187124988573824,0.12130775666218502
669,37.641,37.57,3.94,0.6580928261144079,0.2843642979134019,0.47165821475976694,0.4397595843038826,0.6213177947700222,0.12166207235056455
670,37.681,37.63,3.98,0.6608588506809625,0.28408769309996346,0.4764190926965282,0.44352360007686153,0.6239323266769257,0.1220112103950932
671,37.742,37.68,3.99,0.6636238888234598,0.2837929393385564,0.48116853866521087,0.4472852451256027,0.6265560706458362,0.12235494377286431
672,37.783,37.74,4.01,0.6663880734488893,0.2834802867574531,0.48590605477315035,0.45104360872034677,0.6291889982396338,0.12269305233818044
673,37.844,37.79,4.08,0.6691515299346169,0.28314999681554054,0.49063115474627306,0.4547977776425172,0.6318310764007138,0.12302532334214203
674,37.907,37.85,4.14,0.6719143758585722,0.28280234229614537,0.4953433638754654,0.45854683630868515,0.6344822673387586,0.12335155194074297
675,37.948,37.9,4.17,0.6746767207449046,0.28243760729042255,0.5000422189595614,0.46228986689346035,0.6371425284217174,0.123671541690358
676,38.052,37.96,4.24,0.6774386658251375,0.2820560871698895,0.5047272682450693,0.46602594945179593,0.6398118120698303,0.12398510502952075
677,38.073,38.01,4.31,0.6802003038148784,0.28165808854763263,0.5093980713627559,0.46975416204114073,0.6424900656525787,0.12429206374591824
678,38.114,38.07,4.31,0.6829617187061877,0.2812439292276862,0.5140541992612205,0.4734735808438268,0.6451772313885034,0.1245922494275798
679,38.176,38.12,4.36,0.6857229855757379,0.28081393814210626,0.5186952341376118,0.47718328029004237,0.6478732462478966,0.12488550389731676
680,38.238,38.18,4.42,0.6884841704089195,0.28036845527533266,0.5233207693656541,0.48088233318174556,0.6505780418584471,0.12517167962956044
681,38.28,38.23,4.4,0.6912453299400524,0.2799078315755156,0.5279304094211597,0.48456981081787665,0.653291544413976,0.12545064014884463
682,38.342,38.29,4.39,0.6940065115088515,0.2794324288525711,0.5325237698051891,0.48824478312124187,0.6560136745864535,0.12572226040927093
683,38.404,38.34,4.44,0.6967677529332635,0.2789426196627944,0.5371004769649964,0.49190631876745283,0.6587443474415247,0.1259864271543685
684,38.465,38.4,4.46,0.6995290823987502,0.27843878717989834,0.5416601682128456,0.49555348531632465,0.6614834723577877,0.12624303925681335
685,38.527,38.45,4.45,0.7022905183640458,0.27792132505234923,0.546202491642725,0.49918534934614206,0.6642309529500703,0.1264920080375127
686,38.59,38.51,4.49,0.7050520694833621,0.27739063724685953,0.5507271060449116,0.5028009765912209,0.6669866869969395,0.12673325756359066
687,38.61,38.56,4.53,0.707813734544985,0.27684713787788817,0.5552336808182629,0.5063994320832091,0.6697505663726778,0.12696672492483102
688,38.671,38.62,4.52,0.7105755024261838,0.27629125102299673,0.559721895880052,0.5099797802965863,0.6725224769839554,0.12719236048815435
689,38.711,38.67,4.52,0.7133373520643522,0.275723410523945,0.5641914415731104,0.5135410852988668,0.6753022987114358,0.12741012812973626
690,38.815,38.73,4.57,0.7160992524443132,0.2751440597734615,0.568642018570025,0.5170824109060547,0.6780899053565541,0.12762000544439708
691,38.835,38.78,4.53,0.718861162601733,0.2745536514876705,0.5730733377741304,0.5206028208439282,0.680885164593707,0.127821983931914
692,38.876,38.84,4.49,0.7216230316426049,0.27395264746418846,0.5774851202170569,0.5241013789157183,0.6836879379280796,0.12801606915991817
693,38.938,38.89,4.53,0.7243847987787715,0.27334151832591136,0.5818770969526047,0.527577149176736,0.6864980806593083,0.12820228090304886
694,38.999,38.95,4.51,0.7271463933794475,0.27272074325051393,0.5862490089467162,0.5310291961164872,0.6893154418511376,0.12838065325804573
695,39.041,39.0,4.47,0.7299077350386741,0.27209080968567423,0.5906006069633273,0.5344565848488149,0.6921398643071652,0.12855123473447824
696,39.143,39.06,4.49,0.7326687336585731,0.2714522130500562,0.5949316514458826,0.5378583813106032,0.6949711845527028,0.12871408832082748
697,39.164,39.11,4.53,0.7354292895481779,0.2708054564201106,0.5992419123943024,0.541233652469522,0.6978092328226954,0.12886929152564702
698,39.205,39.17,4.55,0.738189293537521,0.2701510502027936,0.6035311692372255,0.5445814665411467,0.7006538330555715,0.12901693639354656
699,39.265,39.22,4.58,0.7409486271065611,0.26948951179434183,0.6077992106993807,0.5479008932155879,0.7035048028928207,0.1291571294957738
700,39.328,39.28,4.67,0.7437071625284547,0.26882136522528793,0.6120458346639797,0.5511910038936239,0.7063619536840544,0.1292899918952094
701,39.391,39.33,4.71,0.7464647630266406,0.2681471407919384,0.6162708480300622,0.5544508719322442,0.7092250904972828,0.1294156590856206
702,39.43,39.39,4.74,0.7492212829451752,0.2674673746745585,0.6204740665647553,0.557679572899471,0.7120940121341456,0.1295342809050405
703,39.535,39.44,4.79,0.7519765679317575,0.26678260854252595,0.6246553147504513,0.5608761848382939,0.7149685111498698,0.12964602142314596
704,39.556,39.5,4.83,0.7547304551328888,0.2660933891467211,0.6288144256269383,0.564039788539498,0.7178483738777641,0.12975105880251336
705,39.596,39.55,4.82,0.7574827734006131,0.26540026789943044,0.6329512406285844,0.5671694678231157,0.720733380458117,0.1298495851336543
706,39.659,39.61,4.84,0.760233343510282,0.2647038004420639,0.6370656094167084,0.5702643098282292,0.7236233048713967,0.1299418062437864
707,39.72,39.66,4.86,0.7629819783887745,0.26400454620102265,0.6411573897072683,0.5733234053109411,0.7265179149756797,0.13002794147936086
708,39.761,39.72,4.84,0.765728483352577,0.2633030679320669,0.6452264470939434,0.5763458489504872,0.7294169725482411,0.1301082234624418
709,39.885,39.77,4.85,0.7684726563551091,0.2625999312534999,0.6492726548666056,0.5793307396636433,0.732320233331227,0.13018289782109843
710,39.906,39.83,4.93,0.7712142882426446,0.261895704168436,0.6532958938250907,0.5822771809277397,0.7352274470813052,0.13025222289401983
711,39.926,39.88,4.93,0.7739531630181289,0.2611909565764108,0.6572960520881262,0.5851842811127191,0.7381383576231542,0.13031646940958586
712,39.988,39.94,4.93,0.7766890581121215,0.2604862597746605,0.6612730248972379,0.588051153822766,0.7410527029066175,0.13037592013963525
713,40.049,39.99,4.99,0.7794217446600264,0.25978218594951713,0.6652267144154473,0.590876918248091,0.7439702150673297,0.1304308695281609
714,40.109,40.05,5.02,0.7821509877847227,0.2590793076584591,0.6691570295205835,0.5936606995274776,0.7468906204906126,0.1304816232951416
715,40.171,40.1,5.0,0.784876546883692,0.2583781973033874,0.6730638855930524,0.5964016291221705,0.7498136398784332,0.13052849801571229
716,40.255,40.16,5.03,0.7875981759197409,0.2576794265957107,0.6769472042979366,0.5990988452016535,0.7527389883192145,0.13057182067488746
717,40.276,40.21,5.1,0.7903156237144167,0.2569835660138405,0.6808069133613255,0.6017514930418331,0.7556663753602845,0.1306119281980937
718,40.317,40.27,5.09,0.793028634243212,0.2562911842537597,0.6846429463408091,0.6043587254361036,0.7585955050827433,0.13064916695782952
719,40.359,40.32,4.88,0.7957369469316316,0.2556028476734169,0.6884552423900885,0.6069197031197312,0.7615260761785129,0.1306838922568537
720,40.42,40.38,4.97,0.7984402969511557,0.25491911973180426,0.6922437460176764,0.6094335952079571,0.7644577820293154,0.13071646778840226
721,40.481,40.43,5.01,0.8011384155141017,0.2542405604236453,0.6960084068397066,0.6118995796481297,0.7673903107872652,0.1307472650740955
722,40.542,40.49,5.05,0.8038310301663542,0.2535677257106489,0.6997491793269601,0.614316843685992,0.7703233454566495,0.1307766628804601
723,40.604,40.54,5.13,0.806517865076918,0.2529011669502719,0.7034660225463348,0.6166845843460261,0.7732565639763501,0.13080504661529674
724,40.645,40.6,5.19,0.8091986413232652,0.25224143032290036,0.7071588998970771,0.6190020089255324,0.7761896393022758,0.1308328077053582
725,40.705,40.65,5.22,0.8118730771714819,0.2515890562583213,0.7108277788421634,0.6212683355019358,0.7791222394891579,0.13086034295692126
726,40.747,40.71,5.27,0.8145408883502853,0.25094457886234744,0.7144726306352516,0.6234827934526982,0.7820540277711012,0.13088805390088748
727,40.808,40.76,5.34,0.817201788318048,0.2503085253444716,0.7180934300436459,0.6256446239871468,0.7849846626403212,0.13091634612408454
728,40.869,40.82,5.36,0.8198554885220452,0.24968141544746145,0.7216901550677467,0.6277530806894854,0.7879137979235572,0.13094562858847755
729,40.93,40.87,5.45,0.8225016986492026,0.2490637608798336,0.7252627866574584,0.6298074300722054,0.7908410828556964,0.13097631294003656
730,40.973,40.93,5.52,0.825140126867693,0.24845606475217563,0.728811308426036,0.6318069521390541,0.7937661621501952,0.1310088128090244
731,41.036,40.98,5.55,0.8277704800587564,0.2478588210182845,0.732335706361833,0.6337509409566323,0.7966886760659377,0.13104354310344277
732,41.098,41.04,5.57,0.8303924640381692,0.2472725139220734,0.735835968538407,0.6356387052335397,0.7996082604702444,0.13108091929729657
733,41.14,41.09,5.63,0.833005783766796,0.24669761745116814,0.7393120848234365,0.6374695689057881,0.8025245468978166,0.13112135671522382
734,41.221,41.15,5.68,0.8356101435496885,0.24613459479807526,0.7427640465868937,0.6392428717269777,0.8054371626054823,0.13116526981494117
735,41.242,41.2,5.71,0.8382052472232112,0.24558389782977524,0.7461918464089178,0.6409579698615804,0.8083457306226577,0.13121307146890407
736,41.367,41.26,5.78,0.8407907983296966,0.2450459665665888,0.7495954777877754,0.6426142364796776,0.8112498697974925,0.13126517224657416
737,41.387,41.31,5.86,0.843366500279184,0.24452122867118437,0.7529749348482174,0.6442110623516732,0.8141491948387223,0.13132197969870069
738,41.428,41.37,5.89,0.8459320564978632,0.24401009894862466,0.7563302120504527,0.6457478564416922,0.8170433163533193,0.13138389764504413
739,41.51,41.42,5.92,0.8484871705629261,0.24351297885837345,0.7596613038999004,0.6472240464984658,0.8199318408801133,0.13145132546699315
740,41.53,41.48,5.91,0.851031546323626,0.24303025603919737,0.7629682046578709,0.6486390796424606,0.8228143709196437,0.1315246574065388
741,41.573,41.53,5.97,0.8535648880084414,0.24256230384787658,0.7662509080533306,0.6499924229478556,0.8256905049605914,0.13160428187308232
742,41.633,41.59,5.97,0.8560869003183383,0.24210948091259452,0.7695094069959332,0.6512835640177661,0.8285598375032043,0.13169058075957907
743,41.714,41.64,6.01,0.8585972885062189,0.24167213070182914,0.7727436932905163,0.6525120115509312,0.8314219590801755,0.1317839287695598
744,41.735,41.7,6.01,0.8610957584427195,0.2412505811095332,0.7759537573532866,0.6536772958979543,0.8342764562754593,0.13188469275660972
745,41.795,41.75,5.97,0.8635820166685831,0.24084514405738042,0.7791395879299216,0.6547789696051011,0.8371229117415401,0.13199323107791466
746,41.857,41.81,5.95,0.8660557704338545,0.24045611511487464,0.7823011718158193,0.6558166079436288,0.839960904215686,0.13210989296350376
747,41.919,41.86,5.98,0.8685167277241413,0.24008377313816157,0.7854384935787436,0.6567898094226088,0.8427900085357276,0.13223501790281228
748,41.959,41.92,5.98,0.870964597274169,0.23972837992840187,0.7885515352841268,0.6576981962832352,0.8456097956558688,0.13236893505015687
749,42.021,41.97,5.96,0.8733990885688574,0.2393901799105342,0.7916402762233344,0.6585414149726927,0.8484198326629995,0.13251196265065462
750,42.103,42.03,6.0,0.8758199118321615,0.2390693998331741,0.7947046926452318,0.6593191365957785,0.851219682793919,0.1326644074880291
751,42.124,42.08,6.02,0.8782267780039612,0.23876624849028347,0.7977447574914382,0.6600310573426436,0.8540089054538457,0.13282656435563245
752,42.184,42.14,6.0,0.8806193987053293,0.23848091646514757,0.8007604401356812,0.660676898891227,0.8567870562365524,0.13299871555189233
753,42.248,42.19,6.03,0.8829974861925475,0.23821357589715086,0.8037517061277004,0.6612564087831942,0.8595536869464452,0.13318113040127047
754,42.29,42.25,6.05,0.8853607533002664,0.23796438027184433,0.8067185169421999,0.6617693607724187,0.8623083456228826,0.13337406480169156
755,42.353,42.3,6.01,0.8877089133742337,0.23773346423482367,0.8096608297334275,0.6622155551452065,0.865050576567014,0.1335777607992694
756,42.436,42.36,6.0,0.8900416801940341,0.23752094342996796,0.8125785970960555,0.6625948190116079,0.8677799203713873,0.13379244619101902
757,42.456,42.41,6.04,0.8923587678862962,0.23732691436262135,0.8154717668331123,0.6629070065673166,0.8704959139525464,0.13401833415609973
758,42.518,42.47,6.01,0.8946598908288258,0.23715145428830336,0.8183402817317872,0.6631519993258286,0.8731980905867874,0.13425562291598003
759,42.579,42.52,5.99,0.8969447635461167,0.23699462112750716,0.8211840793479823,0.6633297063206932,0.875885979949188,0.13450449542375723
760,42.661,42.58,6.04,0.8992131005966819,0.2368564534070772,0.8240030918005298,0.6634400642778487,0.87855910815596,0.1347651190826995
761,42.682,42.63,6.07,0.9014646164526523,0.2367369702285525,0.8267972455760388,0.6634830377581968,0.881216997810109,0.1350376454939143
762,42.724,42.69,6.08,0.9036990253721288,0.23663617126375058,0.8295664613453901,0.6634586192707915,0.8838591680503267,0.13532221023290059
763,42.827,42.74,6.14,0.905916041264815,0.2365540367778021,0.8323106537929377,0.6633668293573299,0.8864851346029843,0.1356189326546202
764,42.847,42.8,6.18,0.9081153775515295,0.23649052767981665,0.8350297314594743,0.6632077166489825,0.8890944098370752,0.13592791572662313
765,42.908,42.85,6.22,0.9102967470182787,0.2364455856013419,0.8377235965999584,0.6629813578969281,0.8916865028219535,0.1362492458896862
766,42.949,42.91,6.23,0.9124598616656694,0.23641913300274722,0.8403921450568845,0.6626878579781947,0.8942609193877183,0.1365829929453734
767,43.011,42.96,6.33,0.9146044325545436,0.23641107330761435,0.8430352661500443,0.6623273498785304,0.8968171621881263,0.1369292099698823
768,43.073,43.02,6.35,0.9167301696488115,0.23642129106515614,0.8456528425832976,0.6618999946540102,0.8993547307659301,0.13728793325349345
769,43.115,43.07,6.36,0.9188367816565445,0.23644965214059535,0.8482447503688821,0.661405981372964,0.9018731216205838,0.13765918226488455
770,43.177,43.13,6.47,0.9209239758704487,0.2364960039333361,0.8508108587697044,0.6608455270396294,0.9043718282782816,0.1380429596395166
771,43.238,43.18,6.62,0.9229914580088895,0.2365601756226398,0.85335103025998,0.6602188765007376,0.9068503413643525,0.13843925119126113
772,43.3,43.24,6.75,0.9250389320586729,0.2366419784403939,0.855865120504518,0.6595263023359978,0.9093081486780911,0.13884802594643833
773,43.362,43.29,6.9,0.9270661001208451,0.23674120597044662,0.8583529783568604,0.6587681047331416,0.9117447352702049,0.13926923619949316
774,43.404,43.35,7.04,0.9290726622608255,0.2368576344738813,0.860814445876417,0.657944611347823,0.9141595835232206,0.13970281758966477
775,43.467,43.4,7.05,0.931058316364312,0.23699102323951152,0.8632493583646715,0.6570561771482428,0.9165521732354238,0.14014868919821635
776,43.55,43.46,7.01,0.9330227580005345,0.23714111495880488,0.8656575444204819,0.6561031842439977,0.9189219817091765,0.14060675366606237
777,43.571,43.51,7.01,0.9349656802945965,0.23730763612438802,0.8680388260144682,0.6550860416984114,0.9212684838447156,0.1410768973318885
778,43.611,43.57,6.96,0.9368867738107836,0.23749029745124328,0.8703930185824551,0.6540051853235347,0.9235911522407367,0.14155899039103634
779,43.675,43.62,6.86,0.9387857264487983,0.2376887943196852,0.8727199311379445,0.6528610774570793,0.9258894573031711,0.14205288707549882
780,43.715,43.68,6.83,0.940662223354896,0.237902807239204,0.8750193664036215,0.6516542067207278,0.9281628673635755,0.14255842585535733
781,43.777,43.73,6.8,0.9425159468498553,0.23813200233228782,0.8772911209619478,0.6503850877594362,0.9304108488085111,0.14307542966192788
782,43.859,43.79,6.74,0.9443465763756451,0.2383760318373571,0.8795349854249636,0.6490542609614717,0.9326328662211816,0.1436037061328182
783,43.921,43.84,6.71,0.9461537884625415,0.2386345346299696,0.8817507446234514,0.6476622921590065,0.934828382536475,0.14414304787903273
784,43.941,43.9,6.75,0.9479372567183136,0.23890713676147102,0.8839381778156282,0.6462097723091191,0.9369968592104271,0.14469323277419346
785,44.003,43.95,6.73,0.9496966518409435,0.23919345201426515,0.8860970589155249,0.6446973171549961,0.9391377564050025,0.14525402426585585
786,44.065,44.01,6.71,0.9514316416561887,0.23949308247285078,0.8882271567412119,0.6431255668669403,0.94125053318899,0.14582517170880224
787,44.148,44.06,6.74,0.9531418911811266,0.23980561910972434,0.8903282352830332,0.6414951856625619,0.9433346477557261,0.1464064107200976
788,44.17,44.12,6.74,0.9548270627147044,0.24013064238516557,0.8924000539919952,0.63980686140535,0.9453895576583082,0.14699746355560883
789,44.213,44.17,6.7,0.9564868159562168,0.24046772285979898,0.894442368088398,0.6380613051808457,0.9474147200628996,0.1475980395076431
790,44.295,44.23,6.69,0.9581208081525755,0.24081642181869295,0.8964549288907064,0.6362592508499036,0.9494095920206849,0.1482078353233495
791,44.336,44.28,6.7,0.9597286942751709,0.24117629190567516,0.8984374841645401,0.6344014545789566,0.9513736307589867,0.148826535643542
792,44.397,44.34,6.64,0.9613101272270492,0.24154687776653097,0.9003897784915875,0.6324886943475462,0.9533062939919902,0.14945381346161754
793,44.439,44.39,6.61,0.9628647580810243,0.24192771669980495,0.9023115536582036,0.6305217694336102,0.9552070402514502,0.15008933060224586
794,44.503,44.45,6.61,0.9643922363492234,0.24231833931399677,0.9042025490634215,0.6285014998771598,0.9570753292376614,0.15073273821947064
795,44.543,44.5,6.58,0.9658922102844314,0.2427182701899954,0.9060625021460925,0.6264287259231127,0.9589106221908676,0.15138367731378458
796,44.686,44.56,6.52,0.9673643272134457,0.24312702854762377,0.9078911488308379,0.6243043074441811,0.9607123822831681,0.15204177926763035
797,44.706,44.61,6.54,0.9688082339024909,0.24354412891515848,0.9096882239924513,0.6221291233448327,0.9624800750308493,0.1527066663986396
798,44.726,44.67,6.54,0.9702235769545637,0.24396908180066332,0.9114534619383522,0.6199040709474248,0.9642131687269385,0.15337795252975805
799,44.767,44.72,6.53,0.9716100032383925,0.244401394363934,0.9131865969086542,0.6176300653616352,0.9659111348936466,0.15405524357525216
800,44.828,44.78,6.55,0.9729671603485296,0.24484057108783833,0.9148873635933802,0.6153080388383584,0.9675734487542368,0.15473813814146914
801,44.889,44.83,6.59,0.9742946970959273,0.24528611444785975,0.9165554976663268,0.6129389401093084,0.9691995897237573,0.15542622814113516
802,44.931,44.89,6.58,0.9755922640282171,0.2457375255787195,0.9181907363350672,0.6105237337136754,0.9707890419179733,0.15611909941991672
803,45.013,44.94,6.59,0.9768595139787751,0.24619430493703895,0.9197928189065578,0.6080633993133302,0.9723412946797689,0.1568163323939256
804,45.034,45.0,6.64,0.9780961026435383,0.24665595295908874,0.9213614873677823,0.6055589309982103,0.9738558431222241,0.15751750269681516
805,45.114,45.05,6.64,0.9793016891844182,0.24712197071272154,0.9228964869808218,0.6030113365836512,0.9753321886875129,0.1582221818350891
806,45.176,45.11,6.63,0.9804759368580508,0.24759186054259644,0.9243975668916992,0.6004216369014608,0.9767698397207193,0.15892993785023274
807,45.217,45.16,6.69,0.9816185136685129,0.2480651267077917,0.9258644807522821,0.5977908650865397,0.9781683120576085,0.1596403359862805
808,45.298,45.22,6.7,0.9827290930425338,0.24854127601087697,0.9272969873544558,0.5951200658608068,0.9795271296253447,0.16035293936143533
809,45.319,45.27,6.66,0.9838073545256383,0.24901981841748913,0.9286948512756997,0.5924102948161377,0.9808458250550938,0.1610673096423587
810,45.38,45.33,6.68,0.9848529844975611,0.24950026766545044,0.9300578435351411,0.5896626176979683,0.9821239403053944,0.1617830077197503
811,45.462,45.38,6.75,0.985865676905167,0.24998214186249362,0.9313857422590917,0.5868781096911586,0.9833610272951324,0.16249959438383485
812,45.482,45.44,6.8,0.9868451340110067,0.25046496407170593,0.9326783333550476,0.5840578547096263,0.9845566485448887,0.16321663099838427
813,45.545,45.49,6.8,0.9877910671555392,0.25094826288387007,0.9339354111930869,0.5812029446911626,0.9857103778253677,0.16393368017191848
814,45.586,45.55,6.86,0.9887031975309738,0.2514315729759496,0.9351567792935728,0.578314478898754,0.9868218008115822,0.16465030642473974
815,45.647,45.6,6.89,0.9895812569646296,0.25191443565501315,0.9363422510200351,0.5753935632296704,0.9878905157414493,0.16536607685045696
816,45.73,45.66,6.89,0.9904249887096923,0.252396399386913,0.9374916502760585,0.5724413095335419,0.9889161340774584,0.16608056177067426
817,45.75,45.71,6.93,0.9912341482412288,0.2528770203090351,0.938604812204971,0.5694588349406451,0.9898982811700698,0.16679333538155422
818,45.815,45.77,6.98,0.9920085040553377,0.2533558627264256,0.9396815838910947,0.566447261201608,0.9908365969214981,0.1675039763910208
819,45.877,45.82,6.96,0.9927478384693252,0.25383249959058296,0.9407218250613214,0.5634077140396826,0.9917307364485282,0.16821206864543065
820,45.918,45.88,6.96,0.9934519484208162,0.25430651296020607,0.9417254087857804,0.5603413225166325,0.9925803707430022,0.16891720174460373
821,45.978,45.93,7.0,0.9941206462637161,0.2547774944432152,0.9426922221763544,0.5572492184131868,0.9933851873285987,0.16961897164415657
822,46.04,45.99,7.0,0.9947537605589323,0.2552450456193975,0.9436221670817762,0.5541325356248812,0.994144890912516,0.1703169812441236
823,46.124,46.04,7.0,0.9953511368577508,0.255708778443058,0.9445151607779851,0.5509924095739612,0.9948592040306284,0.1710108409628955
824,46.144,46.1,7.07,0.9959126384757399,0.2561683156250779,0.9453711366523511,0.5478299766378715,0.9955278676846493,0.17170016929553777
825,46.206,46.15,7.1,0.9964381472550274,0.2566232909937975,0.9461900448802957,0.5446463735946997,0.9961506419697986,0.17238459335557296
826,46.248,46.21,7.12,0.9969275643127902,0.25707334983415736,0.9469718530927727,0.5414427370858249,0.9967273066914465,0.17306374939932834
827,46.309,46.26,7.18,0.9973808107738024,0.2575181492045672,0.9477165470330139,0.5382202030959338,0.9972576619691971,0.17373728333197996
828,46.373,46.32,7.24,0.9977978284849306,0.2579573582310273,0.9484241312009214,0.5349799064505029,0.9977415288268843,0.17440485119446789
829,46.434,46.37,7.25,0.9981785807095302,0.25839065837808733,0.9490946294834919,0.5317229803307625,0.9981787497669705,0.1750661196305089
830,46.495,46.43,7.26,0.9985230527997752,0.25881774369629656,0.9497280857696777,0.528450555806076,0.9985691893278871,0.17572076633298844
831,46.578,46.48,7.33,0.9988312528450394,0.25923832104586614,0.9503245645481111,0.5251637613836087,0.9989127346228854,0.17636848046905781
832,46.599,46.54,7.33,0.9991032122945318,0.2596521102963228,0.9508841514861365,0.521863722575084,0.9992092958590202,0.1770089630832998
833,46.64,46.59,7.31,0.9993389865524489,0.2600588445019755,0.9514069539886135,0.5185515614803227,0.999458806834913,0.17764192747836538
834,46.701,46.65,7.38,0.9995386555439624,0.26045827005303546,0.9518931017349684,0.5152283963871531,0.9996612254159707,0.17826709957251838
835,46.783,46.7,7.4,0.9997023242503867,0.2608501468022436,0.952342747192983,0.5118953413871481,0.9998165339857534,0.17888421823354841
836,46.804,46.76,7.4,0.9998301232118919,0.2612342481668758,0.9527560661078186,0.5085535060065283,0.9999247398722024,0.17949303558854043
837,46.867,46.81,7.44,0.9999222089961041,0.2616103612060441,0.9531332579647513,0.5052039948515131,0.9999858757474568,0.1800933173090212
838,46.908,46.87,7.5,0.9999787646309372,0.2619782866732853,0.9534745464240728,0.5018479072674192,1.0,0.1806848428710473
839,46.971,46.92,7.5,1.0,0.26233783904450314,0.9537801797265908,0.49848633701087103,0.9999671970779199,0.18126740578985281
840,47.034,46.98,7.54,0.9999861521989811,0.2626888465213984,0.954050431068157,0.4951203719345468,0.999887577802091,0.18184081382874212
841,47.074,47.03,7.62,0.9999374858514862,0.26303115101059016,0.9542855989416721,0.49175109368392655,0.999761279648136,0.18240488918198938
842,47.135,47.09,7.63,0.9998542933829105,0.26336460807867834,0.9544860074450561,0.4883795774054766,0.9995884669960876,0.18295946863157472
843,47.237,47.14,7.63,0.9997368952510475,0.26368908688355314,0.9546520065537374,0.48500689146565007,0.9993693313467354,0.18350440367765142
844,47.258,47.2,7.69,0.9995856401322477,0.26400447008229355,0.9547839723562812,0.4816340971800218,0.9991040915037195,0.1840395606426907
845,47.299,47.25,7.72,0.9994009050620707,0.26431065371603624,0.954882307251865,0.47826224855180494,0.9987929937205163,0.18456482074930705
846,47.36,47.31,7.68,0.9991830955294828,0.26460754707221623,0.9549474401084058,0.47489239201891675,0.9984363118115269,0.18508008017183447
847,47.422,47.36,7.68,0.9989326455237684,0.26489507252461686,0.9549798263802424,0.4715255662087018,0.9980343472265534,0.18558525006180335
848,47.484,47.42,7.72,0.9986500175334084,0.2651731653517109,0.9549799481843566,0.4681628016994057,0.9975874290879991,0.18608025654754168
849,47.525,47.47,7.72,0.9983357024962459,0.2654417735338328,0.9549483143341942,0.464805120787529,0.9970959141901764,0.1865650407082038
850,47.586,47.53,7.75,0.997990219700304,0.2657008575297747,0.9548854603301943,0.4614535372602502,0.9965601869601278,0.18703955852259688
851,47.648,47.58,7.83,0.997614116634662,0.2659503900334478,0.9547919483061826,0.458109056172201,0.9959806593793976,0.18750378079322236
852,47.711,47.64,7.87,0.9972079687898482,0.26619035571127536,0.9546683669308398,0.4547726736259338,0.9953577708662339,0.18795769304596216
853,47.752,47.69,7.88,0.9967723794072944,0.2664207509209836,0.9545153312635138,0.451445376555447,0.9946919881177743,0.1884012954058393
854,47.792,47.75,7.93,0.9963079791775065,0.26664158341246164,0.9543334825637373,0.4481281425121394,0.9939838049118741,0.18883460244927636
855,47.854,47.8,7.96,0.995815425886737,0.2668528720113697,0.954123488053896,0.44482193945258447,0.9932337418683395,0.1892576430332708
856,47.894,47.86,7.96,0.9952954040120953,0.2670546462862017,0.9538860406346247,0.44152772552755404,0.992442346169458,0.18967046010191463
857,47.974,47.91,7.96,0.9947486242651743,0.2672469461995636,0.9536218585526228,0.4382464488718085,0.9916101912398322,0.190073110470711
858,48.016,47.97,7.99,0.9941758230844058,0.2674298217445076,0.9533316850207237,0.4349790473942822,0.9907378763856228,0.1904656645891783
859,48.096,48.02,7.97,0.9935777620764791,0.26760333256683994,0.9530162877901689,0.4317264485683924,0.9898260263934188,0.19084820628226862
860,48.137,48.08,7.95,0.992955227407255,0.2677675475743935,0.9526764586751579,0.428489569222289,0.9888752910890144,0.19122083247116287
861,48.179,48.13,8.0,0.9923090291426845,0.26792254453430875,0.9523130130298436,0.4252693153289356,0.9878863448564611,0.19158365287402537
