,Time_Host,Time_Arduino,easingdata,CH1_Oxy,CH1_Deoxy,CH2_Oxy,CH2_Deoxy,CH3_Oxy,CH3_Deoxy
0,0.105,0.04,0.0,0.4016039836926268,0.23118880602301017,0.49079056767516216,0.09009448308469932,0.8947272762506644,0.0
1,0.166,0.1,0.0,0.4067818610247002,0.22931407510032467,0.489191057658235,0.08793266724639373,0.8917889618286171,0.005781167775895856
2,0.249,0.16,0.0,0.41197585075452564,0.22744578302825386,0.4875773166423014,0.08577630492688246,0.8888611547179179,0.011607147433696887
3,0.27,0.21,0.0,0.41718413940871174,0.22558474307335158,0.485949935470094,0.08362638462297807,0.8859451026960532,0.01747649764293085
4,0.332,0.27,0.0,0.4224049004357482,0.22373176502489614,0.4843095170287065,0.08148389595219606,0.8830420437347162,0.02338775693700681
5,0.434,0.32,0.0,0.42763629539142595,0.22188765453469206,0.48265667566630094,0.07934982897797982,0.8801532046856568,0.029339444880129465
6,0.455,0.37,0.0,0.43287647511558136,0.22005321246433418,0.48099203658172573,0.07722517353977634,0.8772797999648108,0.035330063253046384
7,0.497,0.43,0.0,0.43812358089838044,0.21822923424075225,0.47931623518730354,0.07511091858863277,0.8744230302357373,0.04135809725658403
8,0.558,0.49,0.0,0.4433757456343991,0.21641650922085573,0.4776299164451146,0.07300805152896707,0.8715840810934181,0.047422016731881754
9,0.619,0.54,0.0,0.4486310949627839,0.2146158200661058,0.4759337341771716,0.07091755756715334,0.8687641217495041,0.053520277396180045
10,0.663,0.6,0.15,0.4538877483918045,0.21282794212785403,0.4742283503499494,0.06884041906755264,0.8659643037201343,0.05965132209295867
11,0.766,0.65,0.09,0.459143820406096,0.2110536428443342,0.47251443433380097,0.06677761491663513,0.8631857595175157,0.06581358205513468
12,0.807,0.7,0.05,0.4643974215548356,0.2092936811503202,0.47079266213784854,0.06473011989589542,0.8604296013465809,0.07200547817989124
13,0.827,0.76,0.12,0.46964665951903956,0.207548806900652,0.46906371562102545,0.0626989040643437,0.8576969198082373,0.07822542231350955
14,0.869,0.81,0.11,0.47488964015623825,0.20581976030898597,0.4673282816800781,0.06068493215139038,0.8549887826109354,0.08447181854437943
15,0.952,0.87,0.08,0.48012446852101826,0.20410727140316412,0.46558705141549767,0.05868916296090826,0.8523062332924348,0.09074306450224569
16,0.993,0.93,0.07,0.485349249860239,0.20241205949855165,0.4638407192764997,0.05671254878719714,0.8496502899537609,0.09703755266170683
17,1.074,0.98,0.13,0.49056209058206773,0.2007348326906274,0.4620899821862972,0.054756034843519125,0.8470219440074517,0.1033536716479756
18,1.094,1.03,0.05,0.49576109919831635,0.19907628736803978,0.4603355386490401,0.0528205587038004,0.84442215894229,0.10968980754290265
19,1.156,1.09,-0.03,0.5009443872398711,0.197437107747274,0.45857808783992615,0.050907049758013294,0.841851869106793,0.11604434518924957
20,1.217,1.14,0.12,0.5061100701452743,0.1958179654300131,0.45681832868010924,0.04901642868167863,0.8393119785137788,0.1224156694911753
21,1.278,1.2,0.01,0.5112562681227504,0.19421951898420287,0.4550569588981531,0.047149606919870905,0.8368033596683606,0.1288021667088872
22,1.319,1.25,-0.06,0.5163811069861336,0.19264241354976652,0.4532946740798852,0.04530748618608445,0.8343268524217013,0.1352022257454153
23,1.381,1.31,0.01,0.5214827189651974,0.19108728046989176,0.45153216670858026,0.043490957976333976,0.8318832628528702,0.14161423942347273
24,1.443,1.36,-0.03,0.5265592434908494,0.18955473694878958,0.4497701251974844,0.04170090309886453,0.8294733621811394,0.14803660575034985
25,1.484,1.42,-0.05,0.5316088279555914,0.18804538573675816,0.4480092329167682,0.03993819121979806,0.8270978857110326,0.1544677291687864
26,1.546,1.47,-0.05,0.536629628449551,0.18655981484329226,0.44625016721705235,0.03820368042498267,0.8247575318123986,0.16090602179178035
27,1.608,1.53,0.01,0.5416198104723343,0.1850985972788829,0.4444935984516824,0.03649821679826127,0.8224529609377675,0.16734990461931354
28,1.67,1.58,-0.07,0.546577549621012,0.18366229082604282,0.4427401889999811,0.03482263401632055,0.820184794679269,0.1737978087349872
29,1.711,1.64,-0.13,0.5515010322547123,0.1822514378399782,0.440990592293767,0.033177752960216925,0.8179536148674365,0.18024817648058533
30,1.772,1.7,-0.01,0.5563884561365068,0.18086656507922053,0.4392454518494875,0.0315643813436154,0.8157599627142776,0.18669946260660591
31,1.833,1.75,-0.13,0.5612380310534926,0.17950818356643516,0.43750540030835383,0.029983313357726343,0.8136043380030189,0.19315013539683903
32,1.895,1.8,-0.22,0.5660479794161573,0.17817678847953336,0.43577105848687797,0.028435329332900598,0.8114871983269287,0.19959867776513088
33,1.916,1.86,-0.15,0.5708165368382534,0.17687285907313915,0.4340430344401897,0.026921195416849328,0.8094089583795958,0.2060435883225432
34,1.978,1.91,-0.2,0.575541952698577,0.17559685863033822,0.43232192254049345,0.025441663269436674,0.8073699892989793,0.21248338241319337
35,2.042,1.97,-0.27,0.5802224906862364,0.17434923444444123,0.43060830257301935,0.023997469773916317,0.8053706180674379,0.21891659311715808
36,2.083,2.02,-0.31,0.5848564293311205,0.17313041783028557,0.428902738851796,0.022589336764369073,0.8034111269698113,0.225341772218937
37,2.146,2.08,-0.29,0.5894420625213096,0.17194082416441728,0.4272057793575396,0.021217970768969082,0.8014917531114936,0.23175749114007657
38,2.208,2.13,-0.36,0.5939777000091473,0.1707808529533223,0.4255179548999114,0.019884062768563325,0.7996126879983028,0.23816234183466983
39,2.291,2.19,-0.42,0.5984616679076287,0.16965088792870828,0.42383977830634173,0.018588287969919588,0.7977740771797764,0.24455493764659267
40,2.312,2.25,-0.3,0.6028923091786833,0.16855129716866876,0.4221717436395365,0.017331305592898808,0.7959760199573497,0.25093391412749205
41,2.375,2.3,-0.41,0.6072679841149009,0.16748243324338577,0.42051432544570283,0.016113758670730442,0.7942185691587154,0.257297929814687
42,2.416,2.35,-0.5,0.6115870708162763,0.16644463338387036,0.4188679780354333,0.014936273862529645,0.7925017309795296,0.26364566696828456
43,2.477,2.41,-0.42,0.6158479656636132,0.16543821967211902,0.41723313479908736,0.013799461277207659,0.7908254648935176,0.26997583226694233
44,2.54,2.46,-0.47,0.6200490837903345,0.1644634992509706,0.4156102075584084,0.012703914307959458,0.7891896836319132,0.2762871574618371
45,2.664,2.52,-0.54,0.62418885955452,0.1635207645518817,0.41399958595602515,0.01165020947653798,0.7875942532330126,0.2825783999885336
46,2.684,2.58,-0.55,0.6282657470129748,0.16261029353883033,0.4124016368843853,0.01063890628655537,0.786038993162437,0.2888483435365777
47,2.705,2.63,-0.54,0.6322782203990441,0.16173234996659375,0.41081670395557285,0.00967054708507916,0.7845236765045481,0.2950957985767325
48,2.746,2.68,-0.61,0.6362247746058347,0.1608871836516673,0.40924510701339095,0.008745656931789296,0.7830480302252742,0.30131960284586906
49,2.827,2.74,-0.67,0.6401039256764379,0.16007503075410015,0.40768714168902404,0.007864743474945219,0.7816117355064285,0.3075186217896291
50,2.868,2.79,-0.59,0.6439142113026352,0.15929611406854455,0.40614307900150526,0.007028296833402673,0.7802144281513861,0.31369174896309304
51,2.91,2.85,-0.7,0.6476541913333901,0.15855064332283822,0.40461316500412325,0.006236789483912556,0.7788556990617926,0.31983790638977794
52,3.012,2.9,-0.78,0.6513224482942087,0.15783881548245754,0.4030976204777886,0.005490676152935728,0.7775350947847471,0.32595604487937563
53,3.032,2.96,-0.64,0.6549175879182132,0.15716081505918586,0.401596640672248,0.004790393712230471,0.7762521181296902,0.3320451443047277
54,3.073,3.02,-0.69,0.6584382396895914,0.15651681442233378,0.4001103950958939,0.004136361077502163,0.7750062288539994,0.3381042138386322
55,3.133,3.07,-0.74,0.6618830573999518,0.1559069741108528,0.39863902735475765,0.003528979109458744,0.7737968444160793,0.3441322921512086
56,3.194,3.12,-0.7,0.6652507197179709,0.1553314431447587,0.397182655041093,0.0029686305167164616,0.7726233407945619,0.350128447568674
57,3.257,3.18,-0.7,0.6685399307726313,0.15479035933437943,0.39574136967176976,0.002455679760118437,0.7714850533721304,0.3560917781944707
58,3.317,3.23,-0.75,0.6717494207503579,0.15428384958599686,0.3943152366765428,0.001990472958118423,0.7703812778823836,0.36202141199374704
59,3.378,3.29,-0.77,0.6748779465063945,0.15381203020248052,0.3929042954361203,0.0015733377929591419,0.76931127141805,0.36791650684225724
60,3.418,3.35,-0.68,0.6779242921907551,0.15337500717758326,0.3915085593698027,0.0012045834174676286,0.7682742534987369,0.37377625054079705
61,3.481,3.4,-0.76,0.6808872698890132,0.15297287648266433,0.39012801607232117,0.0008845003623836116,0.7672694071962799,0.3795998607963382
62,3.543,3.45,-0.84,0.6837657202780895,0.15260572434471173,0.38876262749937024,0.0006133604442123049,0.766295880315628,0.38538658517105906
63,3.563,3.51,-0.69,0.6865585132970639,0.15227362751463464,0.38741233020123744,0.00039141667363589734,0.7653527866290829,0.391135701000499
64,3.625,3.56,-0.76,0.6892645488328872,0.1519766535248857,0.3860770356038686,0.000218903164521063,0.7644392071615912,0.3968465152820848
65,3.728,3.62,-0.82,0.6918827574206516,0.15171486093557454,0.3847566303366431,9.603504356086898e-05,0.7635541915246425,0.4025183645353178
66,3.748,3.67,-0.75,0.6944121009577334,0.1514882995683829,0.3834509766060107,2.3008360631160094e-05,0.7626967592961974,0.40815061463491686
67,3.789,3.73,-0.75,0.6968515734307706,0.15129701072772567,0.38215991261400944,0.0,0.7618659014439682,0.4137426606181942
68,3.872,3.79,-0.76,0.6992002016541683,0.15114102740866248,0.38088325302055476,2.7167592567294047e-05,0.7610605817892687,0.4192939264679075
69,3.892,3.84,-0.77,0.7014570460186508,0.15102037449108857,0.3796207894482644,0.0001046494293564744,0.760279738508558,0.4248038648718333
70,3.955,3.9,-0.66,0.703621201248276,0.15093506891979386,0.37837229102844844,0.0002325643765546211,0.7595222856697238,0.43027195696031917
71,4.016,3.95,-0.71,0.7056917971642582,0.150885119870068,0.37713750498678555,0.0004110117924697938,0.758787114800125,0.4356977120230853
72,4.14,4.0,-0.77,0.7076679994539378,0.150870528898629,0.3759161572671222,0.0006400714468232488,0.7580730964833868,0.44108066720655303
73,4.161,4.06,-0.6,0.7095490104432481,0.15089129007974825,0.37470795319177663,0.000919803442821771,0.7573790819819544,0.44642038719296345
74,4.181,4.12,-0.66,0.7113340698710738,0.15094739012652045,0.3735125781567002,0.0012502481424636637,0.7567039048824241,0.451716463862523
75,4.243,4.17,-0.69,0.7130224556639461,0.15103880849730406,0.3723296983598134,0.0016314260955490253,0.7560463827606788,0.4569685159397884
76,4.284,4.22,-0.6,0.7146134847095291,0.15116551748746282,0.37115896156079753,0.002063337972906799,0.7554053188638761,0.4621761886254677
77,4.345,4.28,-0.61,0.7161065136273588,0.15132748230664247,0.36999999787059656,0.0025459645043789973,0.7547795038063922,0.4673391532147421
78,4.408,4.33,-0.64,0.7175009395353543,0.15152466114186158,0.36885242056890233,0.003079266422080528,0.7541677172768674,0.47245710670312724
79,4.469,4.39,-0.67,0.7187962008106705,0.15175700520670915,0.3677158269479143,0.0036631844094173697,0.7535687297535174,0.4775297713808383
80,4.53,4.45,-0.56,0.7199917778434727,0.1520244587769477,0.3665897991806624,0.004297639056329967,0.7529813042248944,0.48255689441658284
81,4.592,4.5,-0.61,0.721087193782219,0.1523269592128098,0.36547390521217177,0.004982530821218253,0.7524041979132673,0.48753824743169705
82,4.613,4.55,-0.66,0.7220820152690122,0.15266443696824805,0.3643676996717262,0.005717739999994791,0.7518361639977692,0.492473626065557
83,4.675,4.61,-0.47,0.7229758531635435,0.15303681558737461,0.3632707248044533,0.006503126702703066,0.7512759533344453,0.49736284953320664
84,4.737,4.66,-0.53,0.723768363254165,0.15344401168830077,0.36218251142043584,0.007338530838119734,0.7507223161703681,0.5022057601761569
85,4.8,4.72,-0.57,0.7244592469546849,0.15388593493459393,0.3611025798595349,0.00822377210675181,0.7501740038490261,0.5070022230073318
86,4.861,4.78,-0.46,0.7250482519855366,0.15436248799463614,0.3600304409700864,0.009158650002661367,0.7496297705043014,0.511752125251136
87,4.902,4.83,-0.46,0.72553517303807,0.1548735664892576,0.3589655970996388,0.01014294382456081,0.7490883747404676,0.5164553758795922
88,4.944,4.88,-0.47,0.7259198524208372,0.15541905892809277,0.35790754309594225,0.011176412696583902,0.7485485812957718,0.5211119051454557
89,5.008,4.94,-0.48,0.726202180686852,0.15599884663518104,0.3568557673164537,0.012258795599080451,0.7480091626872607,0.52572166411319
90,5.068,5.0,-0.4,0.72638209724089,0.15661280366441635,0.35580975264468245,0.013389811409731864,0.7474689008346392,0.530284624188655
91,5.109,5.05,-0.47,0.7264595909259943,0.15726079670550155,0.3547689775117677,0.014569158955232907,0.7469265886610547,0.534800776648323
92,5.253,5.11,-0.53,0.7264347005884476,0.15794268498108988,0.35373291692174336,0.015796517073740437,0.7463810316687856,0.5392701321688063
93,5.274,5.16,-0.37,0.7263075156205137,0.1586583201358154,0.35270104347898396,0.017071544688260935,0.7458310494878828,0.5436927203574361
94,5.294,5.21,-0.44,0.7260781764802526,0.15940754611792074,0.3516728284163558,0.018393880891123402,0.7452754773958383,0.5480685892846155
95,5.335,5.27,-0.5,0.7257468751876411,0.16019019905420248,0.3506477426226034,0.01976314503967077,0.7447131678063741,0.5523978050186374
96,5.397,5.33,-0.41,0.7253138557960571,0.16100610711902824,0.3496252576674913,0.02117893686331245,0.7441429917254748,0.5566804511636126
97,5.439,5.38,-0.42,0.7247794148379987,0.16185509039819596,0.3486048468232089,0.02264083658208178,0.7435638401728528,0.5609166284010533
98,5.501,5.43,-0.42,0.7241439017437311,0.16273696074838184,0.3475859860805413,0.024148405036816374,0.7429746255670747,0.5651064540355515
99,5.582,5.49,-0.42,0.7234077192314198,0.16365152165289648,0.3465681551582912,0.025701183831065514,0.7423742830726255,0.5692500615449324
100,5.603,5.54,-0.33,0.7225713236672402,0.16459856807447243,0.34555083850441526,0.02729869548484453,0.7417617719072538,0.5733476001352122
101,5.664,5.6,-0.38,0.7216352253940161,0.1655778863058151,0.34453352628733874,0.028940443600381813,0.7411360766080402,0.5773992343006504
102,5.726,5.66,-0.43,0.7205999890270756,0.1665892538186534,0.3435157153759259,0.03062591304002927,0.7404962082547497,0.5814051433891583
103,5.788,5.71,-0.26,0.719466233716177,0.16763243911202824,0.3424969103066069,0.03235457011652112,0.7398412056491493,0.5853655211732777
104,5.869,5.76,-0.34,0.7182346333725232,0.16870720156054894,0.34147662423619995,0.03412586279575344,0.7391701364490966,0.5892805754269143
105,5.889,5.82,-0.41,0.716905916859979,0.16981329126336567,0.3404543798790097,0.03593922091224077,0.7384820982563176,0.5931505275079829
106,5.931,5.87,-0.31,0.7154808681496281,0.17095044889467823,0.33942971042681913,0.0377940563974115,0.7377762196569133,0.5969756119470954
107,5.993,5.93,-0.36,0.713960326436792,0.17211840555668637,0.3384021604504542,0.039689763520898376,0.7370516612137629,0.6007560760423655
108,6.054,5.99,-0.38,0.7123451862195924,0.17331688263593148,0.3373712867816743,0.041625719144938546,0.7363076164100729,0.6044921794603879
109,6.115,6.04,-0.39,0.7106363973380676,0.1745455916639975,0.33633665937418894,0.04360128299195428,0.7355433125433684,0.6081841938434299
110,6.176,6.09,-0.32,0.7088349649727562,0.17580423418354177,0.3352978621426319,0.04561579792536099,0.7347580115692578,0.6118324024228682
111,6.217,6.15,-0.38,0.7069419496015997,0.17709250162059292,0.3342544937783469,0.04766859024362621,0.7339510108943261,0.6154370996388667
112,6.32,6.2,-0.39,0.7049584669139675,0.17841007516399007,0.33320616854086743,0.04975896998758288,0.7331216441175502,0.6189985907662411
113,6.34,6.26,-0.23,0.7028856876805749,0.1797566256527708,0.33215251702397997,0.05188623126098858,0.7322692817196708,0.6225171915463911
114,6.382,6.32,-0.32,0.7007248375780653,0.1811318134722517,0.33109318689528117,0.05404965256430733,0.7313933317000495,0.6259932278251095
115,6.444,6.37,-0.39,0.6984771969670868,0.18253528845950576,0.3300278436081621,0.05624849714168553,0.7304932401606645,0.6294270351960187
116,6.504,6.42,-0.28,0.6961441006228088,0.18396668981893918,0.3289561710851829,0.058482013341109605,0.729568491837055,0.6328189586493376
117,6.545,6.48,-0.3,0.6937269374169998,0.18542564604865336,0.3278778723718527,0.06074943498772992,0.7286186105761796,0.6361693522256412
118,6.606,6.54,-0.34,0.691227149951029,0.1869117748782103,0.32679267025991193,0.06304998177029308,0.7276431597612492,0.6394785786742904
119,6.667,6.59,-0.33,0.6886462341393496,0.1884246832183515,0.32570030787926646,0.06538285964057987,0.7266417426836654,0.6427470091162336
120,6.728,6.64,-0.29,0.6859857387431563,0.18996396712316177,0.32460054925777915,0.06774726122572008,0.725614002862272,0.6459750227108939
121,6.769,6.7,-0.35,0.6832472648540343,0.19152921176511922,0.323493179848181,0.07014236625322996,0.7245596243102237,0.6491630063268403
122,6.829,6.75,-0.41,0.6804324653275114,0.19311999142341246,0.3223780070214291,0.07256734198859217,0.723478331749847,0.6523113542159329
123,6.871,6.81,-0.34,0.6775430441664648,0.19473586948586624,0.3212548605258826,0.07502134368518011,0.722369890775931,0.6554204676906161
124,6.932,6.87,-0.43,0.6745807558543213,0.19637639846476784,0.32012359291171055,0.07750351504630879,0.7212341079679149,0.658490754804023
125,6.995,6.92,-0.5,0.6715474046379059,0.19804112002685895,0.3189840799199609,0.08001298869919023,0.7200708309514299,0.6615226300325591
126,7.037,6.97,-0.39,0.6684448437596383,0.19972956503774691,0.31783622083572616,0.08254888668058952,0.7188799484095907,0.6645165139606579
127,7.162,7.03,-0.41,0.665274974638641,0.20144125362096674,0.3166799388048572,0.08511032093397272,0.7176613900443738,0.6674728329674089
128,7.183,7.08,-0.43,0.6620397460002444,0.2031756952318517,0.3155151811137191,0.08769639381788191,0.7164151264883389,0.6703920189147955
129,7.225,7.14,-0.42,0.6587411529533573,0.20493238874629477,0.31434191943151946,0.09030619862520145,0.7151411691669494,0.673274508837309
130,7.267,7.2,-0.37,0.6553812360152493,0.2067108225644184,0.31316015001479225,0.09293882011291264,0.7138395701118072,0.6761207446327246
131,7.329,7.25,-0.41,0.6519620800834791,0.20851047472910286,0.3119698938737041,0.09559333504185921,0.712510421725219,0.6789311727538364
132,7.412,7.3,-0.45,0.6484858133549605,0.21033081305925694,0.3107711968999453,0.09826881272597578,0.7111538564966036,0.681706243900985
133,7.452,7.36,-0.3,0.6449546061924059,0.21217129529766465,0.3095641299560619,0.1009643155903819,0.7097700466713526,0.6844464127152384
134,7.472,7.41,-0.39,0.6413706699386296,0.2140313692731898,0.30834878892617484,0.10367889973770766,0.7083592038728435,0.6871521374721145
135,7.534,7.47,-0.47,0.6377362556793919,0.21591047307707711,0.3071252947281024,0.1064116155220044,0.7069215786784105,0.6898238797757577
136,7.595,7.53,-0.36,0.6340536529556198,0.2178080352530732,0.30589379328695837,0.10916150812960834,0.7054574601501734,0.6924621042535001
137,7.656,7.58,-0.4,0.630325188425969,0.21972347500107275,0.30465445547037173,0.11192761816632585,0.7039671753217348,0.6950672782507283
138,7.697,7.63,-0.46,0.6265532244808081,0.22165620239395362,0.30340747698555304,0.11470898225028425,0.7024510886418114,0.6976398715260015
139,7.82,7.69,-0.46,0.6227401578087169,0.22360561860723716,0.30215307823849447,0.11750463360977977,0.7009096013758941,0.7001803559463903
140,7.839,7.75,-0.43,0.6188884179165329,0.22557111616120407,0.3008915041556257,0.12031360268545728,0.6993431509670632,0.7026892051830176
141,7.859,7.8,-0.48,0.615000465603903,0.22755207917506348,0.2996230239682961,0.12313491773613243,0.6977522103570984,0.7051668944068004
142,7.922,7.86,-0.52,0.6110787913932154,0.22954788363270728,0.2983479309604974,0.1259676054475065,0.696137287269008,0.7076138999844096
143,7.983,7.91,-0.37,0.6071259139157166,0.2315578976594885,0.2970665421802754,0.1288106915429533,0.6944989234520801,0.7100306991745006
144,8.025,7.96,-0.45,0.603144378254587,0.2335814818093552,0.295779198115326,0.13166320139548235,0.6928376938905725,0.7124177698242791
145,8.086,8.02,-0.53,0.5991367542458162,0.23561798936158168,0.2944862623333058,0.13452416063993183,0.6911542059771945,0.7147755900664765
146,8.149,8.08,-0.41,0.595105634737832,0.23766676662629818,0.29318812108743464,0.13739259578443347,0.6894490986526278,0.7171046380167924
147,8.21,8.13,-0.45,0.5910536338110436,0.2397271532580034,0.2918851828880318,0.14026753482019916,0.6877230415124358,0.719405391471842
148,8.25,8.19,-0.49,0.586983384958693,0.24179848257623182,0.2905778780406962,0.14314800782869427,0.6859767338827737,0.7216783276076456
149,8.312,8.24,-0.48,0.5828975392305769,0.2438800818925806,0.28926665815187663,0.14603304758532176,0.6842109038663723,0.7239239226787115
150,8.374,8.3,-0.45,0.5787987633413529,0.24597127284334866,0.2879519956025953,0.14892169015882317,0.6824263073603364,0.7261426517177813
151,8.436,8.35,-0.51,0.5746897377453085,0.24807137172706403,0.28663438299112826,0.15181297550566172,0.6806237270473672,0.728334988236314
152,8.519,8.41,-0.56,0.5705731546796534,0.25017968984617167,0.2853143325455061,0.15470594805866106,0.6788039713620545,0.7305014039258338
153,8.54,8.46,-0.44,0.5664517161785391,0.25229553385214515,0.2839923755067732,0.15759965730916556,0.6769678734339224,0.7326423683603089
154,8.601,8.52,-0.55,0.5623281320601274,0.25441820609327154,0.2826690614840251,0.1604931583819558,0.6751162900089156,0.7347583486997779
155,8.642,8.57,-0.65,0.5582051178890866,0.2565470049643474,0.2813449577823165,0.1633855126021272,0.6732501003510214,0.7368498093954776
156,8.725,8.63,-0.55,0.5540853929168713,0.2586812252575446,0.2800206487045858,0.16627578805313165,0.6713702051257173,0.7389172118967425
157,8.745,8.68,-0.58,0.5499716780020842,0.26082015851372403,0.2786967348287971,0.16916306012518376,0.6694775252669216,0.7409610143599452
158,8.806,8.74,-0.62,0.5458666935130777,0.2629630933735012,0.277373832261529,0.1720464120532459,0.6675730008290574,0.7429816713597551
159,8.888,8.79,-0.62,0.541773157214731,0.2651093159274347,0.2760525718692285,0.17492493544386672,0.6656575898257885,0.7449796336029852
160,8.909,8.85,-0.58,0.5376937821411014,0.26725811006479694,0.274733598488309,0.17779773079022895,0.6637322670569558,0.7469553476452687
161,8.97,8.9,-0.63,0.5336312744555268,0.2694087578204435,0.27341757011526613,0.18066390797481352,0.6617980229252574,0.7489092556107672
162,9.031,8.96,-0.67,0.529588331299785,0.27156053971933114,0.2721051570779931,0.18352258675910893,0.6598558622442239,0.7508417949151219
163,9.072,9.01,-0.54,0.5255676386340471,0.2737127351182552,0.27079704118950776,0.18637289725981002,0.6579068030390526,0.7527533979918825
164,9.132,9.07,-0.64,0.5215718690695843,0.27586462254439037,0.26949391488534463,0.18921398041094903,0.6559518753418925,0.7546444920226688
165,9.194,9.12,-0.72,0.517603679696453,0.27801548003021964,0.2681964803459096,0.19204498841140447,0.6539921199831931,0.7565154986713439
166,9.256,9.18,-0.6,0.5136657099086521,0.280164585444445,0.26690544860513443,0.1948650851572499,0.6520285873807681,0.7583668338224684
167,9.338,9.23,-0.64,0.5097605792294865,0.2823112168184817,0.2656215386468128,0.1976734466584288,0.6500623363282686,0.7601989073243015
168,9.358,9.29,-0.68,0.5058908851400487,0.2844546526681676,0.26434547649003565,0.20046926143926913,0.6480944327847488,0.7620121227366082
169,9.4,9.34,-0.68,0.5020592009137571,0.28659417231040396,0.2630779942651485,0.20325173092241278,0.6461259486670181,0.763806877083538
170,9.463,9.4,-0.68,0.49826807345984847,0.2887290561745614,0.2618198292816489,0.20602006979580859,0.6441579606464932,0.7655835606118012
171,9.526,9.45,-0.76,0.49452002117867216,0.29085858610856574,0.2605717230894522,0.20877350636246467,0.6421915489522847,0.7673425565543497
172,9.628,9.51,-0.81,0.49081753183157417,0.29298204567961383,0.2593344205349554,0.2115112828726877,0.6402277961822378,0.7690842408997718
173,9.649,9.56,-0.71,0.48716306042806273,0.2950987204694897,0.2581086688133122,0.21423265583857892,0.6382677861235799,0.7708089821676501
174,9.71,9.62,-0.8,0.48355902713282245,0.29720789836444556,0.2568952165183029,0.21693689633060007,0.6363126025847313,0.7725171411901517
175,9.731,9.67,-0.88,0.480007815195007,0.2993088698395899,0.25569481269114663,0.21962329025606295,0.6343633282397274,0.7742090709001508
176,9.793,9.73,-0.74,0.47651176890210895,0.3014009282377055,0.25450820586957257,0.2222911386194301,0.6324210434866059,0.7758851161262011
177,9.854,9.78,-0.78,0.473073191560648,0.3034833700423939,0.25333614313846503,0.22493975776432465,0.6304868253210479,0.7775456133946776
178,9.895,9.84,-0.84,0.4696943435059165,0.3055554951454317,0.25217936918340156,0.22756847959715312,0.6285617462265018,0.7791908907394329
179,10.017,9.89,-0.82,0.4663774401430132,0.3076166071082736,0.2510386253483922,0.2301766517922849,0.6266468730819924,0.7808212675193367
180,10.038,9.95,-0.79,0.46312465002140796,0.3096660134177239,0.24991464869910962,0.23276363797879357,0.6247432660888433,0.7824370542440361
181,10.08,10.0,-0.85,0.45993809294534227,0.3117030257358658,0.2488081710929039,0.2353288179088079,0.6228519777175584,0.7840385524082536
182,10.142,10.06,-0.9,0.45681983812243543,0.3137269601444104,0.24771991825689582,0.23787158760756302,0.620974051676102,0.7856260543349469
183,10.202,10.11,-0.8,0.4537719023528894,0.3157371373837162,0.2466506088754291,0.2403913595053048,0.6191105219007935,0.7871998430276588
184,10.223,10.16,-0.9,0.45079624826170533,0.3177328830868014,0.2456009536881518,0.2428875625512558,0.6172624115709993,0.7887601920323962
185,10.285,10.22,-1.0,0.44789478257634546,0.3197135280087117,0.244571654599982,0.24535964230989588,0.6154307321487428,0.7903073653093882
186,10.389,10.28,-0.87,0.4450693544522778,0.3216784082516181,0.24356340380419678,0.2478070610398563,0.6136164824442991,0.7918416171150793
187,10.41,10.33,-0.95,0.44232175384883976,0.3236268654860047,0.24257688291986376,0.2502292977557597,0.6118206477087492,0.7933631918947286
188,10.451,10.39,-1.02,0.4396537099577696,0.3255582471683017,0.2416127621448034,0.2526258482733672,0.610044198754357,0.7948723241860114
189,10.514,10.44,-0.99,0.4370668896865383,0.32747190675534965,0.24067169942520042,0.2549962252384491,0.60828809110351,0.796369238534035
190,10.577,10.5,-0.98,0.43456289619833527,0.3293672039161219,0.23975433964290196,0.2573399581398447,0.6065532641668668,0.7978541494181569
191,10.639,10.55,-1.01,0.43214326751031285,0.3312435047411067,0.23886131382137074,0.259656593307193,0.6048406404512454,0.799327261190955
192,10.722,10.61,-1.05,0.429809475151475,0.3331001819496927,0.23799323835119915,0.2619456938938085,0.6031511247976753,0.8007887680296759
193,10.742,10.66,-0.95,0.42756292288142544,0.3349366150958404,0.23715071423601897,0.2642068398451768,0.6014856036499522,0.8022388539004698
194,10.803,10.72,-1.03,0.4254049454710998,0.3367521907722786,0.23633432635958707,0.26643962785354036,0.5998449443539805,0.8036776925356858
195,10.844,10.77,-1.12,0.4233368075466051,0.3385463028134302,0.23554464277478238,0.2686436712990407,0.598229994488154,0.8051054474244898
196,10.905,10.83,-0.96,0.4213597024973477,0.3403183524972576,0.23478221401521465,0.2708186001778891,0.596641581224991,0.8065222718170502
197,10.989,10.88,-1.02,0.4194747514497255,0.34206774874620355,0.2340475724301285,0.2729640610180443,0.5950805107242033,0.8079283087425453
198,11.01,10.94,-1.08,0.4176830023077119,0.34379390832739104,0.2333412315432548,0.27507971678288506,0.5935475675573093,0.8093236910412627
199,11.093,10.99,-1.03,0.4159854288616327,0.34549625605227074,0.23266368543619698,0.27716524676341187,0.5920435141638678,0.8107085414110701
200,11.114,11.05,-1.04,0.41438292996637366,0.34717422497592115,0.23201540815686808,0.27922034645955934,0.5905690903393914,0.8120829724684955
201,11.156,11.1,-1.09,0.41287632879023195,0.3488272565961833,0.23139685315344335,0.28124472745122026,0.5891250127549825,0.8134470868246018
202,11.217,11.16,-1.14,0.41146637213556064,0.350454801052805,0.23080845273424835,0.2832381172595889,0.587711974508689,0.8148009771758036
203,11.279,11.21,-1.06,0.4101537298322006,0.3520563173268001,0.23025061755394693,0.28520025919946057,0.5863306447085047,0.8161447264097359
204,11.32,11.27,-1.14,0.4089389942044698,0.3536312734402795,0.22972373612632346,0.28713091222315157,0.584981668086852,0.8174784077262598
205,11.381,11.32,-1.19,0.4078226796122307,0.35517914665703154,0.22922817436386342,0.2890298507567158,0.5836656646462615,0.8188020847736738
206,11.464,11.38,-1.03,0.4068052220663079,0.35669942368411317,0.22876427514423953,0.29089686452912467,0.5823832293358433,0.8201158118001899
207,11.505,11.43,-1.08,0.4058869789183379,0.35819160087465707,0.22833235790373552,0.29273175839503673,0.5811349317580544,0.8214196338207143
208,11.546,11.49,-1.13,0.4050682286249901,0.3596551844320425,0.22793271825758132,0.29453435215173374,0.5799213159052076,0.8227135867989545
209,11.63,11.54,-1.06,0.4043491705863707,0.36108969061556145,0.22756562764711188,0.29630448035077317,0.5787428999251754,0.8239976978448466
210,11.692,11.6,-1.06,0.40372992505837113,0.3624946459477056,0.22723133301362733,0.2980419921048856,0.5776001759158061,0.8252719854272327
211,11.713,11.65,-1.09,0.4032105331387792,0.36386958742314557,0.2269300564988194,0.2997467508905995,0.5764936097476129,0.826536459601651
212,11.776,11.71,-1.13,0.4027909568270401,0.3652140627194177,0.22666199517161606,0.3014186343470433,0.5754236409143217,0.8277911222530526
213,11.817,11.76,-1.03,0.4024710791575704,0.3665276304093065,0.22642732078125574,0.30305753407138264,0.5743906824108864,0.8290359673532101
214,11.878,11.82,-1.11,0.40225070440650823,0.3678098601748931,0.22622617953635615,0.30466335541137346,0.573395120638578,0.8302709812325313
215,11.94,11.87,-1.21,0.40212955837175735,0.3690603330231949,0.22605869190968994,0.30623601725553146,0.572437315336743,0.8314961428659485
216,12.001,11.93,-1.05,0.4021072887261374,0.3702786415032673,0.22592495246833677,0.3077754518214243,0.571517599540783,0.8327114241725135
217,12.062,11.98,-1.14,0.40218346544339734,0.3714643899245606,0.22582502972885435,0.3092816044425774,0.5706362795658543,0.8339167903283032
218,12.103,12.04,-1.2,0.4023575812967234,0.3726171945762752,0.22575896603709295,0.310754433354446,0.5697936350156997,0.8351122000922387
219,12.185,12.09,-1.14,0.4026290524291346,0.37373668394743914,0.22572677747223538,0.31219390947988607,0.5689899188159429,0.8362976061444005
220,12.206,12.15,-1.14,0.40299721899489116,0.3748224989474241,0.22572845377460563,0.3136000162145294,0.5682253572711182,0.8374729554363785
221,12.267,12.2,-1.17,0.40346134587081706,0.375874293126547,0.2257639582967615,0.31497274921242474,0.5675001501446366,0.8386381895531411
222,12.328,12.26,-1.15,0.40402062343624673,0.376891732896332,0.22583322797734945,0.316312116172277,0.5668144707608113,0.8397932450858886
223,12.39,12.31,-1.05,0.40467416842013265,0.37787449774898263,0.22593617333715113,0.3176181366246244,0.5661684661280281,0.8409380540153333
224,12.451,12.37,-1.13,0.40542102481372405,0.37882228047564215,0.22607267849672222,0.31889084172028415,0.5655622570821434,0.842072544104826
225,12.493,12.42,-1.21,0.4062601648471691,0.3797347873830685,0.22624260121502443,0.32013027402036065,0.5649959384492289,0.8431966393027247
226,12.555,12.48,-1.05,0.407190490028368,0.3806117385084171,0.2264457729484639,0.3213364872880586,0.5644695792268417,0.84431026015336
227,12.615,12.53,-1.12,0.40821083224245047,0.3814528678318559,0.22668199892978133,0.32250954628248896,0.5639832227830266,0.8454133242159375
228,12.678,12.59,-1.16,0.4093199549102949,0.38225792348674625,0.22695105826626355,0.3236495265546061,0.5635368870722476,0.8465057464907342
229,12.699,12.64,-1.09,0.4105165542045048,0.38302666796715273,0.22725270405675577,0.324756514245398,0.5631305648674249,0.847587439851985
230,12.782,12.7,-1.09,0.41179926032125036,0.3837588783324612,0.22758666352697104,0.3258306058864314,0.5627642240072699,0.8486583154868695
231,12.803,12.75,-1.13,0.4131666388063966,0.38445434640887893,0.22795263818263872,0.3268719082028031,0.5624378076581258,0.8497182833400035
232,12.865,12.81,-1.17,0.41461719193431973,0.38511287898757535,0.2283503039800643,0.3278805379184949,0.5621512345895349,0.8507672525628361
233,12.989,12.86,-1.08,0.41614936013770537,0.3857342980192486,0.22877931151367295,0.3288566215641373,0.5619043994627647,0.851805131967337
234,13.009,12.91,-1.16,0.4177615234864691,0.38631844080492084,0.22923928622007986,0.32980029528720023,0.5616971731315216,0.8528318304833276
235,13.05,12.97,-1.24,0.4194520032137607,0.3868651601827573,0.2297298285981926,0.33071170466464744,0.5615294029540387,0.8538472576187964
236,13.091,13.03,-1.08,0.4212190632868292,0.38737432471066274,0.2302505144448171,0.3315910045180759,0.5614009131156747,0.8548513239225142
237,13.132,13.08,-1.14,0.4230609120203538,0.38784581884435804,0.2308008951052245,0.33243835873132377,0.5613115049610873,0.8558439414482533
238,13.214,13.14,-1.17,0.4249757037296833,0.38827954311060164,0.23138049773812322,0.3332539400704921,0.5612609573349808,0.8568250242199379
239,13.296,13.19,-1.09,0.4269615404212883,0.38867541427524116,0.23198882559444828,0.33403793000633286,0.561249026930396,0.8577944886970693
240,13.316,13.25,-1.07,0.4290164735177002,0.3890333655058132,0.23262535830937198,0.33479051853896796,0.5612754486435367,0.858752254239762
241,13.356,13.3,-1.09,0.43113850561433925,0.3893533465283797,0.23328955220696693,0.335511904024872,0.5613399359341872,0.8596982435727115
242,13.417,13.36,-1.11,0.4333255922658125,0.3896353237782482,0.2339808406170007,0.336202293006013,0.5614421811908414,0.8606323832474106
243,13.479,13.41,-1.0,0.43557564379940944,0.38987928054420123,0.23469863420337708,0.33686190004103106,0.5615818560997545,0.8615546041019257
244,13.542,13.47,-1.07,0.43788652715364385,0.39008521710585153,0.23544232130378304,0.3374909475383267,0.5617586120172223,0.8624648417175375
245,13.582,13.52,-1.14,0.4402560677398031,0.3902531508637154,0.2362112682801417,0.33808966559091863,0.5619720803444828,0.863363036871544
246,13.665,13.58,-0.99,0.44268205132458305,0.3903831164615547,0.23700481987951807,0.338658291812916,0.5622218729047003,0.8642491359855118
247,13.685,13.63,-1.06,0.44516222593201354,0.3904751659004714,0.23782229960516932,0.3391970711774404,0.562507582321546,0.8651230915682442
248,13.745,13.69,-1.11,0.44769430376294433,0.39052936864418397,0.23866301009746604,0.33970625585583586,0.5628287823989031,0.8659848626527366
249,13.806,13.74,-1.05,0.4502759631303071,0.39054581171491315,0.2395262335244128,0.3401861050580341,0.5631850285012326,0.8668344152263725
250,13.868,13.8,-1.06,0.4529048504082661,0.3905245997793199,0.24041123198150408,0.34063688487393573,0.5635758579341622,0.8676717226535858
251,13.909,13.85,-1.1,0.45557858199329426,0.3904658552239081,0.24131724790070025,0.3410588681155681,0.5640007903248673,0.8684967660901796
252,13.971,13.91,-1.12,0.4582947462751443,0.39036971821926636,0.24224350446835205,0.34145233415965254,0.5644593280018081,0.8693095348884837
253,14.034,13.96,-1.01,0.46105090561558476,0.3902363467725175,0.24318920605191569,0.3418175687901487,0.5649509563733792,0.8701100269925357
254,14.076,14.02,-1.07,0.4638445983327318,0.3900659167673504,0.24415353863528624,0.3421548640403477,0.5654751443050231,0.8708982493224854
255,14.138,14.07,-1.16,0.4666733406888364,0.38985862199101134,0.24513567026256297,0.3424645180341159,0.566031344494363,0.8716742181474572
256,14.198,14.13,-0.98,0.4695346288794932,0.38961467414763695,0.2461347514900612,0.34274683482592444,0.5666189938439268,0.8724379594461283
257,14.259,14.18,-1.04,0.4724259410223999,0.3893343028573123,0.24714991584642054,0.3430021242392996,0.5672375138310636,0.8731895092543306
258,14.32,14.24,-1.09,0.4753447391439544,0.3890177556402584,0.24818028030070313,0.34323070170333536,0.5678863108746692,0.8739289139990404
259,14.402,14.29,-1.02,0.47828847116206674,0.3886652978856182,0.2492249457383989,0.3434328880869436,0.5685647766983746,0.8746562308181787
260,14.422,14.35,-0.98,0.48125457286364975,0.38827721280436805,0.25028299744527505,0.3436090095305641,0.5692722886899177,0.875371527865659
261,14.463,14.4,-1.02,0.48424046987539815,0.3878538013658875,0.25135350559905184,0.34375939727506355,0.5700082102565022,0.8760748846011185
262,14.524,14.46,-1.06,0.48724357962657955,0.38739538221771697,0.2524355257689205,0.3438843874875558,0.5707718911759955,0.8767663920637669
263,14.565,14.51,-0.96,0.4902613133026025,0.38690229158807393,0.253528099422936,0.34398432108390486,0.5715626679439062,0.8774461531297815
264,14.626,14.57,-1.05,0.493291077788124,0.3863748831707449,0.2546302544433172,0.3440595435477106,0.572379864116136,0.8781142827526602
265,14.687,14.62,-1.14,0.49633027759843457,0.3858135279919875,0.25574100564967034,0.3441104047456153,0.5732227906475393,0.8787709081859356
266,14.749,14.68,-0.97,0.49937631679781885,0.38521861425907367,0.25685935533013593,0.34413725873880685,0.5740907462263249,0.8794161691876483
267,14.789,14.73,-1.01,0.5024266009035664,0.3845905471900741,0.25798429378044774,0.3441404635906067,0.5749830176043077,0.8800502182060054
268,14.851,14.79,-1.05,0.5054785387742925,0.3839297488244731,0.2591147998508886,0.3441203811700334,0.5758988799229771,0.8806732205456875
269,14.893,14.84,-0.99,0.5085295444812019,0.38323665781424326,0.26024984150110425,0.344077376951248,0.5768375970353531,0.8812853545143234
270,14.954,14.9,-0.98,0.5115770391609663,0.38251172919507254,0.26138837636272244,0.3440118198087996,0.5777984218236611,0.8818868115486513
271,15.016,14.95,-1.0,0.5146184528490011,0.38175543413749713,0.2625293523097355,0.3439240818085879,0.5787805965129399,0.8824777963199003
272,15.058,15.01,-1.02,0.5176512262920204,0.38096825967779946,0.2636717080366209,0.3438145379944768,0.5797833529807623,0.8830585268179546
273,15.139,15.06,-0.9,0.5206728127387904,0.3801507084287009,0.2648143736441756,0.34368356617054213,0.5808059130633161,0.8836292344138945
274,15.2,15.12,-0.98,0.5236806797080362,0.379303298270037,0.2659562712330494,0.34353154667900077,0.5818474888581593,0.8841901639005373
275,15.241,15.17,-1.07,0.5266723107325388,0.37842656201969643,0.2670963155049766,0.3433588621738957,0.5829072830240288,0.884741573510612
276,15.282,15.23,-0.92,0.5296452070785633,0.37752104708515255,0.2682334143717353,0.3431658973906312,0.5839844890781494,0.8852837349121965
277,15.364,15.28,-0.98,0.5325968894398809,0.37658731509592563,0.2693664695719103,0.3429530389114401,0.5850782916915332,0.8858169331810519
278,15.406,15.34,-1.05,0.5355248996057335,0.3756259415173233,0.2704943772955717,0.342720674926858,0.5861878669827573,0.886341466749519
279,15.508,15.39,-1.01,0.5384268021020693,0.374637515245843,0.271616028816979,0.342469194993303,0.587312382810696,0.8868576473316875
280,15.529,15.45,-0.99,0.5413001858053232,0.3736226381866642,0.2727303111353944,0.34219898978689123,0.5884509990666864,0.8873657998245654
281,15.569,15.5,-1.03,0.5441426655279736,0.37258192481366115,0.2738361076240815,0.3419104508536203,0.5896028679665853,0.8878662621849951
282,15.631,15.56,-1.04,0.5469518835750765,0.3715160017123623,0.27493229868754676,0.34160397035606005,0.590767134343135,0.8883593852821129
283,15.693,15.61,-0.9,0.5497255112709472,0.3704255071063045,0.27601776242704673,0.3412799408167241,0.5919429359390241,0.8888455327251934
284,15.754,15.66,-0.98,0.5524612504552042,0.36931109036725257,0.2770913753143579,0.3409387548583404,0.5931294037010336,0.8893250806667623
285,15.876,15.72,-1.06,0.5551568349475192,0.3681734115097637,0.27815201287380326,0.3405808049412504,0.5943256620756909,0.8897984175808922
286,15.897,15.78,-0.92,0.5578100319806067,0.36701314067058016,0.27919855037255104,0.34020648309817547,0.5955308293069342,0.8902659440166036
287,15.917,15.83,-0.94,0.5604186436012355,0.3658309575733306,0.2802298635192418,0.33981618066657415,0.596744017736354,0.8907280723263193
288,15.938,15.89,-1.0,0.5629805080392699,0.3646275509790138,0.2812448291710285,0.33941028801881895,0.5979643341066189,0.8911852263693626
289,15.998,15.94,-0.97,0.5654935010448925,0.36340361812277766,0.28224232604908217,0.33898919429047336,0.599190879868711,0.891637841190537
290,16.059,16.0,-0.97,0.5679555371942479,0.36215986413756474,0.28322123546257266,0.3385532871070382,0.600422751493648,0.892086362673821
291,16.12,16.05,-1.02,0.5703645711638409,0.3608970014652346,0.28418044204110215,0.3381029523096016,0.601659040789409,0.8925312471711956
292,16.162,16.1,-1.09,0.5727185989740752,0.3596157492558172,0.28511883447554626,0.33763857367990574,0.6028988352237694,0.8929729611066393
293,16.244,16.16,-0.98,0.5750156592023118,0.35831683275561405,0.28603530626722506,0.3371605326654219,0.604141218253704,0.893411980555367
294,16.285,16.21,-1.08,0.5772538341657764,0.3570009826849284,0.2869287564852965,0.336669208105089,0.6053852696619343,0.8938487907984235
295,16.348,16.27,-1.17,0.5794312510745729,0.3556689346062494,0.2877980905322345,0.33616497595641354,0.6066300659010796,0.8942838858527882
296,16.389,16.32,-1.03,0.5815460831549438,0.3543214282837587,0.2886422209172225,0.3356482090246549,0.6078746804457593,0.8947177679771675
297,16.45,16.38,-1.07,0.5835965507427949,0.35295920703505734,0.28946006803727387,0.33511927669482844,0.6091181841528599,0.8951509471536838
298,16.491,16.43,-1.13,0.5855809223473581,0.3515830170760337,0.29025056096585544,0.3345785446672566,0.6103596456300626,0.8955839405457171
299,16.594,16.49,-1.1,0.587497515684678,0.35019360685986295,0.2910126382487293,0.3340263746974344,0.6115981316126136,0.8960172719322109
300,16.614,16.55,-1.07,0.5893446986804678,0.3487917264112296,0.29174524870665963,0.3334631243410142,0.6128327073482698,0.8964514711187856
301,16.655,16.6,-1.12,0.5911208904418663,0.3473781266569395,0.2924473522446079,0.33288914670473013,0.6140624369902984,0.8968870733260507
302,16.737,16.66,-1.14,0.5928245621976835,0.3459535587541637,0.2931179206670328,0.33230479020409,0.6152863839983425,0.8973246185555839
303,16.779,16.71,-1.0,0.5944542382068113,0.3445187734176362,0.2937559384989039,0.33171039832868016,0.6165036115468968,0.8977646509341357
304,16.839,16.76,-1.09,0.5960084966345873,0.3430745202471859,0.29436040381203915,0.33110630941594255,0.6177131829410925,0.8982077180366711
305,16.879,16.82,-1.15,0.5974859703970257,0.341621547057015,0.29493032905637395,0.3304928564342817,0.618914162039455,0.898654370188901
306,16.961,16.87,-1.02,0.5988853479729368,0.3401605992081588,0.29546474189576694,0.3298703667763595,0.620105613683294,0.8991051597499781
307,17.002,16.93,-1.05,0.6002053741840672,0.3386924189455806,0.29596268604796516,0.32923916206341575,0.6212866041323807,0.8995606403760315
308,17.043,16.98,-1.11,0.6014448509434472,0.3372177447413865,0.29642322212836036,0.328599557961441,0.6224562015065411,0.9000213662652529
309,17.125,17.04,-1.11,0.6026026379720655,0.3357373106457246,0.2968454284971344,0.327951864010044,0.623613476232753,0.9004878913852621
310,17.166,17.09,-1.08,0.6036776534838603,0.3342518456470355,0.2972284021093416,0.32729638346489215,0.6247575014973105,0.9009607686834898
311,17.229,17.15,-1.14,0.6046688748388944,0.3327620730433635,0.2975712593674362,0.3266334131546064,0.6258873537025711,0.9014405492813389
312,17.313,17.2,-1.18,0.6055753391644672,0.33126870982643586,0.29787313697572704,0.3259632433529622,0.6270021129276916,0.9019277816529544
313,17.334,17.26,-1.04,0.6063961439437776,0.32977246608018246,0.2981331927962081,0.32528615766719915,0.6281008633926347,0.9024230107895261
314,17.396,17.32,-1.12,0.6071304475716093,0.32827404439532293,0.2983506067051847,0.32460243294319224,0.6291826939246011,0.90292677735013
315,17.437,17.37,-1.19,0.6077774698763542,0.3267741393015907,0.29852458145006927,0.3239123391881842,0.6302466984259283,0.903439616800177
316,17.499,17.42,-1.06,0.6083364926075628,0.3252734367191409,0.29865434350567505,0.32321613951176487,0.6312919763424325,0.9039620585385787
317,17.56,17.48,-1.08,0.6088068598881563,0.323772613430662,0.298739143929303,0.3225140900857609,0.6323176331311287,0.9044946250147572
318,17.62,17.53,-1.1,0.6091879786304554,0.3222723365756952,0.29877825921389795,0.3218064401236851,0.6333227807262103,0.9050378308366662
319,17.703,17.59,-1.08,0.6094793189152079,0.32077326316867705,0.29877099213850855,0.321093431880407,0.6343065380021289,0.9055921818710292
320,17.723,17.64,-1.01,0.6096804143328299,0.3192760396422443,0.2987166726152397,0.3203753006727477,0.6352680312326128,0.9061581743370105
321,17.765,17.7,-1.05,0.609790862286211,0.31778130141730737,0.2986146585318698,0.3196522749216974,0.6362063945444836,0.9067362938945376
322,17.826,17.75,-1.08,0.6098103242545907,0.31628967250131645,0.2984643365893087,0.3189245762169109,0.6371207703651334,0.907327014728513
323,17.867,17.81,-0.93,0.6097385260181762,0.31480176511605346,0.29826512313308085,0.3181924194040837,0.6380103098625552,0.9079307986301762
324,17.93,17.86,-1.01,0.6095752578432975,0.3133181793561825,0.29801646497802936,0.3174560126957445,0.638874173376838,0.9085480940768917
325,17.992,17.92,-1.08,0.6093203746279673,0.31183950287971834,0.2977178402254333,0.31671555780595995,0.6397115308420673,0.9091793353116455
326,18.076,17.98,-0.97,0.6089737960077269,0.31036631063151504,0.2973687590717259,0.3159712501094099,0.6405215621976111,0.9098249414235274
327,18.095,18.03,-0.99,0.6085355064216531,0.30889916460081124,0.2969687646080079,0.3152232788252413,0.641303457787781,0.9104853154304704
328,18.156,18.08,-1.03,0.6080055551384012,0.30743861361375474,0.2965174336095657,0.31447182722602596,0.6420564187488466,0.9111608433655349
329,18.196,18.14,-0.99,0.6073840562420811,0.30598519316171363,0.29601437731458075,0.3137170728720761,0.6427796573823291,0.9118518933680683
330,18.258,18.19,-0.92,0.6066711885776438,0.3045394252660743,0.2954592421911793,0.3129591878713129,0.6434723975134795,0.9125588147810895
331,18.322,18.25,-0.96,0.6058671956553578,0.3031018183801008,0.29485171069193944,0.3121983391648011,0.6441338748338382,0.9132819372562557
332,18.363,18.3,-0.98,0.6049723855139106,0.30167286732827825,0.2941915019949577,0.3114346888379565,0.6447633372267887,0.9140215698677608
333,18.445,18.36,-0.8,0.6039871305416603,0.300253053283413,0.2934783727305611,0.3106683944573188,0.6453600450750584,0.9147780002365169
334,18.486,18.41,-0.87,0.6029118672556235,0.29884284378162124,0.2927121176927464,0.3098996094326626,0.645923271549194,0.9155514936659656
335,18.55,18.47,-0.93,0.601747096037861,0.2974426927752389,0.29189257053442613,0.30912848340411014,0.6464523028761332,0.9163422922908794
336,18.613,18.52,-0.8,0.60049338082901,0.2960530407236423,0.29101960444556907,0.3083551626538279,0.6469464385871193,0.9171506142405178
337,18.674,18.58,-0.83,0.5991513487788563,0.2946743147219093,0.2900931328133623,0.3075797905417954,0.6474049917443371,0.9179766528174919
338,18.695,18.64,-0.84,0.5977216898540393,0.29330692866714164,0.2891131098635758,0.3068025079650263,0.6478272891457413,0.9188205756937207
339,18.757,18.69,-0.83,0.5962051564031526,0.29195128346213817,0.28807953128234465,0.30602345383953067,0.6482126715076015,0.9196825241249077
340,18.798,18.75,-0.74,0.5946025626796437,0.2906077672560035,0.28699243481758585,0.30524276560429553,0.648560493624365,0.9205626121849967
341,18.859,18.8,-0.81,0.5929147843230556,0.28927675572116396,0.2858519008592585,0.30446057974658336,0.648870124505508,0.9214609260220743
342,18.922,18.85,-0.87,0.5911427577992842,0.2879586123661563,0.28465805299766306,0.303677032347899,0.6491409474891404,0.9223775231371659
343,18.963,18.91,-0.7,0.5892874798006003,0.28665368888345505,0.2834110585589714,0.3028922596499852,0.6493723603321991,0.9233124316873073
344,19.044,18.96,-0.78,0.587350006606201,0.28536232553151697,0.2821111291171871,0.3021063986401789,0.6495637752771318,0.9242656498142208
345,19.086,19.02,-0.83,0.5853314534039866,0.284084851550148,0.2807585209817457,0.3013195876554077,0.6497146190950154,0.9252371449998684
346,19.168,19.07,-0.72,0.5832329935741215,0.28282158560826004,0.2793535356599553,0.30053196700407214,0.6498243331050911,0.9262268534500904
347,19.189,19.13,-0.72,0.581055857934814,0.28157283628301527,0.27789652029348066,0.2997436796050167,0.6498923731707699,0.9272346795074365
348,19.251,19.18,-0.73,0.5788013339507323,0.28033890256922356,0.2763878680680962,0.2989548716427039,0.6499182096722163,0.9282604950941932
349,19.314,19.24,-0.72,0.5764707649045082,0.27912007441771347,0.27482801859594125,0.29816569323763265,0.6499013274556974,0.9293041391865278
350,19.354,19.3,-0.64,0.5740655490318853,0.27791663330127364,0.2732174582695262,0.2973762991309711,0.6498412257599885,0.9303654173205882
351,19.417,19.35,-0.7,0.5715871386212587,0.27672885280664966,0.27155672058678293,0.296586849382297,0.6497374181202605,0.9314441011313133
352,19.479,19.41,-0.77,0.5690370390785804,0.27555699925097127,0.26984638644652914,0.29579751007922767,0.6495894322500055,0.9325399279246455
353,19.54,19.46,-0.6,0.5664168079588139,0.27440133232090197,0.26808708441379137,0.2950084540576182,0.6493968099016565,0.9336526002837964
354,19.601,19.51,-0.68,0.5637280539652914,0.27326210573273296,0.26627949095451015,0.2942198616309052,0.6491591067066517,0.9347817857101688
355,19.644,19.57,-0.77,0.5609724359184145,0.2721395679116294,0.2644243306392127,0.2934319213270995,0.6488758919957424,0.9359271162995365
356,19.703,19.62,-0.68,0.5581516616951344,0.2710339626882797,0.2625223763152731,0.29264483063191155,0.6485467486004158,0.9370881884540506
357,19.745,19.68,-0.69,0.5552674871406315,0.26994553001124433,0.26057444924741635,0.291858796736466,0.648171272636361,0.938264562630583
358,19.806,19.73,-0.72,0.5523217149536449,0.26887450667327156,0.25858141922617045,0.29107403728801173,0.6477490732699345,0.9394557631258892
359,19.846,19.79,-0.75,0.5493161935469222,0.2678211270497728,0.2565442046440015,0.2902907811419652,0.647279772468568,0.940661277899065
360,19.908,19.84,-0.67,0.5462528158842334,0.26678562384756854,0.2544637725388813,0.28950926911358016,0.6467630047360625,0.9418805584317503
361,19.969,19.9,-0.74,0.5431335182953606,0.2657682288619241,0.2523411386050529,0.2887297547274921,0.6461984168337345,0.9431130196264824
362,20.01,19.95,-0.81,0.539960279270412,0.2647691737397971,0.2501773671707719,0.28795250496333347,0.6455856674883873,0.9443580397435468
363,20.07,20.01,-0.62,0.5367351182347319,0.263788690747137,0.24797357114280302,0.2871778009955709,0.6449244270880905,0.945614960376611
364,20.132,20.07,-0.69,0.5334600943056222,0.26282701353801285,0.24573091191746796,0.2864059389256674,0.6442143773667531,0.9468830864673818
365,20.175,20.12,-0.74,0.5301373050320546,0.2618843779233289,0.24345059925805174,0.28563723050463513,0.643455211078502,0.9481616863594867
366,20.277,20.17,-0.66,0.5267688851185194,0.2609610226369541,0.24113389113838438,0.28487200384405664,0.6426466316629545,0.9494499918917061
367,20.296,20.23,-0.66,0.5233570051342142,0.2600571900971667,0.2387820935524401,0.2841106041136738,0.6417883529025963,0.950747198530583
368,20.357,20.28,-0.7,0.5199038702089176,0.2591731271613487,0.2363965602898515,0.2833533942236307,0.6408800985735968,0.9520524655423412
369,20.418,20.34,-0.71,0.516411718717039,0.2583090858718776,0.23397869267728724,0.28260075548945274,0.639921602091478,0.9533649162039798
370,20.479,20.39,-0.62,0.512882820951425,0.2574653241912158,0.23152993928567492,0.28185308827786704,0.638912606153126,0.9546836380533623
371,20.541,20.45,-0.7,0.5093194777885288,0.256642106724252,0.22905179560328076,0.28111081263160465,0.637852862376711,0.9560076831780696
372,20.581,20.5,-0.78,0.5057240193465553,0.25583970542601314,0.2265458036746753,0.280374368871357,0.6367421309411341,0.9573360685427326
373,20.643,20.56,-0.63,0.502098803638145,0.2550584002929234,0.22401355170561346,0.27964421817310364,0.6355801802266773,0.9586677763545022
374,20.685,20.61,-0.7,0.4984462152190839,0.2542984800358436,0.22145667363384303,0.27892084311907805,0.6343667864585765,0.9600017544662658
375,20.726,20.67,-0.79,0.4947686638343802,0.2535602427331913,0.21887684866582427,0.2782047482207121,0.6331017333552384,0.9613369168171787
376,20.788,20.73,-0.74,0.4910685830628076,0.2528439964625449,0.21627580077927983,0.2774964604119979,0.6317848117828373,0.9626721439100335
377,20.85,20.78,-0.73,0.4873484289607489,0.2521500599092284,0.21365529819143894,0.2767965295118111,0.6304158194180404,0.9640062833249015
378,20.892,20.83,-0.76,0.4836106787059561,0.2514787629504159,0.21101715279280914,0.2761055286537898,0.6289945604205948,0.9653381502684023
379,20.953,20.89,-0.79,0.47985782924164005,0.2508304472133248,0.20836321954628828,0.27542405468240133,0.6275208451174685,0.9666665281579029
380,21.016,20.94,-0.68,0.4760923959211085,0.2502054666061317,0.2056953958513939,0.2747527285138923,0.6259944897002234,0.9679901692398782
381,21.079,21.0,-0.76,0.47231691115305297,0.24960418782032348,0.20301562087335612,0.2740921954608904,0.6244153159373188,0.9693077952416166
382,21.119,21.05,-0.86,0.4685339230475453,0.2490269908032703,0.20032587483679493,0.2734431255195079,0.6227831509030806,0.970618098055382
383,21.18,21.11,-0.75,0.4647459940628431,0.2484742691998858,0.197628178283696,0.27280621361788576,0.6210978267251193,0.971919740454101
384,21.22,21.16,-0.82,0.46095569965318045,0.24794643076231782,0.1949245912954186,0.27218217982519616,0.6193591803519956,0.9732113568376095
385,21.281,21.22,-0.89,0.45716562691776574,0.24744389772671535,0.19221721267849315,0.2715717695202019,0.6175670533429,0.9744915540085298
386,21.383,21.27,-0.88,0.4533783732511495,0.24696710715628098,0.18950817911396203,0.27097575351859177,0.6157212916810386,0.9757589119769104
387,21.404,21.33,-0.87,0.44959654499502844,0.24651651124998586,0.18679966427000794,0.2703949281584375,0.6138217456123518,0.9770119847928308
388,21.445,21.39,-0.94,0.4458227560915251,0.2460925776164311,0.18409387787763165,0.2698301153432136,0.6118682695111025,0.9782493014062403
389,21.508,21.44,-1.0,0.4420596267379738,0.24569578951239107,0.18139306476916792,0.2692821625418945,0.6098607217737634,0.9794693665533669
390,21.549,21.5,-0.89,0.43830978204321236,0.2453266460456262,0.17869950387944866,0.26875194274572944,0.6077989647425174,0.9806706616690889
391,21.611,21.55,-1.01,0.4345758506852995,0.24498566234159952,0.17601550720944736,0.2682403543813668,0.6056828646595613,0.9818516458247315
392,21.671,21.6,-1.1,0.43086046357044905,0.24467336967378403,0.1733434187522538,0.267748321180073,0.6035122916532746,0.9830107566907935
393,21.733,21.66,-0.99,0.42716625249281037,0.2443903155572971,0.17068561338124175,0.26727679200285626,0.6012871197571868,0.9841464115241675
394,21.795,21.71,-1.03,0.4234958487945576,0.24413706380563818,0.16804449570030677,0.2668267406213597,0.5990072269625449,0.9852570081794476
395,21.875,21.77,-1.09,0.4198518820255663,0.24391419455034813,0.16542249885605181,0.26639916545444037,0.5966724953051179,0.986340926143969
396,21.896,21.82,-1.08,0.4162369786017433,0.24372230422350757,0.16282208331176334,0.265995089260442,0.5942828109867379,0.9873965275962744
397,21.938,21.88,-1.03,0.41265376046089797,0.24356200550312068,0.16024573558297056,0.26561555878527987,0.5918380645319758,0.9884221584877442
398,22.0,21.93,-1.09,0.4091048437150129,0.24343392722152488,0.15769596693436666,0.26526164436654226,0.5893381509802801,0.9894161496471571
399,22.104,21.99,-1.15,0.4055928372978544,0.24333871423701076,0.15517531203788046,0.2649344394938635,0.5867829701138355,0.9903768179080091
400,22.125,22.05,-1.02,0.40212034160698973,0.2432770272688569,0.15268632759171025,0.26463506032586054,0.5841724267213382,0.991302467258443
401,22.166,22.1,-1.12,0.3986899471394266,0.24324954269598775,0.15023159090017144,0.2643646451639493,0.5815064308978175,0.9921913900136665
402,22.227,22.16,-1.21,0.39530423312020774,0.24325695231946917,0.14781369841424408,0.26412435388338734,0.5787848983805625,0.9930418680107481
403,22.309,22.21,-1.14,0.3919657661233722,0.24329996308908172,0.1454352642327515,0.26391536732192566,0.5760077509211401,0.9938521738256796
404,22.329,22.26,-1.17,0.38867709868480227,0.24337929679421497,0.14309891856416598,0.263738886626472,0.5731749166934029,0.9946205720125894
405,22.392,22.32,-1.2,0.38544076790658793,0.24349568971928998,0.1408073061491129,0.2635961325581546,0.5702863307372515,0.9953453203650077
406,22.513,22.37,-1.22,0.3822592940526046,0.24364989226388056,0.13856308464369319,0.2634883447561775,0.5673419354377626,0.9960246711991094
407,22.533,22.43,-1.17,0.3791351791350042,0.24384266852769304,0.13636892296378195,0.2634167809608812,0.5643416810391672,0.9966568726588413
408,22.554,22.48,-1.25,0.3760709054913249,0.24407479586053396,0.13422749959051608,0.26338271619643244,0.5612855261930647,0.997240170042778
409,22.596,22.54,-1.31,0.3730689343519281,0.24434706437734613,0.13214150083724802,0.2633874419135641,0.5581734385401506,0.9977728071524855
410,22.658,22.59,-1.14,0.3701317043974752,0.24466027643834523,0.13011361907829988,0.2634322650927868,0.5550053953246364,0.9982530276621021
411,22.721,22.65,-1.23,0.36726163030619086,0.2450152460942429,0.12814655093991242,0.26351850730848636,0.5517813840404283,0.998679076508793
412,22.781,22.7,-1.3,0.36446110129075343,0.2454127984965306,0.1262429954538394,0.26364750375433027,0.5485014031080307,0.9990492013037071
413,22.842,22.76,-1.21,0.3617324796247778,0.24585376927283287,0.12440565217409681,0.26382060223044074,0.5451654625810908,0.9993616537630009
414,22.884,22.82,-1.23,0.3590780991590787,0.2463390038673584,0.12263721925747004,0.264039162092818,0.5417735848814795,0.9996146911584137
415,22.946,22.87,-1.26,0.3565002638282028,0.2468693568464369,0.12094039150850897,0.2643045531654778,0.5383258055617605,0.9998065777867986
416,23.008,22.92,-1.28,0.3540012461480217,0.24744569116907073,0.11931785838986159,0.2646181546157593,0.5348221740938416,0.9999355864579496
417,23.05,22.98,-1.2,0.35158328570544456,0.24806887742239275,0.11777230199890897,0.26498135379327725,0.5312627546825646,1.0
418,23.113,23.03,-1.29,0.3492485876415649,0.24873979302190244,0.11630639501178873,0.2653955450330103,0.5276476271029575,0.9999981127815838
419,23.154,23.09,-1.37,0.3469993211297742,0.249459321376344,0.11492279859602407,0.2658621284230274,0.5239768875598463,0.9999282322498777
420,23.215,23.14,-1.22,0.34483761785051864,0.25022835101710594,0.11362416029309592,0.2663825085373436,0.5202506495684703,0.9997886804835646
421,23.277,23.2,-1.32,0.3427655704644713,0.251047774692042,0.11241311187241164,0.26695809313438584,0.5164690448546783,0.999577795759707
422,23.319,23.25,-1.39,0.34078523108587677,0.25191848842368175,0.11129226715821373,0.2675902918215391,0.5126322242731728,0.9992939341334741
423,23.38,23.31,-1.3,0.3388986097576781,0.25284139053195204,0.11026421983102333,0.2682805146862877,0.508740358742175,0.9989354710296293
424,23.442,23.36,-1.29,0.33710767292984717,0.253817380621709,0.10933154120527312,0.26903017089451686,0.5047936401928014,0.9985008028445903
425,23.502,23.42,-1.32,0.3354143419422013,0.2548473585355024,0.108496777984861,0.2698406672565534,0.5007922825313623,0.9979883485577945
426,23.584,23.48,-1.34,0.3338204915129057,0.255932223272079,0.10776244999842417,0.2707134067615447,0.49673652261273804,0.9973965513510102
427,23.605,23.53,-1.25,0.33232794823383416,0.2570728718712285,0.10713104791619084,0.2716497870808162,0.49262662122298007,0.9967238802341407
428,23.667,23.58,-1.31,0.3309384890740238,0.2582701982656675,0.10660503095032602,0.27265119904090723,0.48846286406931233,0.9959688316759789
429,23.709,23.64,-1.39,0.3296538398925748,0.2595250921007491,0.10618682454074752,0.2737190250670453,0.48424556277573877,0.9951299312382871
430,23.79,23.69,-1.24,0.32847567396248817,0.26083843752287816,0.10587881802844981,0.27485463759789835,0.479975055882484,0.9942057352115021
431,23.809,23.75,-1.28,0.32740561050707406,0.26221111193759483,0.10568336231844162,0.27605939747251873,0.4756517098475094,0.9931948322503074
432,23.87,23.8,-1.34,0.3264452132506541,0.26364398473838774,0.10560276753446168,0.27733465229048393,0.47127592004834484,0.9920958450072603
433,23.952,23.86,-1.3,0.3255959889852562,0.26513791600744596,0.10563930066767163,0.27868173474635866,0.4668481117825024,0.9909074317626011
434,23.973,23.91,-1.3,0.3248593861549414,0.26669375518971616,0.10579518322155389,0.280101960939718,0.4623687412647913,0.9896282880482623
435,24.035,23.97,-1.37,0.3242367934593696,0.2683123397417432,0.10607258885529705,0.28159662866205126,0.4578382966198989,0.9882571482639969
436,24.097,24.02,-1.43,0.3237295384781581,0.26999449375688467,0.10647364102800375,0.2831670156619364,0.4532572988685897,0.9867927872834861
437,24.139,24.08,-1.34,0.32333888631744917,0.27174102656863475,0.10700041064608277,0.2848143778899883,0.44862630290583894,0.9852340220482527
438,24.221,24.14,-1.44,0.32306603827993846,0.27355273133394337,0.1076549137161995,0.2865399477252111,0.44394589846914406,0.983579713147195
439,24.26,24.19,-1.53,0.3229121305594232,0.2754303835985429,0.10843910900615461,0.2883449321845074,0.4392167110951587,0.9818287663795536
440,24.321,24.25,-1.41,0.3228782329607471,0.27737473984639394,0.10935489571604018,0.29023051111723663,0.43443940306268036,0.979980134299131
441,24.382,24.3,-1.44,0.322965347645888,0.27938653603544034,0.11040411116200176,0.2921978353868413,0.42961467431990713,0.9780328177375934
442,24.422,24.35,-1.5,0.32317440790685,0.2814664861219355,0.11158852847490312,0.29424802504171377,0.42474326339376045,0.9759858673047184
443,24.484,24.41,-1.49,0.3235062769659396,0.28361528057573854,0.11290985431613525,0.2963821674776645,0.4198259482789848,0.973838384863478
444,24.546,24.46,-1.46,0.3239617468039655,0.2858335848891468,0.11436972661277495,0.29860131559454,0.41486354730471253,0.9715895249778537
445,24.609,24.52,-1.52,0.3245415370169375,0.28812203808198034,0.11596971231430366,0.30090648594967717,0.40985691997617063,0.9692384963312817
446,24.69,24.57,-1.58,0.3252462937019209,0.29048125120575125,0.11771130517312273,0.3032986569109857,0.40480696778917674,0.9667845631136708
447,24.71,24.63,-1.46,0.32607658837279674,0.29291180584983006,0.11959592355113013,0.30577876681255056,0.39971463501502935,0.9642270463749968
448,24.752,24.68,-1.55,0.32703291690680597,0.2954142526525401,0.12162490825465241,0.3083477121157345,0.39458090945334817,0.9615653253435392
449,24.813,24.74,-1.66,0.3281156985228943,0.2979891098200832,0.12379952040005962,0.3110063455788338,0.38940682315036296,0.95879883870689
450,24.856,24.8,-1.56,0.32932527479299306,0.3006368616561597,0.12612093931242324,0.31375547443841084,0.3841934530801069,0.9559270858539198
451,24.915,24.85,-1.61,0.33066190868748885,0.30335795710508434,0.12859026045964925,0.31659585860546113,0.3789419217859078,0.9529496280759394
452,24.976,24.91,-1.66,0.3321257836562174,0.3061528083111077,0.13120849342460308,0.31952820887956224,0.37365339797948044,0.9498660897253612
453,25.078,24.96,-1.66,0.33371700274628796,0.30902178919661316,0.13397655991780483,0.322553185184134,0.3683290970948187,0.9466761593302663
454,25.099,25.01,-1.6,0.3354355877579095,0.31196523406187543,0.1368952918333084,0.3256713948259241,0.3629702817940059,0.9433795906633505
455,25.141,25.07,-1.65,0.33728147843924433,0.314983436209099,0.13996542935041828,0.32888339078179046,0.35757826242200913,0.9399762037637948
456,25.203,25.12,-1.7,0.33925453172118847,0.3180766465934815,0.14318761908394304,0.33218967001578575,0.35215439740748056,0.9364658859106711
457,25.265,25.18,-1.51,0.3413545209929152,0.3212450725040401,0.146562412285722,0.33559067182949376,0.3467000936065804,0.9328485925465496
458,25.307,25.23,-1.59,0.3435811354190638,0.32448887627690864,0.1500902631002007,0.33908677624851036,0.34121680658686127,0.9291243481500078
459,25.37,25.29,-1.66,0.3459339792995653,0.32780817404377344,0.15377152687685403,0.34267830244793546,0.3357060408483221,0.9252932470557552
460,25.412,25.34,-1.56,0.348412571473244,0.33120303451810573,0.15760645854227734,0.3463655072197372,0.3301693499788509,0.9213554542210769
461,25.475,25.4,-1.58,0.3510163447665378,0.33467347782181206,0.1615952110348041,0.35014858348483346,0.3246083367414162,0.9173112059372515
462,25.557,25.45,-1.59,0.35374464548892187,0.33821947435483685,0.16573783380456833,0.3540276588526747,0.31902465309047917,0.913160810484595
463,25.578,25.51,-1.6,0.3565967329768316,0.3418409437101452,0.1700342713819705,0.3580027942310636,0.31342000011517795,0.9089046487297956
464,25.62,25.57,-1.52,0.3595717791880441,0.34553775363642925,0.1744843620175405,0.3620739824889089,0.30779612790694283,0.9045431746642207
465,25.701,25.62,-1.56,0.3626688683486498,0.34930971905077957,0.1790878363962492,0.3662411471745508,0.3021548353493147,0.9000769158818762
466,25.743,25.67,-1.64,0.36588699665488383,0.3531566011034608,0.18384431642938848,0.37050414129222575,0.2964979698278674,0.8955064739956777
467,25.783,25.73,-1.48,0.3692250720321738,0.35707810629683306,0.1887533141271916,0.3748627461391634,0.29082742685826785,0.8908325249906589
468,25.844,25.78,-1.56,0.3726819139537756,0.36107388566036336,0.1938142305554025,0.379316670205732,0.2851451496306397,0.8860558195126852
469,25.905,25.84,-1.61,0.37625625332130913,0.3651435339835995,0.19902635487900275,0.38386554814100093,0.2794531284685202,0.8811771830911923
470,25.966,25.89,-1.52,0.37994673240937193,0.369286589108936,0.20438886349625943,0.38850893978606904,0.27375340020083205,0.8761975162944368
471,26.029,25.95,-1.52,0.3837519048763093,0.3735025312859471,0.20990081926620688,0.39324632927749315,0.2680480474454416,0.8711177948157001
472,26.07,26.0,-1.53,0.3876702358432194,0.3777907825889491,0.2155611708326397,0.3980771242230889,0.2623391978030178,0.8659390694888819
473,26.152,26.06,-1.55,0.391700102043332,0.38215070639934257,0.2213687520476619,0.4030006549522891,0.2566290229600642,0.8606624662319392
474,26.193,26.11,-1.45,0.39583979204396624,0.38658160695420396,0.2273222814978107,0.40801617384316985,0.2509197377001888,0.8552891859166483
475,26.256,26.17,-1.51,0.4000875065433638,0.3910827289625282,0.2334203621357646,0.41312285472814997,0.24521359882289953,0.8498205041631915
476,26.316,26.23,-1.6,0.40444135874477855,0.3956532572904452,0.23966148102062765,0.418319792380262,0.23951290396941818,0.8442577710580916
477,26.338,26.28,-1.44,0.4088993748102675,0.4002923167166374,0.2460440091697541,0.42360600208177623,0.23381999035522788,0.8386024107940306
478,26.398,26.33,-1.51,0.4134594943966872,0.4049989717590651,0.2525662015250398,0.42898041927683656,0.228137233409264,0.8328559212301204
479,26.458,26.39,-1.58,0.4181195712764015,0.4097722265739875,0.2592261970365443,0.4344418993096657,0.22246704531983558,0.8270198733712432
480,26.521,26.44,-1.52,0.4228773740451252,0.41461102492819707,0.26602201886620835,0.43998921724985296,0.21681187348753703,0.8210959107651447
481,26.582,26.5,-1.53,0.42773058691921384,0.41951425024532496,0.2729515747143101,0.44562106780620286,0.21117419888560118,0.8150857488160137
482,26.623,26.55,-1.57,0.4326768106245799,0.4244807257269906,0.2800126572711968,0.4513360653305614,0.20555653432831128,0.808991174013336
483,26.684,26.61,-1.6,0.43771356337920564,0.4295092145495092,0.2872029447966839,0.4571327439129836,0.19996142264824288,0.8028140430749018
484,26.745,26.66,-1.49,0.4428382819708986,0.43459842013685324,0.2945200018293318,0.46300955756957934,0.19439143478324789,0.7965562820029285
485,26.787,26.72,-1.56,0.44804832293159863,0.43974698651054783,0.30196128002759537,0.46896488052437213,0.18884916777425145,0.7902198850523553
486,26.827,26.77,-1.64,0.45334096380925,0.44495349871712764,0.3095241191446168,0.47499700758647495,0.18333724267510199,0.7838069136104596
487,26.888,26.83,-1.51,0.4587134045380411,0.45021648333371816,0.3172057481382107,0.48110415462384726,0.177858302375916,0.7773194949870422
488,26.95,26.89,-1.54,0.4641627689076962,0.45553440905221965,0.3250032864173937,0.487284459134817,0.17241500934156737,0.7707598211145528
489,26.991,26.94,-1.6,0.46968610613237544,0.46090568734252113,0.33291374522662087,0.4935359809184685,0.1670100432671695,0.7641301471576938
490,27.053,27.0,-1.58,0.47528039251954474,0.4663286731951814,0.34093402916866855,0.49985670284494166,0.16164609865261564,0.7574327900322133
491,27.114,27.05,-1.55,0.4809425332389378,0.47180166594404765,0.3490609378668745,0.5062445317266394,0.15632588229848707,0.7506701268327556
492,27.176,27.1,-1.62,0.486669364191553,0.4773229101692626,0.35729116776723596,0.5126972992912502,0.15105211072587485,0.7438445931697996
493,27.26,27.16,-1.65,0.492457653978452,0.4828905966810621,0.3656213140806595,0.5192127632574053,0.14582750752287296,0.7369586814159209
494,27.281,27.21,-1.53,0.4983041059689229,0.4885028635847191,0.37404787286543556,0.5257886085137067,0.14065480062068694,0.7300149388618434
495,27.323,27.27,-1.64,0.5042053604673544,0.4941577974269295,0.3825672432497947,0.532422448401774,0.13553671950249233,0.7230159657829798
496,27.386,27.32,-1.73,0.5101579969779194,0.4998534344238655,0.3911757297941757,0.5391118261038399,0.13047599234836643,0.7159644134173848
497,27.449,27.38,-1.62,0.5161585365658795,0.5055877617710549,0.3998695449925971,0.5458542161352781,0.12547534311981726,0.7088629818562605
498,27.512,27.43,-1.65,0.5222034443140013,0.5113587190351598,0.40864481191229046,0.552647025942288,0.12053748858762356,0.7017144178483661
499,27.554,27.49,-1.7,0.5282891318722053,0.5171641996276427,0.41749756697048646,0.5594875976047934,0.11566513530684845,0.6945215125199476
500,27.659,27.55,-1.68,0.5344119600981198,0.5230020523602336,0.42642376284692624,0.5663732096444822,0.11086097654304433,0.6872870990120643
501,27.68,27.6,-1.65,0.5405682417857987,0.52887008308205,0.4354192715303364,0.5733010789378065,0.10612768915386649,0.6800140500374385
502,27.721,27.66,-1.69,0.5467542444795633,0.5347660563980959,0.4444798874967888,0.5802683627336161,0.10146793043053226,0.6727052753592172
503,27.783,27.71,-1.73,0.5529661933697965,0.540687697468673,0.4536013310175761,0.5872721607749226,0.09688433490379261,0.6653637191943168
504,27.823,27.76,-1.59,0.559200274267454,0.546632693889026,0.4627792515939539,0.5943095175240747,0.09237951111931895,0.6579923575443354
505,27.884,27.82,-1.68,0.565452636654078,0.5525986976482932,0.47200923151582774,0.6013774244904135,0.08795603838766572,0.6505941954573125
506,27.945,27.87,-1.76,0.5717193968040947,0.558583327166577,0.48128678954117765,0.6084728226592245,0.08361646351423957,0.6431722642239169
507,27.987,27.93,-1.66,0.5779966409761712,0.564584169408698,0.49060738469272214,0.6155926050205806,0.07936329751500051,0.6357296185119424
508,28.048,27.98,-1.69,0.5842804286704014,0.5705987820729116,0.4999664201680444,0.6227336191964099,0.07519901232390218,0.6282693334432737
509,28.109,28.04,-1.73,0.5905667959480904,0.5766246958525589,0.5093592473591372,0.6298926701638216,0.07112603749831992,0.6207945016178249
510,28.15,28.09,-1.73,0.5968517588108341,0.5826594167683127,0.518781169977031,0.6370665230724224,0.06714675692893633,0.6133082300893018
511,28.212,28.15,-1.68,0.603131316635469,0.588700428568397,0.5282274482768706,0.6442519061530683,0.06326350556079668,0.6058136372979758
512,28.272,28.2,-1.76,0.6094014556613346,0.5947451951938414,0.5376933033784965,0.6514455137151786,0.05947856613250521,0.5983138499659764
513,28.374,28.26,-1.83,0.6156581525261374,0.600791163305518,0.5471739216772875,0.6586440092294097,0.05579416594078519,0.5908119999609145
514,28.394,28.32,-1.67,0.621897377846473,0.6068357648693857,0.5566644593396674,0.6658440284921562,0.05221247363786986,0.5833112211339536
515,28.436,28.37,-1.76,0.6281150998387841,0.6128764197960633,0.5661600468773209,0.6730421828680029,0.048735596069416305,0.5758146461387286
516,28.496,28.42,-1.83,0.6343072879762159,0.6189105386305568,0.5756557937937763,0.680235062605925,0.04536557516084923,0.5683254032377764
517,28.557,28.48,-1.75,0.6404699166765349,0.6249355252876987,0.5851467932966243,0.6874192402247171,0.042104384860282666,0.5608466131033542
518,28.618,28.53,-1.8,0.6465989690161152,0.6309487798285645,0.5946281270682933,0.6945912739627781,0.038953928146431026,0.5533813856196612
519,28.679,28.59,-1.84,0.6526904404649576,0.6369477012727831,0.6040948700879877,0.7017477112869759,0.03591603411016551,0.5459328166936195
520,28.74,28.64,-1.87,0.6587403426376861,0.6429296904413178,0.6135420954970773,0.7088850924548981,0.032992455118581544,0.5385039850815111
521,28.782,28.7,-1.92,0.6647447070554278,0.6488921528239825,0.6229648794999013,0.7159999541243878,0.03018486407064569,0.5310979492389329
522,28.822,28.75,-2.16,0.6706995889134548,0.6548325014656488,0.6323583062916338,0.7230888330038612,0.027494851753663754,0.5237177442016836
523,28.883,28.81,-2.41,0.6766010708494562,0.6607481598647704,0.64171747300455,0.7301482695364929,0.02492392430989335,0.5163663785053364
524,28.923,28.86,-2.45,0.6824452667072554,0.6666365648775541,0.6510374946637284,0.7371748116109692,0.022473500822511837,0.5090468311512992
525,28.984,28.92,-2.67,0.6882283252907068,0.6724951696208801,0.6603135091429858,0.7441650182911723,0.020144911029778546,0.5017620486270599
526,29.045,28.98,-2.87,0.6939464341023296,0.6783214463670226,0.669540682111647,0.7511154635569273,0.01793939317557882,0.49451494198799695
527,29.087,29.03,-2.96,0.6995958230609762,0.6841128894233465,0.6787142119626587,0.7580227400478244,0.01585809200373894,0.4873083840076422
528,29.15,29.08,-3.1,0.7051727681925932,0.6898670179903936,0.6878293347125591,0.7648834628020854,0.013902056902643645,0.48014520640263264
529,29.21,29.14,-3.23,0.7106735952879949,0.6955813789919576,0.6968813288639355,0.771694272982388,0.012072240205821521,0.4730281971379327
530,29.252,29.19,-3.34,0.716094683521488,0.7012535498709158,0.7058655202211763,0.7784518415805535,0.010369495653283363,0.4659600978172689
531,29.314,29.25,-3.34,0.7214324690241336,0.7068811413447561,0.7147772866505453,0.7851528730930469,0.008794577017568882,0.45894360116313687
532,29.374,29.3,-3.46,0.7266834484054686,0.712461800114916,0.7236120627758673,0.7917941091593415,0.007348136897660031,0.45198134859019296
533,29.496,29.36,-3.64,0.7318441822176434,0.7179932115242312,0.7323653446014148,0.7983723321553077,0.006030725683195263,0.445075927875336
534,29.517,29.41,-3.56,0.7369112983561559,0.7234731021569936,0.741032694053895,0.8048843687339339,0.0048427906907461795,0.4382298709273172
535,29.557,29.47,-3.67,0.7418814953916939,0.7288992423763143,0.7496097434357673,0.8113270933058424,0.0037846754732649124,0.43144565165830956
536,29.6,29.52,-3.74,0.7467515458279402,0.7342694487937126,0.758092199782464,0.8176974314522508,0.0028566193031484928,0.4247256839595577
537,29.663,29.58,-3.71,0.7515182992804861,0.7395815866661332,0.7664758491164383,0.8239923632632824,0.0020587568287373874,0.4180723197829526
538,29.724,29.64,-3.73,0.7561786855722678,0.7448335722159319,0.77475656059134,0.8302089265948182,0.0013911179034952399,0.41148784733007165
539,29.765,29.69,-3.76,0.7607297177412558,0.7500233748696622,0.7829302905200521,0.8363442202373861,0.0008536275866187447,0.40497448934988756
540,29.849,29.75,-3.81,0.7651684949564047,0.7551490194118021,0.7909930862807144,0.8423954069909206,0.0004461063133756279,0.3985344015460158
541,29.868,29.8,-3.72,0.769492205338068,0.7602085880499014,0.7989410900952065,0.8483597166396515,0.00016827023307500953,0.39216967109403283
542,29.909,29.85,-3.8,0.7736981286792505,0.765200222387965,0.8067705426748736,0.8542344488218179,1.9731712214991815e-05,0.38588231526908895
543,29.971,29.91,-3.87,0.7777836390641706,0.7701221253051966,0.8144777867285762,0.8600169757893464,0.0,0.37967428018375565
544,30.033,29.96,-3.74,0.7817462073807079,0.7749725627375119,0.8220592703284673,0.8657047450530262,0.00010848205309352233,0.37354743963578385
545,30.094,30.02,-3.78,0.7855834037234057,0.7797498653594661,0.8295115501292492,0.8712952819090566,0.00034448351614166356,0.3675035940652075
546,30.136,30.07,-3.8,0.7892928996837942,0.7844524301644503,0.8368312944370377,0.8767861918431656,0.00070720985427968,0.3615444696200076
547,30.237,30.13,-3.75,0.7928724705248363,0.7890787219412672,0.8440152861242868,0.8821751628088103,0.0011957676335351544,0.3556717173293374
548,30.257,30.18,-3.69,0.796319997236397,0.7936272746454427,0.851060425387578,0.8874599673763108,0.001809165944811717,0.34988691238308767
549,30.298,30.24,-3.71,0.7996334684689044,0.7980966926638395,0.8579637323454349,0.8926384647500656,0.0025463179669418475,0.34419155351636305
550,30.36,30.3,-3.7,0.802810982342717,0.8024856519713456,0.8647223494736624,0.8977086026513319,0.0034060426641175662,0.33858706249726744
551,30.421,30.35,-3.58,0.8058507481310616,0.8067929011786669,0.8713335438760014,0.90266841906448,0.0043870666128784245,0.3330747837162227
552,30.462,30.41,-3.63,0.8087510878147303,0.8110172624705256,0.8777947093881561,0.9075160438450762,0.005488025953727464,0.3276559838748653
553,30.565,30.46,-3.67,0.8115104375070222,0.8151576324338234,0.8841033685135297,0.9122497001885878,0.006707468462353024,0.3223318517723939
554,30.585,30.51,-3.54,0.8141273487476891,0.8192129827755946,0.8902571741893098,0.9168677059589199,0.008043855735361335,0.3171034981870847
555,30.626,30.57,-3.56,0.8166004896649123,0.8231823609308179,0.8962539113818927,0.9213684748763437,0.009495565485333007,0.3119719558505653
556,30.687,30.62,-3.58,0.818928646004568,0.8270648905604061,0.9020914985110037,0.9257505175646945,0.011060893939899683,0.30693817951235425
557,30.77,30.68,-3.56,0.821110722026148,0.8308597719399939,0.9077679887021755,0.9300124424580758,0.012738058339413343,0.30200304609211526
558,30.81,30.73,-3.51,0.8231457412647464,0.8345662822404764,0.9132815708675323,0.9341529565676819,0.01452519952767336,0.29716735491700924
559,30.852,30.79,-3.52,0.8250328471585943,0.8381837757015455,0.9186305706151215,0.9381708661096979,0.01642038463006174,0.29243182804148193
560,30.933,30.84,-3.52,0.826771303541688,0.8417116836997377,0.9238134509873358,0.9420650769955535,0.01842160981329824,0.28779711064681224
561,30.953,30.9,-3.36,0.8283604950011173,0.8451495147127505,0.9288288130292215,0.9458345951861222,0.02052680312089211,0.2832637715177498
562,31.014,30.95,-3.4,0.8297999270987697,0.8484968541820044,0.9336753961877138,0.9494785269117237,0.0227338273782741,0.2788323035935721
563,31.076,31.01,-3.42,0.8310892264572279,0.8517533642756188,0.9383520785430598,0.952996078760019,0.0250404831615447,0.2745031245908942
564,31.138,31.07,-3.28,0.8322281407098537,0.8549187835541544,0.9428578768739595,0.9563865576340745,0.027444511823789115,0.27027657769555474
565,31.179,31.12,-3.27,0.8332165383153158,0.8579929265416626,0.9471919465582614,0.9596493705829957,0.029943598572947705,0.26615293232089293
566,31.241,31.17,-3.27,0.8340544082371126,0.86097568320472,0.9513535813113816,0.962784024507637,0.03253537559526098,0.26213238492974317
567,31.301,31.23,-3.22,0.8347418594888703,0.8638670183422995,0.9553422127648702,0.9657901257440208,0.03521742521833914,0.2582150599174997
568,31.364,31.28,-3.16,0.8352791205463975,0.8666669708894847,0.9591574098877564,0.9686673795272671,0.03798728310797256,0.25440101055361997
569,31.405,31.34,-3.17,0.8356665386277105,0.8693756531381421,0.9627988782535054,0.9714155893389993,0.04084244149287348,0.25069021997895724
570,31.466,31.39,-3.17,0.8359045788424788,0.8719932498777332,0.9662664591555805,0.9740346561413687,0.043780352411603045,0.24708260225636725
571,31.527,31.45,-3.03,0.8359938232125504,0.8745200174594999,0.96956012857474,0.9765245775011047,0.04679843097598536,0.243578003472107
572,31.589,31.5,-3.09,0.8359349695653839,0.8769562827873008,0.9726799960013137,0.9788854466072423,0.04989405864535656,0.24017620288562355
573,31.672,31.56,-3.12,0.8357288303023551,0.879302442238415,0.9756263031158463,0.9811174511864144,0.05306458650604084,0.23687691412540232
574,31.692,31.61,-3.0,0.835376331043983,0.8815589605176862,0.9783994223316494,0.9832208723197313,0.05630733855051262,0.233679786428596
575,31.733,31.67,-2.98,0.8348785091542312,0.8837263694483761,0.9809998552029949,0.9851960831653365,0.059619614950753394,0.23058440592219265
576,31.793,31.73,-2.96,0.8342365121461652,0.8858052667030296,0.9834282307028691,0.9870435475907112,0.06299869532033986,0.22759029694353397
577,31.835,31.78,-2.92,0.8334515959713787,0.8877963144775595,0.9856853033743647,0.9887638187187615,0.06644184195983495,0.22469692339805217
578,31.896,31.83,-2.8,0.8325251231957547,0.8897002381116964,0.9877719513599327,0.9903575373916816,0.06994630308014887,0.22190369015213554
579,31.959,31.89,-2.82,0.8314585610643929,0.8915178246588672,0.9896891743129053,0.9918254305565084,0.07350931599867702,0.21920994445905664
580,32.022,31.94,-2.82,0.830253479458862,0.8932499214084934,0.9914380911958374,0.9931683095762069,0.07712811030319264,0.21661497741591376
581,32.063,32.0,-2.7,0.8289115487502169,0.8948974343636475,0.9930199379702915,0.9943870684700583,0.08079991097866442,0.21411802544953912
582,32.126,32.06,-2.69,0.8274345375514849,0.8964613266769749,0.9944360651826942,0.9954826820870778,0.08452194149236342,0.2117182718293353
583,32.167,32.11,-2.67,0.8258243103734779,0.8979426170477681,0.9956879354508787,0.9964562042161623,0.08829142683279716,0.20941484820503659
584,32.231,32.17,-2.58,0.8240828251878831,0.8993423780831333,0.9967771208558919,0.9973087656367007,0.09210559649819108,0.20720683616743643
585,32.292,32.22,-2.58,0.8222121309016504,0.9006617346262171,0.9977053002436423,0.9980415721134067,0.09596168743044997,0.20509326883014078
586,32.332,32.28,-2.57,0.8202143647468251,0.9019018620544417,0.9984742564410044,0.9986559023391336,0.09985694689075952,0.20307313243039385
587,32.414,32.33,-2.56,0.8180917495901134,0.9030639845506114,0.9990858733910492,0.9991531058293709,0.10378863527321296,0.2011453679470024
588,32.476,32.39,-2.48,0.8158465911665994,0.9041493733496215,0.9995421332121563,0.9995346007720417,0.10775402885304805,0.19930887273336542
589,32.497,32.44,-2.52,0.8134812752421584,0.9051593449633231,0.9998451131858475,0.9998018718361047,0.11175042246624922,0.1975625021636101
590,32.557,32.5,-2.53,0.8109982647091706,0.9060952593859146,0.9999969826782357,0.9999564679423858,0.11577513211741333,0.19590507128984294
591,32.62,32.55,-2.41,0.8084000966201028,0.9069585182820687,1.0,1.0,0.11982549751291743,0.19433535650853062
592,32.68,32.6,-2.41,0.8056893791634512,0.9077505631598579,0.9998565092097842,0.999934138611649,0.12389888451654826,0.19285209723405133
593,32.782,32.66,-2.42,0.8028687885864748,0.9084728735304064,0.9995689368658949,0.9997606117509944,0.12799268752487028,0.19145399757751613
594,32.803,32.72,-2.3,0.7999410660691268,0.9091269650560955,0.9991397887311328,0.9994812024151958,0.1321043317597532,0.19013972802903162
595,32.844,32.77,-2.28,0.7969090145536237,0.9097143876890659,0.9985716464355422,0.9990977462556089,0.136231275475681,0.18890792714163335
596,32.907,32.83,-2.27,0.7937754955341974,0.9102367238016863,0.9978671641018156,0.998612129189512,0.14037101207968936,0.1877572032151638
597,32.969,32.88,-2.26,0.7905434258116947,0.9106955863106122,0.9970290649380523,0.9980262849956344,0.14452107216203453,0.18668613597840594
598,33.009,32.94,-2.16,0.7872157742178296,0.9110926167960158,0.9960601378025374,0.9973421928961657,0.14867902543596612,0.18569327826780768
599,33.071,32.99,-2.2,0.7837955583140664,0.911429483617498,0.994963233745232,0.9965618751278116,0.15284248258524183,0.1847771577011575
600,33.134,33.05,-2.24,0.7802858410702652,0.9117078800281199,0.9937412625306807,0.9956873945043381,0.15700909701825974,0.18393627834460666
601,33.155,33.1,-2.07,0.776689727528307,0.9119295222879238,0.9923971891470648,0.9947208519729341,0.1611765665279058,0.1831691223714718
602,33.216,33.16,-2.13,0.7730103614559579,0.9120961477782319,0.9909340303061278,0.9936643841666053,0.1653426348564086,0.18247415171128809
603,33.278,33.21,-2.16,0.7692509219961963,0.9122095131179596,0.9893548509386629,0.9925201609547695,0.16950509316467227,0.1818498096876192
604,33.319,33.27,-2.09,0.7654146203170714,0.9122713922831802,0.9876627606901333,0.9912903829942726,0.17366178140574703,0.1812945226431301
605,33.422,33.32,-2.07,0.7615046962669697,0.9122835747311785,0.9858609104208897,0.9899772792831343,0.1778105896022907,0.18080670155039988
606,33.442,33.38,-2.09,0.7575244150400069,0.9122478635301733,0.9839524887153672,0.9885831047193194,0.18194945902804918,0.18038474360692647
607,33.505,33.43,-2.08,0.7534770638560655,0.9121660734958136,0.9819407184045823,0.9871101376667926,0.18607638329352727,0.18002703381277507
608,33.545,33.49,-1.96,0.7493659486597671,0.9120400293355252,0.9798288531061549,0.9855606775310584,0.19018940933618006,0.17973194652932806
609,33.607,33.54,-2.0,0.745194390842434,0.9118715638017941,0.9776201737859623,0.9839370423463456,0.19428663831563045,0.17949784701760044
610,33.648,33.6,-2.08,0.7409657239909521,0.9116625158554775,0.9753179853454209,0.9822415663765433,0.19836622641460844,0.17932309295460108
611,33.711,33.65,-1.93,0.7366832906673666,0.9114147288402358,0.9729256132382629,0.9804765977319225,0.20242638554651915,0.1792060359262468
612,33.772,33.71,-1.96,0.7323504392230509,0.9111300486691509,0.9704464001205899,0.9786444960035959,0.20646538397073716,0.17914502289538445
613,33.814,33.76,-2.0,0.7279705206513107,0.9108103220245706,0.9678837025378774,0.9767476299175928,0.2104815468168721,0.17913839764356182
614,33.875,33.82,-1.94,0.7235468854822552,0.9104573945722335,0.9652408876524731,0.9747883750104092,0.2144732565194017,0.17918450218526846
615,33.937,33.87,-1.93,0.7190828807237095,0.9100731091907747,0.962521330015029,0.972769111327863,0.21843895316422693,0.17928167815341756
616,33.997,33.92,-1.96,0.7145818468518963,0.9096593042177239,0.9597284083832034,0.9706922211490435,0.22237713474887144,0.17942826815487328
617,34.037,33.98,-2.0,0.7100471148554633,0.9092178117131522,0.9568655025908656,0.968560086737098,0.22628635735819028,0.17962261709487568
618,34.099,34.03,-1.91,0.7054820033362035,0.9087504557422038,0.9539359904708772,0.9663750881186175,0.2301652352575682,0.17986307346926877
619,34.16,34.09,-1.99,0.7008898156695066,0.9082590506778334,0.9509432448343381,0.9641396008934264,0.23401244090567808,0.18014799062350076
620,34.242,34.15,-2.05,0.6962738372272713,0.9077453995251377,0.947890630508992,0.9618559940766088,0.23782670488892516,0.18047572797743366
621,34.263,34.2,-1.91,0.6916373326656564,0.9072112922687168,0.9447815014393051,0.9595266279746415,0.24160681577973944,0.18084465221507465
622,34.326,34.26,-1.93,0.6869835432796826,0.9066585042445383,0.941619197850554,0.9571538520974954,0.24535161992090168,0.1812531384384174
623,34.367,34.31,-1.96,0.6823156844263019,0.9060887945378153,0.9384070434790869,0.9547400031085709,0.24906002113811204,0.18169957128467903
624,34.428,34.37,-1.94,0.6776369430171278,0.9055039044084962,0.9351483428707023,0.952287402814364,0.25273098038307035,0.18218234600629943
625,34.491,34.42,-1.91,0.6729504750816517,0.9049055557460505,0.9318463787488539,0.9497983561958152,0.2563635153094586,0.1826998695131263
626,34.532,34.48,-1.96,0.66825940340159,0.9042954495552928,0.9285044094541823,0.9472751494833217,0.25995669978433533,0.18325056137627485
627,34.614,34.53,-1.98,0.6635668152169106,0.903675264475011,0.9251256664566931,0.9447200482773739,0.2635096633375409,0.18383285479324932
628,34.697,34.59,-1.87,0.6588757600040651,0.9030466553312053,0.9217133519417383,0.9421352957167732,0.2670215905517717,0.1844451975140291
629,34.717,34.64,-1.95,0.6541892473269545,0.9024112517267557,0.9182706364708262,0.9395231106963355,0.27049172039603486,0.1850860527279397
630,34.759,34.7,-2.02,0.6495102447611593,0.9017706566693324,0.914800656718173,0.9368856861359174,0.2739193455052279,0.18575389991124214
631,34.821,34.75,-1.93,0.6448416758919246,0.901126445239364,0.911306513283808,0.9342251873025402,0.2773038114086346,0.18644723563547064
632,34.862,34.81,-1.96,0.6401864183863402,0.900480163299863,0.9077912685839635,0.9315437501873005,0.28064451571014787,0.18716457433663763
633,34.924,34.86,-2.01,0.6355473021400494,0.8998333262498868,0.9042579448193933,0.9288434799386699,0.2839409072230109,0.18790444904552242
634,34.985,34.92,-2.03,0.630927107498594,0.8991874178234486,0.9007095220221039,0.9261264493537843,0.28719248506182354,0.18866541207935406
635,35.046,34.97,-2.01,0.6263285635531758,0.8985438889357547,0.8971489361807902,0.923394697429344,0.2903987976945269,0.18944603569526236
636,35.109,35.03,-2.06,0.6217543465103108,0.8979041565786662,0.8935790774450746,0.9206502279737687,0.29355944195701783,0.19024491270593322
637,35.15,35.08,-2.09,0.6172070781345664,0.8972696027672395,0.8900027884084907,0.917895008282215,0.29667406203295055,0.1910606570579939
638,35.213,35.14,-1.97,0.6126893242632895,0.8966415735391107,0.8864228624700156,0.9151309678759898,0.29974234840116804,0.19189190437375958
639,35.316,35.19,-2.04,0.6082035933920186,0.8960213780083585,0.8828420422738387,0.912359997307786,0.3027640367530988,0.1927373124570759
640,35.357,35.25,-2.1,0.6037523353291204,0.8954102874753471,0.8792630182269515,0.9095839470340414,0.30573890688238503,0.19359556176408368
641,35.378,35.3,-2.0,0.5993379399181423,0.8948095345939375,0.8756884270940456,0.9068046263555966,0.30866678154898436,0.1944653558398058
642,35.42,35.35,-2.03,0.5949627358264488,0.89422031259735,0.8721208506691727,0.9040238024276581,0.31154752531997454,0.19534542172151598
643,35.481,35.41,-2.06,0.5906289893988684,0.8936437745838208,0.868562814523615,0.9012431993398707,0.31438104338925466,0.1962345103099258
644,35.522,35.47,-2.05,0.586338903575209,0.8930810328630733,0.8650167868293808,0.8984644972671165,0.317167280378297,0.19713139670930369
645,35.582,35.52,-2.0,0.5820946168705794,0.8925331583645332,0.861485177257676,0.8956893316915319,0.3199062191200664,0.19803488053770238
646,35.643,35.58,-2.06,0.5778982024175823,0.892001180108092,0.8579703359516424,0.8929192926961098,0.3225978794282018,0.198943786208521
647,35.705,35.63,-2.1,0.5737516670695885,0.8914860847380903,0.85447455257259,0.8901559243301286,0.3252423168535106,0.1998569631846745
648,35.767,35.69,-1.99,0.5696569505644504,0.8909888161210419,0.8510000554188948,0.8874007240465102,0.32783962142978623,0.2007732862066692
649,35.829,35.74,-2.08,0.5656159247481253,0.8905102750074638,0.8475490106166825,0.8846551422110669,0.3303899164108952,0.2016916554958965
650,35.869,35.8,-2.13,0.5616303928576935,0.8900513187580413,0.8441235213813553,0.8819205816834603,0.33289335700099737,0.20261099693445894
651,35.951,35.85,-2.05,0.5577020888631345,0.8896127611342539,0.840725627348956,0.8791983974695706,0.3353501290796741,0.2035302622228353
652,35.971,35.91,-2.06,0.5538326768670724,0.8891953721534798,0.8373573039763388,0.8764898964448323,0.33776044792364257,0.20444842901667146
653,36.013,35.96,-2.05,0.550023750561586,0.8887998780084125,0.8340204620091031,0.8737963371478952,0.34012455692661775,0.2053645010439859
654,36.075,36.02,-2.03,0.5462768327410863,0.8884269610504544,0.8307169470162256,0.8711189296438068,0.3424427263187831,0.20627750820409185
655,36.137,36.07,-1.96,0.5425933748702371,0.8880772598365908,0.827448538990272,0.8684588354557851,0.3447152518872846,0.20718650664952418
656,36.198,36.13,-2.01,0.5389747567060126,0.8877513692390997,0.8242169520120393,0.8658171675645372,0.3469424536991668,0.20809057885220267
657,36.258,36.18,-2.05,0.5354222859731868,0.887449840617283,0.8210238339784653,0.8631949904739752,0.34912467482820714,0.20898883365497786
658,36.299,36.24,-1.9,0.531937198092771,0.8871731820502609,0.8178707663926297,0.8605933203420831,0.3512622800871433,0.20988040630960894
659,36.36,36.29,-1.97,0.5285206559631073,0.8869218586297383,0.8147592642146416,0.8580131251756253,0.35335565476680847,0.21076445850214218
660,36.443,36.35,-2.02,0.52517374979344,0.8866962928115811,0.8116907757721864,0.8554553250873296,0.3554052033836868,0.21164017836660173
661,36.462,36.4,-1.94,0.5218974969898157,0.8864968648250181,0.8086666827294563,0.8529207926141446,0.3574113484374022,0.2125067804878447
662,36.523,36.46,-1.97,0.5186928420931926,0.8863239131382706,0.8056883001131885,0.8504103530951054,0.3593745291796633,0.21336350589435962
663,36.584,36.51,-2.0,0.5155606567697087,0.8861777349793285,0.8027568763945319,0.8479247851072396,0.361295200396161,0.21420962204172686
664,36.647,36.57,-2.01,0.5125017398530811,0.8860585869104882,0.7998735936254326,0.8454648209578789,0.3631738312028537,0.21504442278742184
665,36.708,36.62,-1.94,0.5095168174390701,0.8859666854551773,0.7970395676281806,0.8430311472316949,0.365010903858004,0.21586722835760605
666,36.75,36.67,-2.0,0.5066065430318777,0.8859022077754881,0.7942558482367487,0.8406244053907395,0.3668069125912469,0.2166773853065012
667,36.812,36.73,-2.06,0.503771497742243,0.8858652923987337,0.7915234195885628,0.8382451924256943,0.3685623624508751,0.21747426646888754
668,36.872,36.78,-1.9,0.5010121905368655,0.8858560399912322,0.7888432004653347,0.8358940615564643,0.3702777681704369,0.2182572709062092
669,36.892,36.84,-1.97,0.4983290585386914,0.8858745141774084,0.7862160446815911,0.833571522980154,0.3719536530556486,0.2190258238467266
670,36.953,36.9,-2.01,0.4957224673775398,0.8859207424022036,0.7836427415195246,0.8312780446643824,0.37359054789253215,0.21977937662013988
671,37.014,36.95,-1.93,0.49319271159055295,0.885994716834723,0.781124016208775,0.8290140531838336,0.3751889898776357,0.22051740658708321
672,37.075,37.01,-1.94,0.4907400150720444,0.8860963953109781,0.7786605304497497,0.826779934597889,0.3767495215711671,0.22123941706384245
673,37.134,37.06,-1.95,0.4883645315725104,0.8862257023134575,0.7762528829791375,0.8245760353670909,0.3782726898738445,0.22194493724259765
674,37.175,37.12,-1.96,0.48606634524676495,0.8863825299851141,0.7739016101763078,0.8224026633060987,0.3797590450282211,0.2226335221074609
675,37.237,37.17,-1.89,0.4838454712513048,0.8865667391752529,0.771607186709322,0.8202600885707286,0.3812091396452125,0.22330475234654276
676,37.3,37.23,-1.95,0.48170185639113683,0.8867781605147133,0.7693700262193447,0.8181485446766099,0.3826235277565291,0.22395823426023972
677,37.36,37.28,-2.02,0.4796353798163909,0.8870165955176526,0.7671904820422906,0.816068229546915,0.3840027638936781,0.22459359966589457
678,37.421,37.34,-1.88,0.4776458537690637,0.8872818177071782,0.765068847966598,0.8140193065865713,0.3853474021941501,0.22521050579894208
679,37.462,37.39,-1.95,0.47573302438022536,0.8875735737620094,0.7630053590260742,0.8120019057802951,0.3866579955353189,0.22580863521062136
680,37.543,37.45,-2.0,0.4738965725179178,0.8878915846813183,0.761000192326799,0.8100161248117221,0.38793509469647824,0.2263876956623194
681,37.563,37.5,-1.91,0.4721361146857509,0.8882355469649148,0.759053467907095,0.8080620302008817,0.38917924754933186,0.22694742001658136
682,37.624,37.56,-1.9,0.4704512039719502,0.8886051338059798,0.7571652496295889,0.8061396584572383,0.3903909982771743,0.22748756612476856
683,37.684,37.61,-1.9,0.4688413310484454,0.8889999962935272,0.7553355461044285,0.8042490172454656,0.3915708866229325,0.2280079167112853
684,37.746,37.67,-1.91,0.4673059252195199,0.8894197646217377,0.7535643116427497,0.8023900865610968,0.39271944716618223,0.22850827925424932
685,37.787,37.72,-1.81,0.4658443555195499,0.8898640493033028,0.751851447239484,0.8005628199132154,0.3938372086292489,0.2289884858624301
686,37.91,37.78,-1.86,0.464455931859443,0.8903324423839472,0.7501968015846078,0.7987671455114186,0.3949246932125231,0.2294483931482231
687,37.931,37.83,-1.92,0.46313990622150086,0.8908245186553416,0.748600172101939,0.7970029674543307,0.39598241595914974,0.22988788209637986
688,37.951,37.89,-1.78,0.4618954739025156,0.8913398368636892,0.7470613060146167,0.7952701669170061,0.3970108841492781,0.23030685792817004
689,37.993,37.94,-1.83,0.4607217748050195,0.8918779409113303,0.7455799014364336,0.7935686033345978,0.39801059672406075,0.23070524996062197
690,38.054,38.0,-1.87,0.4596178947766647,0.8924383610487762,0.7441556084882268,0.7918981155797443,0.3989820437395734,0.23108301146048013
691,38.115,38.05,-1.81,0.4585828669976794,0.8930206150547002,0.742788030438534,0.7902585231312379,0.399925705850808,0.2314401194924995
692,38.177,38.1,-1.82,0.45761567341626874,0.8936242094015362,0.7414767248677375,0.7886496272316348,0.400842053825893,0.23177657476164729
693,38.217,38.16,-1.85,0.45671524623175086,0.8942486404044178,0.7402212048549562,0.7870712120315353,0.40173154809067385,0.23209240144873036
694,38.278,38.22,-1.87,0.45588046942508187,0.8948933953512553,0.739020940186973,0.7855230457183128,0.4025946383037405,0.23238764703893866
695,38.34,38.27,-1.78,0.4551101803361851,0.895557953611848,0.7378753585884669,0.7840048816271871,0.40343176296191796,0.23266238214277568
696,38.381,38.33,-1.83,0.4544031712872097,0.8962417877240201,0.7367838469727699,0.7825164593326768,0.4042433490361713,0.23291670030883607
697,38.443,38.38,-1.88,0.45375819125055716,0.8969443644548464,0.7357457527123014,0.7810575057186019,0.4050298116378008,0.23315071782787983
698,38.504,38.44,-1.73,0.4531739475602722,0.8976651458350902,0.7347603849277782,0.7796277360249159,0.4057915537147675,0.23336457352764478
699,38.564,38.49,-1.75,0.452649107665271,0.898403590165039,0.7338270157952643,0.7782268548697215,0.4065289657779579,0.23355842855784384
700,38.666,38.55,-1.78,0.45218230092282446,0.8991591529899864,0.732944881870103,0.7768545572448763,0.40724242565717883,0.23373246616482896
701,38.686,38.6,-1.73,0.451772120430659,0.8999312880437221,0.7321131854267229,0.7755105294836917,0.40793229828669175,0.23388689145542993
702,38.726,38.66,-1.72,0.4514171248960107,0.900719448158534,0.7313310958132655,0.7741944501993335,0.4085989355201568,0.23402193114946818
703,38.788,38.71,-1.76,0.4511158405399906,0.9015230861403065,0.7305977508199771,0.7729059911925968,0.4092426759749179,0.23413783332043278
704,38.85,38.77,-1.77,0.4508667630356195,0.9023416556074234,0.7299122580602986,0.7716448183278058,0.4098638449055846,0.2342348671238159
705,38.891,38.82,-1.68,0.4506683594778106,0.9031746117923469,0.7292736963635706,0.7704105923756833,0.41046275410687344,0.2343133225126283
706,38.953,38.88,-1.74,0.4505190703834464,0.9040214123049402,0.7286811171782535,0.7692029698221589,0.4110397018456574,0.2343735099396392
707,39.015,38.93,-1.82,0.4504173117195444,0.9048815178567805,0.7281335459845263,0.7680216036421936,0.41159497282214264,0.23441576004590012
708,39.036,38.99,-1.7,0.4503614769573362,0.9057543929458521,0.727629983715121,0.7668661440378082,0.41212883816007023,0.23444042333511814
709,39.098,39.04,-1.73,0.4503499391499271,0.90663950650111,0.7271694081832378,0.76573623913957,0.4126415554257938,0.23444786983344912
710,39.179,39.1,-1.75,0.45038105303099507,0.9075363324864966,0.7267507755164047,0.7646315356708575,0.4131333686760135,0.234438488734313
711,39.22,39.15,-1.72,0.4504531571317063,0.9084443504641112,0.7263730215950919,0.7635516795743175,0.4136045085338832,0.23441268802786805
712,39.26,39.21,-1.7,0.45056457591277493,0.9093630461163557,0.7260350634948477,0.762496316600063,0.4140551922931841,0.234370894114793
713,39.322,39.26,-1.73,0.45071362190851144,0.910291911726939,0.725735800930676,0.7614650928552741,0.4144856240502582,0.23431355140403437
714,39.383,39.32,-1.75,0.4508985978797417,0.9112304466206712,0.72547411770235,0.7604576553149787,0.41489599486338974,0.23424112189421387
715,39.445,39.37,-1.63,0.4511177989725724,0.9121781575620528,0.7252488831393257,0.7594736522939508,0.4152864829393084,0.23415408473844404
716,39.506,39.42,-1.72,0.45136951488010907,0.9131345591127611,0.7250589535439063,0.7585127338798163,0.41565725384647234,0.23405293579236108
717,39.547,39.48,-1.77,0.4516520320043777,0.9140991739482288,0.7249031736313084,0.7575745523275814,0.4160084607547752,0.23393818714523873
718,39.608,39.53,-1.67,0.45196363561582864,0.9150715331336157,0.7247803779653309,0.7566587624158891,0.4163402447013189,0.23381036663408827
719,39.669,39.59,-1.7,0.4523026120079162,0.9160511763595884,0.7246893923884049,0.7557650217653287,0.416652734881874,0.2336700173406872
720,39.752,39.65,-1.75,0.45266725064431923,0.917037652138437,0.7246290354448733,0.7548929911191536,0.41694604896759946,0.23351769707153955
721,39.793,39.7,-1.74,0.4530558462963185,0.9180305179612229,0.7245981197963623,0.7540423345868824,0.41722029344653416,0.23335397782082917
722,39.813,39.76,-1.71,0.45346670116772436,0.9190293404168525,0.724595453628069,0.7532127198514169,0.41747556398932917,0.23317944521646583
723,39.874,39.81,-1.76,0.45389812700463666,0.9200336952741236,0.7246198420447857,0.7524038183404782,0.41771194583863686,0.2329946979493617
724,39.935,39.87,-1.77,0.4543484471871837,0.9210431675279176,0.7246700884554604,0.7516153053632936,0.41792951422148705,0.2328003471861361
725,39.975,39.92,-1.65,0.4548159988002199,0.9220573514108157,0.724744995945085,0.7508468602136156,0.4181283347838885,0.23259701596551183
726,40.036,39.98,-1.72,0.4552991346798047,0.9230758503714992,0.7248433686326775,0.7500981662402713,0.41830846404682237,0.23238533857872667
727,40.119,40.03,-1.77,0.455796225432181,0.9240982770213335,0.7249640130141068,0.7493689108865466,0.4184699498827433,0.23216595993434017
728,40.139,40.09,-1.65,0.4563056614219518,0.9251242530505871,0.7251057392885009,0.7486587856997888,0.41861283201169563,0.23193953490786995
729,40.201,40.14,-1.66,0.45682585472625953,0.9261534091157708,0.7252673626670012,0.7479674863126496,0.4187371425161562,0.23170672767674502
730,40.262,40.2,-1.69,0.45735524105194986,0.9271853846996203,0.7254477046626598,0.7472947123974164,0.418842906373705,0.23146821104112902
731,40.303,40.25,-1.67,0.4578922816128525,0.9282198279453058,0.7256455943602794,0.7466401675949381,0.41893014200663753,0.23122466573120973
732,40.366,40.31,-1.62,0.4584354649644558,0.9292563954665399,0.7258598696649777,0.7460035594197562,0.4189988618476717,0.23097677970156416
733,40.428,40.36,-1.66,0.45898330879344995,0.9302947521352865,0.7260893785282767,0.7453845991431373,0.41904907292095855,0.23072524741322323
734,40.49,40.42,-1.68,0.45953436165986333,0.9313345708487538,0.7263329801505335,0.7447830016557696,0.4190807774376289,0.23047076910410452
735,40.531,40.47,-1.57,0.46008720468976577,0.9323755322772991,0.7265895461585901,0.7441984853119148,0.41909397340513405,0.23021405004854043
736,40.592,40.53,-1.66,0.4606404532167617,0.9334173245947924,0.726857961757582,0.7436307717567929,0.41908865524964745,0.22995579980667918
737,40.655,40.58,-1.74,0.4611927583706631,0.9344596431929401,0.7271371268559207,0.7430795857389517,0.4190648144508121,0.22969673146457784
738,40.714,40.64,-1.66,0.4617428086117711,0.9355021903810723,0.7274259571625081,0.7425446549093607,0.4190224401881126,0.2294375608658286
739,40.775,40.69,-1.69,0.4622893312091648,0.93654467507293,0.7277233852552635,0.7420257096089501,0.41896151999811654,0.22917900583557424
740,40.856,40.75,-1.73,0.462831093661302,0.9375868124619718,0.7280283616200426,0.741522482646281,0.4188820404417212,0.2289217853978032
741,40.877,40.8,-1.71,0.4633669050570687,0.9386283236867031,0.7283398556589887,0.7410347090669924,0.4187839877804014,0.2286666189868541
742,40.918,40.85,-1.66,0.4638956173752462,0.9396689354875027,0.7286568566673156,0.7405621259166423,0.41866734866034566,0.2284142256540881
743,40.98,40.91,-1.69,0.4644161267203191,0.9407083798563693,0.7289783747775263,0.7401044719984963,0.41853211080328906,0.22816532327071493
744,41.042,40.97,-1.71,0.46492737449264276,0.941746393680928,0.729303441870106,0.7396614876277695,0.41837826370279524,0.22792062772779517
745,41.082,41.02,-1.59,0.46542834849115794,0.9427827183839879,0.729631112449758,0.7392329143837819,0.418205799324729,0.22768085213446332
746,41.144,41.08,-1.67,0.4659180839469972,0.9438170995599418,0.7299604644862638,0.7388184948614823,0.4180147128106741,0.22744670601541217
747,41.248,41.13,-1.73,0.4663956644864095,0.9448492866093843,0.7302906002190439,0.7384179724237883,0.4178050031830776,0.22721889450866303
748,41.269,41.19,-1.65,0.4668602230214422,0.9458790323734968,0.7306206469244969,0.7380310909562018,0.41757667405092863,0.22699811756462945
749,41.31,41.24,-1.68,0.4673109425669106,0.9469060927699156,0.7309497576452542,0.7376575946251079,0.4173297343147704,0.22678506914747584
750,41.372,41.3,-1.71,0.467747056982407,0.9479302264318217,0.7312771118805865,0.7372972276410684,0.4170641988697978,0.22658043643979695
751,41.432,41.35,-1.71,0.46816785163834834,0.9489511943519484,0.7316019162372718,0.73694973402833,0.4167800893057072,0.22638489905168796
752,41.473,41.41,-1.65,0.4685726640052533,0.9499687595331134,0.7319234050402877,0.7366148574017055,0.4164774346019025,0.22619912823529958
753,41.535,41.46,-1.71,0.46896088416558424,0.9509826866468082,0.7322408409027547,0.7362923407519356,0.41615627181660164,0.2260237861059807
754,41.597,41.52,-1.75,0.46933195524755333,0.9519927417013059,0.7325535152545968,0.7359819262405755,0.41581664676833663,0.22585952487111388
755,41.638,41.57,-1.61,0.4696853737802667,0.9529986917206974,0.7328607488294188,0.7356833550054269,0.41545861470829853,0.22570698606773845
756,41.701,41.63,-1.68,0.470020689969507,0.9540003044362039,0.7331618921090927,0.7353963669775138,0.4150822409819498,0.22556679981004152
757,41.783,41.68,-1.73,0.4703375078933549,0.9549973479910843,0.7334563257255315,0.7351207007106045,0.41468760167829694,0.22543958404779002
758,41.803,41.74,-1.64,0.4706354856167629,0.9559895906604363,0.7337434608191035,0.7348560932242916,0.4142747842652104,0.22532594383677249
759,41.844,41.79,-1.67,0.47091433522424214,0.9569768005871779,0.7340227393531785,0.7346022798615958,0.4138438882091845,0.22522647062230955
760,41.946,41.85,-1.67,0.47117382277000236,0.9579587455354183,0.734293634384376,0.7343589941619562,0.41339502557792207,0.22514174153690433
761,41.966,41.9,-1.67,0.4714137681451079,0.9589351926623452,0.7345556502881437,0.7341259677503646,0.4129283216241056,0.2250723187131326
762,42.027,41.96,-1.59,0.47163404486140753,0.9599059083097019,0.734808322939368,0.7339029302433077,0.41244391534871483,0.2250187486128872
763,42.068,42.01,-1.64,0.47183457975222576,0.9608706578158525,0.7350512198477976,0.7336896091720818,0.41194196004225875,0.22498156137408565
764,42.129,42.07,-1.68,0.472015352590047,0.9618292053493451,0.7352839402481675,0.7334857299239239,0.4114226238023181,0.22496127017593334
765,42.19,42.12,-1.53,0.47217639562166064,0.9627813137647857,0.7355061151450002,0.7332910157012976,0.4108860900258335,0.2249583706238051
766,42.231,42.17,-1.61,0.47231779302142507,0.9637267444817296,0.7357174073121334,0.7331051874995932,0.4103325578746176,0.22497334015477533
767,42.352,42.23,-1.66,0.47243968026342675,0.9646652573872246,0.7359175112470726,0.7329279641034341,0.4097622427126058,0.2250066374648011
768,42.373,42.28,-1.58,0.4725422434133373,0.9655966107626113,0.7361061530803072,0.7327590621017543,0.4091753765134106,0.22505870195851224
769,42.412,42.34,-1.59,0.47262571834080935,0.9665205612351139,0.7362830904397902,0.7325981959217582,0.40857220823679746,0.22512995322248341
770,42.473,42.4,-1.59,0.4726903898533333,0.9674368637546399,0.7364481122708588,0.7324450778817724,0.40795300417272196,0.2252207905227892
771,42.534,42.45,-1.6,0.4727365907525433,0.9683452715960562,0.7366010386119354,0.7322994182628989,0.4073180482515687,0.22533159232758904
772,42.575,42.51,-1.51,0.47276470081403765,0.9692455363871063,0.7367417203263852,0.7321609253993139,0.40666764231925556,0.22546271585543615
773,42.617,42.56,-1.56,0.4727751456919271,0.970137408162035,0.736870038790938,0.7320293057870041,0.4060021063759129,0.2256144966499542
774,42.698,42.62,-1.61,0.47276839574955404,0.9710206354409034,0.7369859055411238,0.7319042642106821,0.40532177877691256,0.22578724818148196
775,42.739,42.67,-1.45,0.4727449648180761,0.9718949653344885,0.7370892618742084,0.7317855038885883,0.4046270163950993,0.22598126147623973
776,42.8,42.73,-1.5,0.4727054088848843,0.9727601436745751,0.7371800784101887,0.7316727266348131,0.4039181947431459,0.2261968047735342
777,42.861,42.78,-1.53,0.4726503247140587,0.9736159151693685,0.737258354611477,0.7315656330387115,0.40319570805503785,0.22643412321148804
778,42.901,42.84,-1.45,0.4725803484012216,0.9744620235837071,0.7373241182619731,0.7314639226609445,0.4024599693257872,0.2266934385417254
779,42.963,42.89,-1.44,0.47249615386529276,0.9752982119437132,0.7373774249063012,0.7313672942456199,0.40171141030861485,0.2269749488733569
780,43.005,42.95,-1.47,0.4723984512798182,0.9761242227654181,0.7374183572500721,0.7312754459479377,0.4009504814689707,0.22727882844650737
781,43.066,43.0,-1.49,0.47228798544667205,0.9769397983067825,0.7374470245220855,0.7311880755766792,0.40017765189488486,0.22760522743554704
782,43.128,43.06,-1.43,0.47216553411499185,0.9777446808424483,0.7374635617994185,0.7311048808508589,0.39939340916326194,0.22795427178210328
783,43.189,43.11,-1.49,0.47203190624824115,0.9785386129604655,0.7374681292963834,0.7310255596698441,0.3985982591618359,0.22832606305785685
784,43.23,43.17,-1.55,0.4718879402422806,0.9793213378801418,0.7374609116183833,0.7309498103962299,0.3977927258665593,0.22872067835706547
785,43.293,43.22,-1.38,0.4717345020972778,0.9800925997900611,0.7374421169817446,0.7308773321507299,0.3969773510742337,0.2291381702187095
786,43.355,43.28,-1.44,0.4715724835462259,0.9808521442052118,0.7374119764006435,0.7308078251183171,0.39615269409021175,0.22957856657811723
787,43.438,43.33,-1.47,0.471402800142809,0.9815997183420673,0.73737074284228,0.7307409908648205,0.3953193313710282,0.23004187074790952
788,43.459,43.39,-1.4,0.4712263893113686,0.9823350715104029,0.7373186903514736,0.7306765326631953,0.39447785612190345,0.23052806142807875
789,43.501,43.44,-1.39,0.47104420836188077,0.9830579555205744,0.7372561131459112,0.7306141558286722,0.3936288778491932,0.23103709274497178
790,43.563,43.5,-1.4,0.4708572324731339,0.9837681251048589,0.7371833246833855,0.7305535680619385,0.39277302186799185,0.2315688943189044
791,43.626,43.55,-1.41,0.47066645264759005,0.9844653383513458,0.7371006567024561,0.7304944797994483,0.39191092876521777,0.23212337136010877
792,43.688,43.6,-1.31,0.470472873641644,0.985149357148787,0.7370084582380535,0.7304366045699248,0.3910432538186528,0.2327004047926804
793,43.749,43.66,-1.37,0.47027751187519645,0.9858199476407676,0.7369070946136462,0.7303796593560694,0.39017066637256126,0.233299851406148
794,43.83,43.72,-1.43,0.47008139332463844,0.9864768806874811,0.7367969464116779,0.7303233649604126,0.389293849170674,0.2339215440342457
795,43.85,43.77,-1.31,0.4698855514034674,0.987119932333366,0.7366784084240875,0.7302674463741474,0.3884134976474778,0.23456529176042887
796,43.892,43.83,-1.38,0.46969102483485725,0.9877488842787896,0.7365518885848162,0.7302116331476747,0.3875303191788903,0.23523088014964874
797,43.954,43.88,-1.44,0.4694988555205144,0.98836352435396,0.7364178068862745,0.73015565976152,0.386645032293496,0.2359180715058969
798,44.016,43.94,-1.37,0.46931008641003014,0.9889636469932962,0.7362765942817656,0.7300992659962939,0.38575836584559814,0.23662660515502637
799,44.057,43.99,-1.36,0.46912575937477174,0.9895490537085679,0.7361286915758808,0.7300421973004184,0.3848710581514127,0.23735619775233027
800,44.18,44.05,-1.39,0.4689469130902263,0.9901195535591323,0.735974548304914,0.7299842051543762,0.3839838560897886,0.2381065436143307
801,44.2,44.1,-1.4,0.46877458093058677,0.9906749636176051,0.7358146216093565,0.7299250474302783,0.38309751416889704,0.23887731507421897
802,44.22,44.16,-1.32,0.46860978887924104,0.9912151094293697,0.7356493751005211,0.7298644887456126,0.38221279356042176,0.2396681628603732
803,44.261,44.21,-1.39,0.46845355345872786,0.9917398254644113,0.7354792777233239,0.7298023008101011,0.38133046110289004,0.24047871649737082
804,44.322,44.27,-1.46,0.46830687968367773,0.9922489555600612,0.7353048026172354,0.7297382627646471,0.3804512882758892,0.24130858472890634
805,44.383,44.32,-1.33,0.46817075904025285,0.9927423533533318,0.7351264259773924,0.7296721615114002,0.37957605014701307,0.24215735596202126
806,44.444,44.38,-1.4,0.46804616749563044,0.9932198827015604,0.734944625917872,0.7296037920339971,0.37870552429347054,0.24302459873205312
807,44.527,44.43,-1.46,0.46793406354109246,0.9936814180901336,0.7347598813391226,0.7295329577070608,0.3778404897003446,0.2439098621877333
808,44.547,44.49,-1.41,0.46783538627220517,0.994126845026167,0.734572670801523,0.7294594705940995,0.37698172563754373,0.24481267659587452
809,44.608,44.54,-1.41,0.4677510535094762,0.9945560604171138,0.7343834714070315,0.729383151733004,0.37613001051754824,0.24573255386507245
810,44.649,44.6,-1.46,0.4676819599628027,0.9949689729333518,0.7341927576908881,0.7293038314083872,0.37528612073609396,0.24666898808781829
811,44.712,44.65,-1.5,0.467628975442908,0.9953655033538614,0.7340010005253372,0.729221349410052,0.3744508294979624,0.24762145610040123
812,44.774,44.71,-1.41,0.4675929431227407,0.9957455848941916,0.7338086660372988,0.7291355552769657,0.3736249056300678,0.24858941805995954
813,44.835,44.76,-1.48,0.46757467785152723,0.9961091635160056,0.7336162145418628,0.7290463085262247,0.372809112384055,0.24957231803801366
814,44.92,44.82,-1.55,0.4675749645238753,0.9964561982175397,0.7334240994934158,0.7289534788665764,0.37200420623063046,0.25056958462979534
815,44.941,44.87,-1.41,0.46759455650607934,0.9967866613043114,0.7332327664561553,0.7288569463961421,0.37121093564786795,0.2515806315786664
816,44.982,44.92,-1.45,0.46763417412163005,0.9971005386393782,0.7330426520956995,0.7287566017840106,0.37043003990576284,0.2526048584149032
817,45.043,44.98,-1.5,0.46769450319786093,0.9973978298724356,0.7328541831934537,0.7286523464354122,0.36966224784934465,0.25364165110812253
818,45.124,45.03,-1.46,0.4677761936755977,0.99767854864709,0.7326677756853037,0.728544092640245,0.3689082766827267,0.25469038273261474
819,45.144,45.09,-1.46,0.4678798582836488,0.9979427227857155,0.7324838337261198,0.7284317637047997,0.3681688307565719,0.25575041414480987
820,45.206,45.15,-1.51,0.4680060712800068,0.9981903944513525,0.7323027487815017,0.7283152940665535,0.36744460036154325,0.2568210946720535
821,45.268,45.2,-1.55,0.4681553672616311,0.9984216202861659,0.7321248987481247,0.7281946293919476,0.36673626053036595,0.25790176281183624
822,45.33,45.26,-1.47,0.4683282400446009,0.9986364715260748,0.7319506471039667,0.7280697266571176,0.3660444698511622,0.2589917469405864
823,45.37,45.31,-1.57,0.468525141616305,0.9988350340912693,0.731780342089607,0.7279405542116114,0.3653698692947318,0.26009036603109636
824,45.452,45.37,-1.66,0.4687464811611874,0.9990174086524044,0.731614315921696,0.7278070918251576,0.36471308105844136,0.2611969303776077
825,45.493,45.42,-1.62,0.468992624161402,0.9991837106723146,0.7314528840396329,0.7276693307175579,0.3640747074293576,0.26231074232752905
826,45.554,45.48,-1.67,0.4692638915735622,0.9993340704230926,0.7312963443864399,0.7275272735717379,0.3634553296691924,0.26343109701872075
827,45.637,45.53,-1.71,0.4695605590825819,0.9994686329783653,0.7311449767247828,0.7273809345299221,0.36285550692349994,0.26455728312128773
828,45.656,45.59,-1.71,0.4698828564333597,0.9995875581805481,0.730999041989003,0.7272303391728621,0.3622757751573969,0.2656885835828614
829,45.72,45.64,-1.69,0.4702309668408014,0.9996910205828108,0.7308587816739404,0.7270755244820037,0.36171664611992654,0.266824276376386
830,45.781,45.7,-1.74,0.4706050264784815,0.9997792093654242,0.7307244172612513,0.7269165387844608,0.3611786063390649,0.26796363524945405
831,45.823,45.75,-1.76,0.4710051240460797,0.9998523282261456,0.7305961496838411,0.7267534416806561,0.36066211614926585,0.2691059304742715
832,45.865,45.81,-1.66,0.4714313004156101,0.9999105952443476,0.7304741588289227,0.7265863039545709,0.3601676087533712,0.2702504295973663
833,45.927,45.86,-1.75,0.47188354835641727,0.9999542427186834,0.730358603080112,0.7264152074666036,0.3596954893206576,0.2713963981881784
834,46.01,45.92,-1.83,0.47236181233892544,0.9999835169781466,0.7302496188988806,0.7262402450291005,0.35924613412275436,0.2725431005856807
835,46.03,45.97,-1.72,0.4728659884171554,0.999998678166485,0.7301473204456214,0.7260615202646595,0.3588198897091527,0.2736898006421801
836,46.091,46.03,-1.76,0.47339592419008497,1.0,0.7300517992405571,0.7258791474473364,0.3584170721239906,0.27483576246345853
837,46.154,46.08,-1.82,0.4739514188419513,0.9999877694988518,0.7299631238647166,0.7256932513268762,0.3580379661657323,0.2759802511444495
838,46.194,46.14,-1.81,0.47453222326150424,0.9999622866921211,0.729881339701189,0.7255039669361345,0.35768282469128454,0.2771225334996933
839,46.255,46.19,-1.8,0.4751380402400635,0.9999238642970469,0.7298064687168483,0.7253114393818682,0.3573518679660369,0.27826187878782577
840,46.317,46.25,-1.87,0.4757685247481027,0.9998728273729727,0.7297385092847375,0.7251158236191046,0.3570452830612535,0.2793975594293745
841,46.381,46.3,-1.91,0.4764232842899471,0.9998095129506055,0.7296774360472725,0.7249172842093201,0.3567632233001443,0.28052885171716635
842,46.422,46.35,-1.81,0.47710187933599585,0.9997342696372687,0.7296231998203843,0.7247159950627061,0.35650580775383295,0.28165503651868573
843,46.485,46.41,-1.9,0.4778038238316577,0.9996474571988693,0.7295757275386575,0.7245121391648582,0.3562731207883021,0.28277539996974854
844,46.524,46.47,-1.96,0.47852858578193475,0.9995494461193459,0.7295349222414605,0.7243059082882565,0.35606521166326605,0.2838892341588641
845,46.586,46.52,-1.86,0.479275587910334,0.9994406171383993,0.7295006630999948,0.724097502688964,0.35588209418381295,0.28499583780164317
846,46.647,46.58,-1.9,0.48004420839062056,0.9993213607683373,0.7294728054851436,0.7238871307889908,0.35572374640555443,0.2860945169045858
847,46.75,46.63,-1.96,0.480833781649836,0.9991920767908931,0.7294511810759644,0.7236750088447961,0.3555901103939134,0.287184585417578
848,46.771,46.69,-1.94,0.4816435992409136,0.9990531737349454,0.7294355980085987,0.7234613606024538,0.35548109203808026,0.2882653658744334
849,46.833,46.74,-1.92,0.4824729107831459,0.9989050683362021,0.7294258410653093,0.723246416940083,0.3553965609200831,0.2893361900208105
850,46.854,46.8,-1.97,0.4833209249687468,0.9987481849799663,0.7294216719033173,0.7230304154981751,0.355336350239335,0.2903963994288399
851,46.914,46.85,-2.0,0.48418681063376734,0.9985829551281579,0.7294228293230907,0.7228136002984521,0.3553002567929115,0.29144534609782774
852,46.976,46.91,-1.89,0.4850696978916246,0.9984098167317731,0.7294290295757069,0.7225962213518763,0.3552880410117053,0.29248239304043555
853,47.018,46.96,-1.97,0.4859686793275011,0.9982292136299721,0.7294399667088766,0.7223785342564322,0.35529942705251416,0.29350691485376734
854,47.099,47.02,-2.05,0.48688281125185423,0.9980415949369374,0.7294553129511602,0.7221607997852799,0.35533410294602386,0.29451829827482096
855,47.141,47.07,-1.96,0.4878111150112201,0.9978474144176382,0.7294747191338563,0.7219432834659046,0.3553917208005802,0.2955159427197673
856,47.183,47.13,-1.99,0.48875257835440633,0.9976471298535814,0.7294978151499811,0.7217262551508711,0.35547189706155286,0.2964992608065243
857,47.244,47.18,-2.02,0.48970615685202057,0.9974412023996366,0.7295242104496944,0.7215099885808065,0.3555742128259698,0.2974676788601129
858,47.306,47.24,-2.0,0.490670775367018,0.99723009593305,0.7295534945714105,0.7212947609402878,0.35569821421196,0.2984206374003181
859,47.347,47.29,-1.96,0.4916453295736752,0.9970142763958355,0.7295852377076898,0.7210808524074216,0.3558434127824409,0.29935759161119213
860,47.409,47.35,-2.01,0.4926286875222294,0.9967942111317627,0.7296189913048985,0.720868545698,0.3560092860224062,0.30027801179195895
861,47.51,47.4,-2.03,0.49361969124638216,0.996570368219145,0.7296542886955604,0.7206581256051484,0.3561952778691029,0.3011813837889114
862,47.53,47.46,-1.9,0.49461715841091936,0.9963432158006159,0.7296906457622853,0.7204498785353838,0.35640079929432344,0.3020672094079331
863,47.571,47.51,-1.98,0.4956198839968314,0.9961132214110008,0.7297275616321511,0.7202440920419423,0.3566252289379905,0.3029350068073151
864,47.632,47.57,-2.04,0.4966266420214565,0.9958808513043356,0.7297645194004204,0.7200410543561755,0.3568679137921571,0.30378431087056634
865,47.693,47.62,-1.95,0.49763618729127906,0.9956465697810308,0.7298009868824553,0.7198410539177791,0.3571281699345191,0.3046146735589336
866,47.734,47.67,-1.99,0.49864725718509567,0.9954108385161528,0.7298364173927157,0.7196443789045799,0.35740528331049937,0.3054256642433588
867,47.836,47.73,-2.04,0.4996585734653135,0.9951741158897711,0.729870250549717,0.7194513167625687,0.3576985105628931,0.30621687001563497
868,47.856,47.78,-2.03,0.5006688441150724,0.9949368563203522,0.7299019131057869,0.7192621537368794,0.3580070799079621,0.30698789597857473
869,47.897,47.84,-1.99,0.5016767651987144,0.9946995096022528,0.7299308198003827,0.7190771744044616,0.3583301920567563,0.307738365515047
870,47.959,47.9,-2.03,0.502681022742894,0.9944625202484756,0.7299563742356695,0.7188966612092327,0.35866702118032473,0.308467920535778
871,48.042,47.95,-2.05,0.5036802946353248,0.9942263268399527,0.729977969773006,0.7187208940005146,0.3590167159173457,0.3091762217058489
