,Time_Host,Time_Arduino,easingdata,CH1_Oxy,CH1_Deoxy,CH2_Oxy,CH2_Deoxy,CH3_Oxy,CH3_Deoxy
0,1.236,0.04,0.0,0.25046765902424195,0.0,0.16399965906676323,0.0,0.19669723016228394,0.0
1,1.257,0.1,0.0,0.2468232551260117,0.001124275326121058,0.16114581133197392,0.0032271713897834313,0.19590987311778701,0.000857678029211223
2,1.299,0.15,0.0,0.2431854063022187,0.0022363304034427565,0.15830460905094418,0.0064403145570117015,0.19511654305201084,0.0017030867177975934
3,1.319,0.21,0.0,0.23955546691230908,0.0033356880819128553,0.15547716103192444,0.009638213689020094,0.19431746213901963,0.00253583754190995
4,1.34,0.26,0.0,0.23593478597057654,0.004421882167561658,0.15266456499096903,0.01281966878432866,0.19351285829157072,0.003355553756939039
5,1.362,1.05,0.0,0.23232470620562815,0.005494457866176103,0.14986790669195077,0.01598349676471819,0.19270296516420188,0.004161870847084829
6,1.382,1.11,0.0,0.2287265631403147,0.006552972211114848,0.14708825911026358,0.01912853256033799,0.19188802215717957,0.004954436960621756
7,1.444,1.16,0.0,0.2251416841930112,0.007596994474786036,0.14432668162116802,0.02225363016631236,0.19106827442117932,0.005732913330272653
8,1.505,1.22,0.0,0.22157138780106714,0.008626106563345823,0.14158421921367542,0.025357663669361645,0.1902439728625452,0.006496974678131229
9,1.526,1.27,0.0,0.21801698256718482,0.009639903394211273,0.13886190173080917,0.028439528242999397,0.1894153741489553,0.00724630960459986
10,1.589,1.33,0.02,0.2144797664294249,0.010637993256015391,0.13616074313702872,0.031498141109909665,0.18858274071529763,0.007980620960834916
11,1.63,1.38,-0.04,0.21096102585548837,0.011619998150663077,0.1334817408135538,0.034532442470146286,0.18774634076954277,0.008699626204214913
12,1.711,1.44,-0.04,0.20746203506188662,0.012585554117171866,0.13082587488229214,0.03754139639382872,0.18690644829838013,0.009403057736367916
13,1.751,1.49,0.03,0.20398405525858518,0.013534311537004691,0.1281941075590469,0.040523991677047254,0.1860633430723619,0.010090663223322149
14,1.813,1.55,-0.06,0.20052833391967462,0.014465935420640235,0.12558738253664498,0.04347924265976934,0.18521731065026917,0.010762205897387788
15,1.874,1.6,-0.08,0.1970961040805539,0.015380105675191982,0.12300662439855427,0.04640619000468206,0.1843686423823807,0.011417464840431752
16,1.935,1.66,-0.01,0.19368858366201847,0.01627651735296069,0.12045273806345691,0.04930390143608435,0.18351763541229543,0.012056235248252452
17,1.978,1.71,0.0,0.19030697482152675,0.017154880880854085,0.11792660826113108,0.05217147243809424,0.1826645926769272,0.012678328675793668
18,2.017,1.77,-0.03,0.18695246333179513,0.01801492227062767,0.11542909903988209,0.05500802691155468,0.18180982290425643,0.013283573262963042
19,2.079,1.82,0.03,0.18362621798673925,0.01885638330991249,0.11296105330564947,0.0578127177891481,0.1809536406084003,0.013871813940837998
20,2.141,1.88,0.08,0.1803293900346695,0.01967902173401698,0.11052329239281486,0.060584727608380955,0.18009636608156465,0.014442912618052254
21,2.182,1.93,0.05,0.17706311263856772,0.020482611378537085,0.10811661566665581,0.06332326904226228,0.17923832538245715,0.014996748347180401
22,2.246,1.99,0.05,0.17382850036321645,0.021266942312893874,0.10574180015732396,0.06602758538767117,0.17837985032076675,0.015533217470985109
23,2.307,2.04,0.15,0.1706266486889139,0.022031820955023245,0.10339960022516942,0.06869695101157397,0.17752127843734736,0.016052233748438723
24,2.37,2.1,0.12,0.1674586335514812,0.02277707016752837,0.10109074725718618,0.07133067175538327,0.17666295297977996,0.01655372846045941
25,2.432,2.15,0.07,0.16432551090824293,0.023502529335649742,0.09881594939430392,0.07392808529784109,0.17580522287302242,0.017037650495307977
26,2.473,2.21,0.11,0.1612283163296358,0.024208054427400566,0.09657589128919512,0.07648856147686289,0.17494844268489526,0.017503966413578115
27,2.535,2.26,0.12,0.1581680646160777,0.024893518036155353,0.09437123389421703,0.07901150257078222,0.1740929725861871,0.017952660492693753
28,2.619,2.32,0.04,0.15514574943970472,0.025558809405891007,0.09220261427906827,0.08149634353940433,0.1732391783051805,0.0183837347508273
29,2.64,2.37,0.1,0.15216234301053902,0.02620383443920426,0.09007064547769872,0.0839425522252726,0.17238743107640067,0.018797208950178026
30,2.682,2.43,0.15,0.14921879576658967,0.02682851568818861,0.08797591636396286,0.08634962951560309,0.17153810758338706,0.01919312057958786
31,2.744,2.48,0.1,0.14631603608731902,0.027432792328250293,0.08591899155545825,0.08871710946542567,0.17069158989528502,0.019571524816515726
32,2.806,2.54,0.1,0.14345497002984473,0.028016620114977776,0.08390041134493686,0.0910445593825669,0.16984826539706546,0.019932494468435324
33,2.848,2.59,0.18,0.14063648108719745,0.028579971324245917,0.08192069165862426,0.09333157987520052,0.16900852671320293,0.020276119893756307
34,2.909,2.65,0.16,0.13786142996792014,0.0291228346758126,0.07998032404073166,0.09557780486275619,0.16817277162467725,0.020602508902395067
35,2.991,2.7,0.11,0.13513065439626426,0.02964521524073429,0.07807977566340386,0.09778290155101627,0.16734140297919442,0.020911786636146144
36,3.032,2.76,0.15,0.13244496893221347,0.030147134332970095,0.07621948936130718,0.0999465703722589,0.16651482859455635,0.021204095429024624
37,3.074,2.81,0.15,0.12980516481055815,0.030628629385543928,0.07439988369004225,0.10206854489131635,0.1656934611551459,0.021479594647764742
38,3.116,2.87,0.06,0.1272120097982535,0.03108975381160317,0.07262135300757143,0.10414859167840969,0.16487771810151622,0.021738460512683622
39,3.179,2.92,0.04,0.12466624806929706,0.031530576850684666,0.07088426757786248,0.10618651014962675,0.16406802151308683,0.02198088589915277
40,3.24,2.98,0.08,0.12216860009634961,0.03195118340048652,0.0691889736959581,0.10818213237593105,0.16326479798394472,0.02220708011995418
41,3.28,3.03,0.02,0.11971976255829292,0.03235167383443832,0.06753579383368283,0.11013532286159947,0.16246847849173152,0.022417268688832048
42,3.343,3.09,-0.09,0.11732040826286655,0.03273216380536041,0.06592502680517913,0.11204597829298424,0.1616794982595596,0.022611693065582767
43,3.424,3.14,-0.01,0.11497118608346926,0.03309278403550417,0.06435694795143194,0.11391402725849133,0.16089829661086202,0.02279061038304124
44,3.446,3.2,-0.01,0.11267272090918108,0.033433680093258124,0.06283180934290947,0.1157394299406396,0.16012531681703188,0.02295429315632057
45,3.505,3.25,-0.09,0.11042561360707216,0.03375501215678993,0.06134983999943048,0.11752217778100812,0.15936100593765548,0.023103028974661863
46,3.567,3.31,-0.04,0.10823044099590735,0.03405695476488322,0.05991124612636101,0.11926229311881967,0.1586058146530945,0.023237120176251087
47,3.629,3.36,0.01,0.10608775583041496,0.03433969655522959,0.0585162113662476,0.12095982880386076,0.1578601970891465,0.023356883506360802
48,3.712,3.42,-0.09,0.1039980867953453,0.03460343999046159,0.057164897065006416,0.12261486778442378,0.15712461063350536,0.023462649759187066
49,3.734,3.47,-0.1,0.10196193850858008,0.03484840107227195,0.05585744255179229,0.12422752267099219,0.1563995157437405,0.023554763403779676
50,3.797,3.53,-0.04,0.09997979153256877,0.03507480904404219,0.054593965431665226,0.1257979352764665,0.15568537574651875,0.02363358219448678
51,3.859,3.58,-0.14,0.09805210239336715,0.03528290608246773,0.05337456189016212,0.12732627613379102,0.1549826566277855,0.023699476766343743
52,3.899,3.64,-0.17,0.09617930360653709,0.0354729469786995,0.05219930700886572,0.12881274399186565,0.15429182681360354,0.023752830215838752
53,3.961,3.69,-0.1,0.09436180370913719,0.03564519880951744,0.05106825509104071,0.13025756529061497,0.1536133569413161,0.023794037667495715
54,4.024,3.75,-0.06,0.09259998729701575,0.03579994059900492,0.04998143999638943,0.13166099361604103,0.15294771962066628,0.023823505826742798
55,4.086,3.8,-0.11,0.09089421506663106,0.035937462971122575,0.04893887548397125,0.1330233091360179,0.15229538918447236,0.023841652519587694
56,4.107,3.86,-0.05,0.08924482386067724,0.036058067793511964,0.04794055556232884,0.13434481801754167,0.15165684142845062,0.023848906219677314
57,4.17,3.91,0.01,0.08765212671689122,0.03616206781280845,0.04698645484588057,0.1356258518261296,0.15103255333980278,0.023845705563355912
58,4.231,3.97,-0.04,0.08611641291953037,0.0362497862817167,0.04607652891667148,0.13686676690805205,0.15042300281422938,0.02383249885335518
59,4.272,4.02,-0.04,0.08463794805310973,0.03632155657811658,0.04521071469060962,0.1380679437560959,0.14982866836108208,0.023809743551762037
60,4.353,4.08,0.05,0.08321697405805475,0.03637772181651803,0.04438893078733285,0.13922978635960198,0.14925002879641994,0.023777905762912437
61,4.394,4.13,0.01,0.08185370928796255,0.03641863445224126,0.04361107790285509,0.14035272153956294,0.14868756292378268,0.02373745970685342
62,4.457,4.19,-0.08,0.08054834856817228,0.036444655878744084,0.04287703918413407,0.14143719826959847,0.1481417492025363,0.023688887184003013
63,4.498,4.24,-0.02,0.07930106325533294,0.03645615601853407,0.04218668060469098,0.14248368698364425,0.1476130654036835,0.02363267703161427
64,4.561,4.3,0.03,0.07811200129764552,0.036453512908071944,0.04153985134041444,0.14349267887119407,0.14710198825306098,0.02356932457262493
65,4.601,4.35,-0.03,0.07698128729545375,0.03643711227700366,0.04093638414470403,0.144464685160909,0.14660899306185776,0.023499331057470006
66,4.663,4.41,-0.01,0.07590902256185658,0.036407347121996114,0.04037609572213879,0.14540023639338834,0.14613455334439188,0.023423203099452776
67,4.727,4.46,0.07,0.07489528518301523,0.03636461727543618,0.039858787099888035,0.14629988168390334,0.1456791404231013,0.023341452104291508
68,4.81,4.52,0.04,0.0739401300778454,0.0363093289692864,0.03938424399611685,0.14716418797592107,0.14524322302073997,0.023254593694479242
69,4.83,4.57,0.0,0.07304358905682105,0.036241894394459004,0.038952237184670856,0.14799373928628312,0.14482726683981179,0.02316314712910872
70,4.894,4.63,0.09,0.0722056708796689,0.03616273125613974,0.03856252285535338,0.14878913594293652,0.1444317341293278,0.023067634719812935
71,4.934,4.68,0.11,0.07142636131179556,0.036072262325536904,0.03821484296914032,0.1495509938161189,0.14405708323902844,0.02296858124345614
72,4.995,4.74,0.05,0.07070562317934527,0.03597091498854645,0.03790892560771092,0.1502799435438875,0.14370376816126235,0.022866513352199705
73,5.077,4.79,0.08,0.07004339642283296,0.03585912079182885,0.03764448531669613,0.15097662975289608,0.14337223806076618,0.022761958981565626
74,5.138,4.85,0.1,0.06943959814933344,0.03573731498679739,0.03742122344206395,0.15164171027536824,0.14306293679264495,0.022655446757122756
75,5.178,4.9,0.04,0.06889412268323537,0.035605936072029734,0.03723882845908548,0.15227585536325455,0.14277630240890726,0.0225475054004329
76,5.219,4.96,0.06,0.06840684161557467,0.03546542533464623,0.037096976293360756,0.15287974690056597,0.14251276665395,0.02243866313491958
77,5.26,5.01,0.15,0.06797760385195403,0.03531622639123999,0.03699533063342793,0.15345407761483806,0.1422727544494183,0.0223294470923448
78,5.321,5.07,0.12,0.06760623565905433,0.03515878472896919,0.03693354323452981,0.1539995502886167,0.14205668336889696,0.022220382720585668
79,5.383,5.12,0.08,0.06729254070976128,0.034993547247424664,0.03691125421315861,0.15451687697178196,0.14186496310292848,0.022111993193387865
80,5.424,5.18,0.14,0.06703630012697953,0.03482096180187317,0.03692809233204135,0.15500677819547656,0.1416979949149124,0.022004798822739337
81,5.485,5.23,0.15,0.0668372725262814,0.03464147674845693,0.03698367527527435,0.15546998218836855,0.141556171088504,0.021899316474473334
82,5.568,5.29,0.09,0.06669519405761472,0.03445554049192438,0.037077609913360295,0.15590722409597144,0.14143987436719133,0.021796058987703426
83,5.61,5.34,0.12,0.06660977844635278,0.034263601036493486,0.037209492557936916,0.15631924520378332,0.14134947738677675,0.0216955345987192
84,5.711,5.4,0.15,0.06658071703401115,0.03406610554050073,0.03737890920601982,0.15670679216508332,0.14128534210153948,0.021598246370013473
85,5.731,5.45,0.07,0.06660767881898427,0.0338634998755504,0.0375854357736228,0.15707061623429583,0.14124781920490062,0.021504691625157894
86,5.773,5.51,0.03,0.06669031049766555,0.03365622819094026,0.03782863831867526,0.15741147250688114,0.14123724754544864,0.021415361390282706
87,5.837,5.56,0.1,0.06682823650630601,0.03344473248417813,0.03810807325323127,0.1577301191667164,0.1412539535392105,0.021330739842934
88,5.918,5.62,0.09,0.067021059063955,0.033229452178380255,0.038423287545056056,0.15802731674186749,0.1412982505790697,0.021251303769076964
89,5.939,5.67,0.03,0.06726835821682077,0.033010823707241545,0.038773818908756065,0.15830382736953472,0.14137043844223632,0.021177522028994495
90,5.979,5.73,0.1,0.06756969188439767,0.0327892801081147,0.03915919598667517,0.1585604140708131,0.14147080269668594,0.021109855032797664
91,6.043,5.78,0.12,0.06792459590774987,0.03256525062357366,0.03957893851983341,0.15879784003575032,0.1415996141075117,0.021048754226227578
92,6.083,5.84,0.06,0.06833258410041221,0.03233916031172324,0.04003255750924819,0.15901686791904945,0.14175712804416973,0.020994661587407225
93,6.145,5.89,0.04,0.06879314830244998,0.0321114296654818,0.0405195553680389,0.15921825914669843,0.14194358388963893,0.020948009135199928
94,6.206,5.95,0.09,0.0693057584382973,0.03188247424108845,0.04103942606476786,0.1594027732338205,0.1421592044525603,0.020909218449832078
95,6.29,6.0,0.03,0.06986986257905779,0.031652704296126835,0.04159165525851594,0.15957116711407432,0.1424041953834536,0.020878700206437326
96,6.309,6.06,-0.03,0.07048488700999486,0.03142252443739506,0.04217572042622939,0.1597241944809565,0.142678744596129,0.020856853722177292
97,6.37,6.11,0.03,0.07115023630394873,0.031192333278978895,0.042791090982907974,0.15986260514135858,0.1429830216954198,0.020844066517583252
98,6.431,6.17,-0.0,0.07186529340140628,0.030962523110892527,0.04343722839524041,0.1599871443816983,0.1433171774123666,0.020840713892745513
99,6.473,6.22,-0.07,0.07262941969791592,0.030733479578636227,0.044113586289324595,0.16009855234689788,0.14368134304797828,0.020847158518965462
100,6.534,6.28,-0.03,0.07344195513949042,0.03050558137398996,0.0448196105531268,0.16019756343244884,0.144075629926685,0.020863750046477617
101,6.594,6.33,0.02,0.07430221832658684,0.030279199937313588,0.045554739434346715,0.1602849056897901,0.1445001288605936,0.02089082472883429
102,6.656,6.39,-0.04,0.07520950662721015,0.03005469917156649,0.046318403634375636,0.16036130024519546,0.14495490962565274,0.020928705064526584
103,6.718,6.44,-0.06,0.07616309629966042,0.02983243516822469,0.04711002639905815,0.16042746073234693,0.1454400204508391,0.02097769945639093
104,6.76,6.5,0.01,0.07716224262544268,0.029612755945275588,0.047929023606991895,0.16048409273875672,0.14595548752149506,0.021038101889313446
105,6.823,6.55,-0.04,0.07820618005288749,0.029396001197483725,0.04877480385612973,0.1605318932661572,0.1465013144979704,0.021110191626696983
106,6.887,6.61,-0.1,0.0792941223520797,0.029182502059110202,0.04964676854947624,0.16057155020489866,0.1470774820507372,0.02119423292611038
107,6.928,6.66,-0.05,0.08042526278174345,0.028972580879225513,0.0505443119806859,0.16060374182230858,0.14768394741315888,0.02129047477449481
108,7.052,6.72,-0.07,0.08159877426877622,0.028766551009689313,0.051466821420372934,0.16062913626489947,0.14832064395310005,0.021399150643262047
109,7.073,6.77,-0.16,0.0828138096011454,0.02856471660580737,0.0524136772039312,0.16064839107429643,0.14898748076455684,0.021520478263597355
110,7.094,6.83,-0.17,0.08406950163485474,0.028367372439637807,0.05338425282163408,0.16066215271679424,0.14968434228046965,0.021654659422278972
111,7.156,6.88,-0.15,0.08536496351565123,0.028174803725910608,0.05437791501175762,0.1606710561265308,0.1504110879078559,0.021801879778339636
112,7.217,6.94,-0.21,0.08669928891607606,0.027987285960539714,0.05539402385745609,0.1606757242623282,0.15116755168636029,0.02196230870091749
113,7.258,6.99,-0.25,0.08807155228836315,0.027805084771741796,0.056431932888102956,0.16067676767829797,0.1519535419712698,0.022136099128661584
114,7.32,7.05,-0.18,0.08948080913357605,0.027628455783808552,0.05749098918577728,0.16067478410834526,0.1527688411419882,0.02232338745105059
115,7.382,7.1,-0.18,0.09092609628728289,0.027457644493586973,0.058570533497533855,0.16067035806471822,0.1536132053369197,0.022524293411950724
116,7.403,7.16,-0.2,0.09240643222202248,0.02729288615970336,0.059669900354052986,0.16066406045074386,0.15448636421567585,0.022738920035695227
117,7.466,7.21,-0.14,0.09392081736680774,0.02713440570453575,0.060788418195229926,0.1606564481878908,0.15538802074950042,0.022967353575913826
118,7.527,7.27,-0.14,0.09546823444393882,0.026982417628899313,0.06192540950324442,0.160648063857299,0.15631785104080995,0.02320966348726835
119,7.587,7.32,-0.22,0.09704764882343467,0.026837125939371927,0.06308019094364686,0.16063943535591654,0.15727550417276345,0.02346590242016632
120,7.629,7.38,-0.24,0.09865800889541271,0.02669872408817448,0.06425207351498839,0.16063107556741268,0.15826060208979262,0.023736106238442117
121,7.691,7.43,-0.19,0.10029824646074603,0.02656739492553194,0.06544036270750488,0.16062348204809554,0.15927273951002618,0.024020294059927713
122,7.754,7.49,-0.3,0.10196727714031693,0.02644331066445305,0.0666443586713466,0.16061713672810565,0.16031148387051983,0.024318468319787165
123,7.815,7.54,-0.36,0.10366400080316832,0.026326632857859952,0.06786335639482426,0.16061250562816223,0.16137637530615345,0.02463061485644755
124,7.878,7.6,-0.32,0.10538730201382505,0.026217512387965557,0.06909664589311182,0.16061003859209785,0.16246692666299445,0.024956703019904637
125,7.919,7.65,-0.32,0.10713605049900232,0.02611608946774201,0.0703435124078138,0.16061016903534583,0.16358262354684974,0.02529668580212006
126,7.981,7.71,-0.4,0.10890910163383305,0.02602249365427837,0.07160323661776573,0.16061331370946952,0.16472292440764066,0.02565049998918171
127,8.042,7.76,-0.37,0.11070529694764954,0.02593684387382385,0.07287509486139312,0.16061987248279375,0.16588726066014853,0.02601806633487433
128,8.124,7.82,-0.36,0.11252346464928134,0.025859248458356715,0.07415835937091675,0.16063022813721867,0.1670750368416064,0.026399289755296457
129,8.144,7.87,-0.4,0.11436242017179225,0.025789805193586382,0.07545229851866801,0.16064474618134325,0.16828563080654865,0.026794059544163806
130,8.186,7.93,-0.41,0.11622096673656791,0.02572860137836955,0.07675617707574824,0.16066377468010543,0.16951839395926543,0.027202249608451273
131,8.249,7.98,-0.36,0.11809789593666094,0.0256757138955802,0.07806925648322473,0.16068764410124267,0.17077265152415189,0.02762371872402153
132,8.331,8.04,-0.43,0.11999198833929933,0.025631209294491957,0.07939079513600841,0.16071666717894328,0.1720477028541845,0.0280583108108558
133,8.352,8.09,-0.46,0.12190201410745519,0.025595143884694693,0.08072004867951105,0.16075113879505523,0.173342821777702,0.02850585522745051
134,8.414,8.15,-0.44,0.12382673364035454,0.025567563841477712,0.08205627031913341,0.16079133587814168,0.1746572569836072,0.028966167083881375
135,8.499,8.2,-0.44,0.12576489823277984,0.025548505322490984,0.08339871114259757,0.16083751732054302,0.17599023244503978,0.02943904757298048
136,8.521,8.26,-0.53,0.1277152507529645,0.025537994595381294,0.08474662045509568,0.1608899239134775,0.17734094788149068,0.029924284319036005
137,8.561,8.31,-0.5,0.12967652633880128,0.025536048176017685,0.08609924612717765,0.16094877830013798,0.17870857925924477,0.030421651743408985
138,8.623,8.37,-0.46,0.13164745311201018,0.02554267297686519,0.08745583495524602,0.1610142849467121,0.18009227932995067,0.030930911446458192
139,8.665,8.42,-0.51,0.1336267529098598,0.02555786646503213,0.08881563303447688,0.16108663013124805,0.1814911782070273,0.03145181260517118
140,8.726,8.48,-0.52,0.13561314203400493,0.025581616829521474,0.09017788614393264,0.1611659819503073,0.18290438397952377,0.031984092385906604
141,8.788,8.53,-0.43,0.13760533201597924,0.02561390315725479,0.09154184014357075,0.16125249034338693,0.18433098336297252,0.0325274763716378
142,8.869,8.59,-0.44,0.13960203039886482,0.025654695617472748,0.09290674138279024,0.16134628713511429,0.18577004238670844,0.033081679003046476
143,8.911,8.64,-0.5,0.14160194153464842,0.02570395565412496,0.09427183712009907,0.16144748609520915,0.18722060711706756,0.03364640403275808
144,8.973,8.7,-0.45,0.14360376739675554,0.025761636185845965,0.09563637595342607,0.1615561830161988,0.18868170441583218,0.0342213449919423
145,9.035,8.75,-0.43,0.14560620840723762,0.02582768181308246,0.09699960826056006,0.16167245580886092,0.19015234273324635,0.03480618566843535
146,9.077,8.81,-0.52,0.1476079642780575,0.025902029031909243,0.09836078664917529,0.1617963646153652,0.1916315129348756,0.0354006005954967
147,9.119,8.86,-0.53,0.14960773486586296,0.025984606454069935,0.0997191664158834,0.16192795194010637,0.19311818916151882,0.03600425555029567
148,9.179,8.92,-0.54,0.1516042210395548,0.0260753350328024,0.10107400601372987,0.16206724279826945,0.19461132972130163,0.03661680806122021
149,9.241,8.97,-0.57,0.15359612555986593,0.02617412829404308,0.10242456752752505,0.16221424488220362,0.19610987801298582,0.03723790792310317
150,9.284,9.03,-0.58,0.15558215397007485,0.026280892572648512,0.10377011715635553,0.16236894874570404,0.19761276347941073,0.03786719771947308
151,9.346,9.08,-0.48,0.15756101549687737,0.026395527253331115,0.10510992570256167,0.16253132800631512,0.19911890258985568,0.03850431335094441
152,9.408,9.14,-0.45,0.159531423960332,0.02651792501607307,0.10644326906640483,0.16270133956576005,0.2006271998499929,0.03914888456886293
153,9.448,9.19,-0.5,0.16149209869168238,0.02664797208584914,0.10776942874560172,0.16287892384855457,0.20213654883800533,0.0398005355133197
154,9.51,9.25,-0.43,0.1634417654577784,0.026785548486544988,0.10908769233887167,0.16306400505879667,0.20364583326538388,0.04045888525464473
155,9.632,9.3,-0.39,0.16537915739078776,0.026930528298986022,0.110397354052635,0.1632564914550499,0.20515392806088398,0.04112354833748828
156,9.653,9.36,-0.43,0.1673030159219036,0.027082779922982175,0.11169771521001293,0.16345627564315357,0.2066597004760906,0.04179413532660883
157,9.674,9.41,-0.52,0.1692120917177856,0.027242166343252862,0.11298808476130731,0.16366323488670403,0.2081620112110045,0.042470253353512
158,9.736,9.47,-0.43,0.1711051456185005,0.027408545399036408,0.11426777979517902,0.16387723143484656,0.20965971555801605,0.04315150666311756
159,9.798,9.52,-0.46,0.1729809495757322,0.027581770057129168,0.11553612604979514,0.16409811286689663,0.21115166456256723,0.04383749715967981
160,9.838,9.58,-0.37,0.17483828758999592,0.027761688688060605,0.11679245842324837,0.16432571245320188,0.2126367061987055,0.044527824951265914
161,9.9,9.63,-0.29,0.17667595664552738,0.027948145345090866,0.1180361214825484,0.16455984953160646,0.21411368655763202,0.04522208889218044
162,9.962,9.69,-0.24,0.1784927676414627,0.02814098004570139,0.11926646997045501,0.1648003298988697,0.21558145104727633,0.045919887122761106
163,10.002,9.74,-0.27,0.18028754631789995,0.028340029055238452,0.12048286930938454,0.16504694621641514,0.21703884560090644,0.04662081760594504
164,10.044,9.8,-0.19,0.182059134175435,0.028545125172381954,0.12168469610158626,0.16529947842985612,0.2184847178928018,0.04732447865994593
165,10.104,9.85,-0.09,0.18380638938678615,0.02875609801615864,0.1228713386247672,0.16555769420184643,0.21991791855904658,0.048030469486341466
166,10.167,9.91,-0.12,0.1855281876991427,0.028972774314297577,0.12404219732235065,0.16582134935790446,0.22133730242152402,0.04873839069287045
167,10.251,9.96,-0.1,0.18722342332589526,0.029194978192823014,0.12519668528756797,0.16609018834494996,0.2227417297132088,0.04944784481026207
168,10.272,10.02,-0.01,0.18889100982642526,0.029422531466866336,0.12633422874058836,0.16636394470238833,0.2241300673028792,0.05015843680242922
169,10.334,10.07,-0.01,0.19052988097265128,0.0296552539327317,0.12745426749789304,0.16664234154564112,0.22550118991739246,0.05086977456934733
170,10.395,10.13,-0.04,0.19213899160103448,0.029892963661272833,0.12855625543309776,0.1669250920620468,0.2268539813596814,0.05158146944192307
171,10.438,10.18,0.04,0.19371731844873022,0.03013547729263786,0.1296396609284131,0.16721190001905054,0.22818733572063943,0.052293136668140436
172,10.499,10.24,0.09,0.19526386097255802,0.030382610332403245,0.13070396731591977,0.16750246028455393,0.2295001585830646,0.05300439588975811
173,10.56,10.29,0.05,0.1967776421494635,0.030634177449038992,0.13174867330783815,0.16779645935918602,0.23079136821583446,0.05371487160883727
174,10.622,10.35,0.11,0.19825770925717456,0.030889992772539242,0.13277329341498445,0.1680935759201182,0.23205989675647717,0.054424193643406796
175,10.704,10.4,0.23,0.19970313463382633,0.031149870193933643,0.1337773583526312,0.16839348137590096,0.23330469138031174,0.0551319975716195
176,10.725,10.46,0.22,0.20111301641544538,0.03141362366527883,0.1347604154330246,0.1686958404316665,0.23452471545433756,0.05583792516381439
177,10.767,10.51,0.22,0.20248647925032612,0.03168106749963326,0.13572202894385785,0.16900031166390544,0.23571894967407658,0.05654162480196412
178,10.829,10.57,0.35,0.20382267498947196,0.03195201667045005,0.13666178051205077,0.16930654810389806,0.23688639318160945,0.05724275188603352
179,10.89,10.62,0.37,0.20512078335239253,0.03222628710977809,0.1375792694522503,0.1696141978287553,0.2380260646631018,0.05794096922680379
180,10.952,10.68,0.34,0.20638001256763935,0.032503696004651556,0.1384741130995295,0.16992290455893366,0.23913700342417185,0.058635947424753504
181,11.014,10.73,0.43,0.20759959998751862,0.032784062091073575,0.13934594712582266,0.17023230826105473,0.24021827044150398,0.05932736523463384
182,11.076,10.79,0.49,0.20877881267646448,0.033067205945045856,0.1401944258396893,0.17054204575488616,0.24126894938917365,0.06001490991542714
183,11.097,10.84,0.45,0.20991694797259075,0.03335295027014462,0.14101922246904253,0.17085175132341376,0.24228814763820056,0.06069827756543141
184,11.158,10.9,0.45,0.2110133340219569,0.03364112018119739,0.1418200294265025,0.17116105732506132,0.2432749972279017,0.061377173442263656
185,11.2,10.95,0.56,0.21206733028508068,0.033931543483672055,0.1425965585570434,0.17146959480727092,0.24422865580766231,0.06205131226760891
186,11.263,11.01,0.54,0.2130783280152103,0.0342240509484346,0.14334854136760894,0.17177699412078215,0.24514830754778383,0.06272041851656385
187,11.325,11.06,0.55,0.21404575070783774,0.03451847658155347,0.14407572923836515,0.17208288553402434,0.24603316401809638,0.0633842266914432
188,11.366,11.12,0.67,0.21496905452091014,0.03481465788882841,0.14477789361523982,0.17238689984707403,0.24688246503305178,0.06404248157993012
189,11.448,11.17,0.72,0.2158477286652025,0.035112436134707256,0.14545482618337702,0.17268866900464072,0.24769547946206014,0.06469493849745722
190,11.489,11.23,0.7,0.21668129576435335,0.0354116565952587,0.14610633902113118,0.17298782670755472,0.2484715060038913,0.0653413635137178
191,11.531,11.28,0.8,0.21746931218412,0.03571216880491554,0.14673226473423254,0.17328400902227598,0.24920987392404395,0.06598153366322927
192,11.593,11.34,0.88,0.21821136833048543,0.03601382679677179,0.14733245656978733,0.17357685498800685,0.24990994375408182,0.06661523713989889
193,11.654,11.39,0.87,0.21890708891634683,0.036316489336267264,0.14790678850982605,0.1738660072210309,0.25057110795204285,0.06724227347557767
194,11.738,11.45,0.87,0.21955613319662487,0.03662002014811541,0.14845515534415957,0.17415111251592047,0.25119279152313445,0.06786245370262785
195,11.798,11.5,0.98,0.22015819517174445,0.03692428813633644,0.14897747272234324,0.17443182244327193,0.25177445260003967,0.06847560050055367
196,11.818,11.56,0.95,0.22071300375953237,0.03722916759725233,0.1494736771845869,0.17470779394363536,0.2523155829822685,0.06908154832675094
197,11.859,11.61,0.91,0.22122032293564917,0.03753453842528116,0.1499437261714849,0.17497868991728846,0.252815708634083,0.0696801435314265
198,11.92,11.67,0.97,0.221679951842709,0.03784028631133863,0.15038759801245913,0.17524417980948145,0.2532743901406086,0.07027124445673348
199,11.98,11.72,0.98,0.22209172486824993,0.03814630293362464,0.1508052918928169,0.1755039401907628,0.2536912231218163,0.07085472152017165
200,12.043,11.78,0.94,0.22245551169169564,0.03845248614055652,0.15119682779932228,0.17575765533201215,0.25406583860410736,0.07143045728232815
201,12.084,11.83,0.98,0.22277121730040852,0.03875874012561835,0.15156224644416388,0.17600501777387764,0.25439790334927403,0.07199834649907626
202,12.188,11.89,1.07,0.22303878197488738,0.03906497559392297,0.1519016091671869,0.17624572889041118,0.25468712014064543,0.0725582961583887
203,12.209,11.94,1.03,0.22325818124313568,0.03937110992032124,0.15221499781625394,0.17647949944675057,0.2549332280262709,0.07311022550195091
204,12.251,12.0,1.03,0.22342942580422134,0.03967706729895174,0.15250251460562056,0.1767060501506726,0.25513600251905094,0.07365406603177657
205,12.312,12.05,1.14,0.22355256142106286,0.03998277888420268,0.15276428195224073,0.1769251121977665,0.2552952557537949,0.07418976150202775
206,12.394,12.11,1.15,0.22362766878251222,0.04028818292313394,0.15300044228996157,0.17713642780988426,0.2554108366012687,0.0747172678962304
207,12.414,12.16,1.1,0.22365486333485957,0.04059322487946043,0.15321115786160225,0.1773397507664614,0.25548263073937655,0.07523655339006241
208,12.476,12.22,1.17,0.2236342950829542,0.04089785754921412,0.15339661048894918,0.17753484692827162,0.25551056068171496,0.07574759829987893
209,12.558,12.27,1.2,0.22356614836122432,0.041202041168179354,0.15355700132075006,0.17772149475314997,0.2554945857638277,0.07625039501712987
210,12.578,12.33,1.14,0.22345064157496436,0.04150574351115895,0.1536925505588606,0.17789948580318404,0.25543470208758645,0.07674494792883362
211,12.641,12.38,1.13,0.2232880269123262,0.04180893998311214,0.15380349716275832,0.17806862524288672,0.25533094242419707,0.07723127332429879
212,12.703,12.44,1.19,0.2230785900275035,0.04211161370219949,0.15389009853268457,0.17822873232793995,0.2551833760764074,0.07770939928831581
213,12.745,12.49,1.13,0.2228226496956449,0.04241375557475385,0.15395263017170976,0.1783796408841808,0.25499210870054717,0.07817936558106782
214,12.807,12.55,1.09,0.22252055744004537,0.04271536436217542,0.1539913853270537,0.17852119977653738,0.25475728208907605,0.07864122350503314
215,12.91,12.6,1.16,0.22217269713213855,0.04301644673973867,0.15400667461101808,0.1786532733676103,0.25447907391435115,0.07909503575915335
216,12.931,12.66,1.12,0.2217794845647541,0.043317017347282154,0.1539988256019105,0.17877574196553278,0.2541576974343565,0.07954087628052015
217,12.973,12.71,1.04,0.2213413669990461,0.04361709883171912,0.153968182425351,0.17888850226065353,0.2537934011611664,0.07997883007381154
218,13.055,12.77,1.1,0.2208588226854702,0.043916721881264886,0.15391510531636862,0.17899146775050248,0.2533864684929319,0.08040899302870788
219,13.076,12.82,1.12,0.22033236035921222,0.04421592525123892,0.1538399701627218,0.17908456915242868,0.25293721731020524,0.08083147172554991
220,13.138,12.88,1.06,0.21976251871054078,0.044514755781280856,0.15374316802993448,0.17916775480323058,0.25244599953742686,0.0812463832295667
221,13.198,12.93,1.05,0.21914986583064933,0.04481326840382849,0.15362510466860466,0.17924099104504754,0.251913200670424,0.08165385487407652
222,13.28,12.99,1.11,0.2184949986336514,0.04511152614372985,0.15348620000460703,0.17930426259675483,0.2513392392707947,0.08205402403312032
223,13.301,13.04,1.06,0.21779854225548853,0.04540960010888268,0.15332688761286267,0.17935757291008952,0.2507245664280841,0.08244703788401805
224,13.341,13.1,1.01,0.2170611494305866,0.04570756947180915,0.15314761417538467,0.17940094450972605,0.25006966519068813,0.08283305316035396
225,13.402,13.15,1.05,0.21628349984714637,0.046005521442083724,0.1529488389243443,0.1794344193164953,0.24937504996644588,0.08321223589590038
226,13.465,13.21,1.04,0.2154662994819765,0.04630355122954043,0.1527310330709781,0.1794580589528659,0.2486412658939064,0.08358476115999287
227,13.506,13.26,0.95,0.2146102799157675,0.04660176199820501,0.15249467922127985,0.17947194502968533,0.24786888818527178,0.08395081278488159
228,13.568,13.32,0.96,0.21371619762965616,0.046900264810946404,0.152240270779547,0.1794761794130849,0.24705852144202392,0.08431058308560782
229,13.631,13.37,1.0,0.21278483328385325,0.047199178564909565,0.15196831134092761,0.17947088447045262,0.24621079894424805,0.08466427257297429
230,13.715,13.43,0.94,0.21181699097901804,0.047498629917861766,0.1516793140741185,0.1794562032944851,0.2453263819146665,0.08501208966019294
231,13.737,13.48,0.93,0.21081349750096695,0.04779875320564723,0.15137380109531665,0.17943229990451204,0.24440595875839066,0.08535425036379513
232,13.798,13.54,1.0,0.2097752015492345,0.04809969035098002,0.15105230283446916,0.17939935942444474,0.24345024427940323,0.08569097799936726
233,13.84,13.59,0.96,0.20870297294999615,0.048401590763784044,0.15071535739483716,0.17935758823673123,0.24245997887479886,0.0860225028726319
234,13.902,13.65,0.91,0.20759770185391888,0.04870461123321037,0.15036350990689543,0.17930721411157807,0.2414359277078307,0.08634906196634819
235,14.005,13.7,0.95,0.20646029791960327,0.04900891581136725,0.14999731187761087,0.17924848631053347,0.2403788798608433,0.0866708986234658
236,14.025,13.76,0.96,0.20529168948338347,0.04931467568872375,0.14961732053616786,0.17918167566338283,0.23928964746920103,0.08698826222693617
237,14.086,13.81,0.88,0.20409282271633894,0.049622069061117643,0.14922409817723703,0.17910707461722877,0.23816906483734776,0.08730140787657704
238,14.127,13.87,0.87,0.2028646607694333,0.049931280988317624,0.14881821150289617,0.17902499725662804,0.23701798753815118,0.08761059606339475
239,14.168,13.92,0.91,0.2016081829077328,0.05024250324414524,0.14840023096431373,0.17893577929373164,0.23583729149670007,0.0879160923417861
240,14.231,13.98,0.83,0.20032438363466867,0.050555934158230724,0.14797073010429465,0.17883977802748202,0.23462787205973326,0.08821816700006337
241,14.294,14.03,0.77,0.1990142718072994,0.05087177844954088,0.14753028490175688,0.17873737227106049,0.23339064305187193,0.08851709472976714
242,14.377,14.09,0.81,0.19767886974350116,0.05119024705185235,0.14707947311915506,0.1786289622469101,0.2321265358198209,0.08881315429423838
243,14.398,14.14,0.76,0.19631921232198216,0.05151155693132502,0.14661887365381016,0.17851496944875017,0.2308364982656864,0.08910662819690551
244,14.44,14.2,0.69,0.19493634607597668,0.051835930896259805,0.14614906589405288,0.17839583647001686,0.22952149387053558,0.08939780234971835
245,14.501,14.25,0.72,0.1935313282814288,0.05216359739902769,0.14567062908104347,0.17827202679815857,0.22818250070929044,0.08968696574213246
246,14.562,14.31,0.73,0.19210522604042993,0.05249479033006114,0.14518414167710117,0.17814402457419776,0.22682051045802004,0.08997441011102222
247,14.624,14.36,0.66,0.19065911536064853,0.05282974880373439,0.14469018074136322,0.17801233431696767,0.22543652739466458,0.09026042961188471
248,14.665,14.42,0.64,0.1891940802314847,0.05316871693595428,0.1441893213135786,0.17787748061148206,0.224031567394201,0.0905453204916961
249,14.767,14.47,0.69,0.18771121169770189,0.05351194361333406,0.14368213580682188,0.17774000776098817,0.2226066569192452,0.09082938076378465
250,14.788,14.53,0.63,0.1862116069313274,0.05385968225390023,0.14316919340990256,0.17760047940234308,0.2211628320070716,0.09111290988509085
251,14.828,14.58,0.59,0.18469636830265976,0.05421219055935803,0.14265105950023874,0.17745947808441348,0.2197011372540158,0.0913962084361963
252,14.89,14.64,0.67,0.1831666024512624,0.05456973025900185,0.14212829506796074,0.17731760480924438,0.2182226247982123,0.09167957780450257
253,14.952,14.69,0.65,0.18162341935786272,0.05493256684539221,0.14160145615199982,0.177175478535785,0.21672835330161586,0.09196331987092356
254,15.014,14.75,0.59,0.18006793141809777,0.05530096930194379,0.1410710932889017,0.1770337356460167,0.21521938693225304,0.09224773670042585
255,15.138,14.8,0.59,0.1785012525190484,0.05567520982259973,0.14053775097507973,0.17689302937341939,0.21369679434766325,0.09253313023671864
256,15.159,14.86,0.6,0.17692449711948147,0.05605556352381656,0.14000196714319232,0.17675402919383856,0.21216164768050497,0.09281980200136064
257,15.179,14.91,0.51,0.17533877933467718,0.056442308149148024,0.13946427265329156,0.17661742017899346,0.21061502152731137,0.09310805279753218
258,15.221,14.97,0.45,0.17374521202665758,0.05683572376678915,0.1389251907993224,0.17648390231314104,0.20905799194137023,0.09339818241871799
259,15.284,15.02,0.49,0.17214490590055723,0.05723609246050078,0.1383852368314537,0.1763541897737321,0.20749163543067548,0.0936904893625425
260,15.325,15.08,0.45,0.17053896860778825,0.05764369801436218,0.13784491749462768,0.17622901017715137,0.20591702796186007,0.09398527054998547
261,15.386,15.13,0.4,0.1689285038565573,0.05805882559180341,0.13730473058362644,0.1761091037907657,0.20433524397096464,0.09428282105018689
262,15.491,15.19,0.43,0.1673146105302074,0.058481761409365236,0.1367651645148854,0.17599522271255846,0.20274735538184782,0.09458343381102212
263,15.511,15.24,0.44,0.16569838181380883,0.05891279240562771,0.13622669791523723,0.17588813001962889,0.20115443063300503,0.09488739939559736
264,15.553,15.3,0.38,0.1640809043294266,0.059352205905744415,0.13568979922775065,0.17578859888681195,0.19955753371353852,0.09519500572479708
265,15.615,15.35,0.41,0.1624632572805213,0.05980028928203106,0.1351549263348191,0.175697411676675,0.1979577232090061,0.09550653782601352
266,15.677,15.41,0.44,0.1608465116059881,0.060257329611091044,0.13462252619864962,0.17561535900219227,0.19635605135787193,0.09582227758819867
267,15.739,15.46,0.37,0.15923172914438438,0.06072361332801565,0.13409303451930002,0.17554323876348493,0.19475356311928518,0.09614250352338984
268,15.802,15.52,0.34,0.15761996180892537,0.06119942587827683,0.13356687541040024,0.17548185516013962,0.19315129525291577,0.09646749053486477
269,15.843,15.57,0.4,0.15601225077383726,0.061685051368014526,0.13304446109266385,0.17543201768077063,0.1915502754115846,0.09679750969207193
270,15.904,15.63,0.35,0.15440962567266256,0.0621807722134749,0.132526191605261,0.17539454007162172,0.18995152124742604,0.09713282801245668
271,15.944,15.68,0.26,0.15281310380910734,0.06268686879036467,0.13201245453508176,0.17537023928608034,0.1883560395323141,0.09747370825026824
272,16.006,15.74,0.28,0.15122368938101513,0.06320361908384928,0.13150362476387525,0.17535993441701436,0.18676482529327354,0.09782040869238665
273,16.048,15.79,0.27,0.14964237271804348,0.06373129833984906,0.1310000642332093,0.17536444561383752,0.18517886096358252,0.09817318296115593
274,16.11,15.85,0.18,0.14807012953359697,0.06427017871820014,0.13050212172716746,0.1753845929861871,0.18359911555024114,0.0985322798241743
275,16.151,15.9,0.19,0.1465079201915258,0.06482052894817604,0.1300101326726691,0.17542119549609375,0.18202654381843353,0.09889794301097725
276,16.213,15.96,0.24,0.14495668898804398,0.06538261398682056,0.12952441895727054,0.17547506984055028,0.18046208549356413,0.09927041103654749
277,16.275,16.01,0.18,0.14341736344927186,0.06595669468053568,0.1290452887642762,0.1755470293264394,0.17890666448140372,0.09964991703158564
278,16.337,16.07,0.15,0.1418908536447567,0.06654302743041365,0.12857303642495227,0.17563788273986555,0.17736118810684956,0.10003668857947667
279,16.399,16.12,0.23,0.14037805151728514,0.06714186386188517,0.12810794228759115,0.175748433212038,0.17582654637178377,0.10043094755987915
280,16.44,16.18,0.2,0.13887983022929085,0.06775345049932639,0.12765027260313064,0.1758794770839375,0.17430361123250807,0.10083290999884309
281,16.481,16.23,0.12,0.1373970435261872,0.0683780284463014,0.12720027942699091,0.17603180277206049,0.17279323589723153,0.10124278592533939
282,16.584,16.29,0.16,0.13593052511699688,0.06901583307211662,0.12675820053675171,0.17620618963760212,0.17129625414409202,0.10166077923405989
283,16.605,16.34,0.16,0.13448108807270215,0.06966709370534645,0.12632425936526562,0.17640340686151842,0.16981347966019797,0.10208708755432673
284,16.647,16.4,0.07,0.13304952424278144,0.07033203333497567,0.1258986649487961,0.17662421232798126,0.16834570540217447,0.10252190212495
285,16.709,16.45,0.05,0.13163660369041508,0.07101086831981539,0.1254816118897642,0.1768693515188291,0.16689370297868403,0.10296540767489255
286,16.77,16.51,0.07,0.13024307414682573,0.07170380810688685,0.12507328033367446,0.17713955642172396,0.1654582220553691,0.10341778230962828
287,16.832,16.56,-0.02,0.1288696604851754,0.07241105495950348,0.12467383595976589,0.1774355444548151,0.16403998978263157,0.10387919740310396
288,16.873,16.62,-0.05,0.12751706421437076,0.07313280369578919,0.12428342998490159,0.17775801741075606,0.16263971024661555,0.10434981749522822
289,16.976,16.67,0.01,0.12618596299305324,0.07386924143831938,0.12390219918017649,0.17810766042288095,0.16125806394370623,0.10482980019480384
290,16.996,16.73,0.02,0.12487701016398692,0.07462054737544332,0.12353026589971226,0.17848514095617335,0.1598957072788066,0.1053192960877929
291,17.037,16.78,-0.05,0.12359083430901702,0.07538689253467606,0.12316773812112358,0.17889110782537543,0.1585532720876073,0.10581844865077386
292,17.1,16.84,0.0,0.12232803882475993,0.07616843956839249,0.12281470949716772,0.1793261902422753,0.15723136518304126,0.10632739416941973
293,17.161,16.89,0.04,0.12108920151920985,0.07696534255194319,0.12247125941812678,0.1797909968939427,0.15593056792611365,0.10684626166180543
294,17.202,16.95,-0.04,0.11987487422950728,0.07777774679423793,0.12213745308452269,0.18028611505345968,0.15465143582130794,0.10737517280634662
295,17.329,17.0,-0.07,0.11868558246118997,0.07860578866079602,0.12181334158982125,0.18081210972450268,0.15339449813678138,0.10791424187418601
296,17.349,17.06,-0.01,0.11752182504932629,0.07944959540922185,0.1214989620128422,0.18136952282095498,0.15216025754957457,0.10846357566585131
297,17.37,17.11,-0.07,0.11638407384200093,0.08030928503701378,0.12119433751965657,0.18195887238253716,0.15094918981606484,0.1090232734520214
298,17.412,17.17,-0.12,0.11527277340667193,0.0811849661415578,0.1208994774748097,0.18258065182725874,0.14976174346788165,0.10959342691825356
299,17.474,17.22,-0.18,0.11418834075992802,0.08207673779209897,0.1206143775617482,0.18323532924132407,0.14859833953348256,0.11017412011354331
300,17.535,17.28,-0.18,0.11313116512115388,0.08298468941342883,0.12033901991236326,0.18392334670694246,0.1474593712855615,0.11076542940260596
301,17.577,17.33,-0.28,0.11210160769054642,0.08390890068098399,0.1200733732455963,0.1846451196682656,0.14634520401441364,0.11136742342181744
302,17.741,17.39,-0.24,0.11110000145183159,0.08484944142703242,0.1198173930150701,0.1854010363354804,0.14525617482730768,0.11198016303884842
303,17.762,17.44,-0.21,0.11012665099992086,0.08580637155762198,0.11957102156569782,0.1861914571270043,0.14419259247383057,0.11260370131614648
304,17.782,17.5,-0.27,0.1091818323936423,0.0867797409799688,0.11933418829918754,0.18701671414977147,0.14315473719709224,0.11323808347852223
305,17.803,17.55,-0.26,0.10826579303359841,0.08776958953997613,0.11910680984831101,0.18787711071772034,0.142142860610621,0.11388334688515483
306,17.864,17.61,-0.19,0.10737875156515843,0.08877594696959411,0.11888879025975874,0.18877292090871756,0.14115718560075255,0.11453952100635238
307,17.925,17.66,-0.23,0.10652089780660191,0.08979883284374869,0.11868002118537448,0.18970438916023946,0.14019790625430353,0.11520662740539776
308,17.987,17.72,-0.26,0.10569239270247048,0.09083825654658234,0.11848038208154424,0.19067172990417516,0.13926518781132077,0.1158846797257938
309,18.049,17.77,-0.22,0.104893368302233,0.09189421724676092,0.11828974041650149,0.19167512724112915,0.1383591666427063,0.11657368368419012
310,18.09,17.83,-0.19,0.10412392776440675,0.09296670388159795,0.11810795188530898,0.19271473465457933,0.13747995025253068,0.117273637069241
311,18.137,17.88,-0.28,0.10338414538629612,0.09405569514973632,0.11793486063229441,0.19379067476516335,0.13662761730485382,0.11798452974662783
312,18.198,17.94,-0.25,0.10267406665950526,0.09516115951212721,0.11777029948074144,0.19490303912527018,0.13580221767487338,0.11870634367048058
313,18.26,17.99,-0.23,0.10199370835136237,0.09628305520106727,0.11761409016965989,0.19605188805404467,0.1350037725242273,0.11943905290144147
314,18.321,18.05,-0.2,0.10134305861236383,0.09742133023708764,0.11746604359747245,0.19723725051290886,0.13423227440027533,0.12018262363162542
315,18.422,18.1,-0.25,0.10072207710969366,0.0985759224535348,0.11732596007244339,0.198459124021768,0.13348768735918076,0.1209370142167291
316,18.443,18.16,-0.19,0.10013069518679371,0.09974675952872673,0.11719362956964431,0.1997174746161541,0.13276994711262052,0.12170217521549048
317,18.485,18.21,-0.24,0.09956881604886263,0.10093375902559237,0.11706883199422052,0.20101223684558475,0.13207896119797177,0.12247804943658216
318,18.527,18.27,-0.28,0.09903631497405843,0.10213682843869769,0.11695133745069529,0.20234331381333198,0.13141460917185085,0.1232645719928694
319,18.568,18.32,-0.22,0.09853303955009252,0.10335586524853337,0.11684090651803278,0.20371057725762973,0.130776742826892,0.12406167036283236
320,18.63,18.38,-0.21,0.09805880993585951,0.10459075698290098,0.11673729053018594,0.2051138676741205,0.13016518643165526,0.1248692644588763
321,18.693,18.43,-0.29,0.09761341914774604,0.10584138128520952,0.11664023186188195,0.20655299447911282,0.1295797369935444,0.12568726670223535
322,18.797,18.49,-0.28,0.0971966333702859,0.10710760598950644,0.11654946421943356,0.20802773621304158,0.1290201645446129,0.1265155821041916
323,18.818,18.54,-0.25,0.09680819229086492,0.10838928920210654,0.11646471293640288,0.20953784078342474,0.12848621245014064,0.12735410835336303
324,18.859,18.6,-0.33,0.09644780945821718,0.10968627938973265,0.11638569527397873,0.21108302574656762,0.12797759773986073,0.12820273590885842
325,18.922,18.65,-0.36,0.0961151726644779,0.11099841547413357,0.1163121207259464,0.21266297862728198,0.12749401146170405,0.12906134809914782
326,18.983,18.71,-0.28,0.095809944350566,0.11232552693318221,0.11624369132812545,0.21427735727592762,0.1270351190579056,0.12992982122653354
327,19.045,18.76,-0.32,0.09553176203466872,0.11366743390845221,0.11618010197213467,0.2159257902621121,0.126600560763295,0.13080802467711986
328,19.086,18.82,-0.39,0.09528023876358806,0.11502394731923153,0.11612104072332054,0.2176078773043797,0.12618995202556746,0.1316958210361728
329,19.15,18.87,-0.36,0.09505496358666914,0.1163948689828735,0.11606618914265296,0.21932318973519052,0.12580288394731282,0.1325930662087433
330,19.213,18.93,-0.36,0.09485550205197016,0.11777999174132953,0.11601522261237454,0.22107127100042506,0.12543892374956717,0.13349960954539916
331,19.233,18.98,-0.44,0.09468139672425513,0.11917909959365296,0.11596781066519082,0.2228516371925423,0.1250976152566276,0.1344152939728953
332,19.295,19.04,-0.42,0.09453216772430942,0.12059196783423262,0.11592361731680421,0.2246637776164002,0.12477847940183959,0.13533995612961147
333,19.336,19.09,-0.36,0.09440731328900781,0.12201836319650733,0.11588230140161283,0.2265071553866461,0.12448101475403328,0.13627342650559376
334,19.397,19.15,-0.43,0.09430631035151393,0.12345804400193923,0.1158435169114116,0.2283812080555216,0.12420469806425383,0.13721552958705055
335,19.459,19.2,-0.47,0.09422861514094194,0.1249107603140822,0.1158069133369351,0.23028534826990915,0.12394898483240568,0.1381660840051708
336,19.521,19.26,-0.39,0.09417366380077496,0.12637625409763906,0.11577213601206286,0.23221896445648404,0.1237133098934126,0.13912490268914385
337,19.583,19.31,-0.45,0.09414087302532415,0.12785425938242823,0.11573882646047745,0.23418142153388283,0.1234970880224821,0.14009179302326188
338,19.625,19.37,-0.49,0.09412964071352899,0.12934450243217016,0.11570662274452914,0.23617206165084034,0.12329971455904441,0.1410665570079872
339,19.667,19.42,-0.44,0.09413934663942367,0.13084670191797704,0.1156751598160273,0.2381902049492702,0.12312056604891684,0.1420489914248698
340,19.729,19.48,-0.44,0.09416935313862133,0.1323605690963965,0.11564406986866511,0.2402351503512461,0.12295900090422678,0.14303888800520673
341,19.79,19.53,-0.51,0.09421900581018852,0.13388580799183322,0.11561298269179011,0.24230617636879792,0.12281436008060337,0.14403603360235342
342,19.894,19.59,-0.52,0.09428763423327712,0.13542211558317482,0.11558152602523976,0.24440254193542418,0.12268596777112552,0.14504021036762182
343,19.914,19.64,-0.48,0.0943745526978378,0.13696918199448305,0.11554932591496163,0.24652348725824116,0.1225731321164922,0.14605119592972324
344,19.955,19.7,-0.53,0.09447906094866815,0.1385266906896474,0.11551600706914705,0.24866823468966717,0.12247514593085314,0.14706876357772847
345,20.016,19.75,-0.55,0.09460044494195387,0.14009431867093033,0.11548119321462967,0.2508359896174161,0.12239128744269895,0.1480926824475312
346,20.077,19.81,-0.47,0.09473797761336701,0.1416717366813399,0.11544450745332062,0.25302594137139345,0.12232082105017096,0.14912271771179925
347,20.119,19.86,-0.48,0.09489091965672229,0.14325860941075583,0.11540557261845576,0.2552372641459331,0.12226299809011958,0.15015863077338248
348,20.181,19.92,-0.53,0.09505852031217271,0.14485459570571352,0.1153640116304091,0.2574691179357451,0.12221705762021813,0.1512001794621251
349,20.285,19.97,-0.46,0.09524001816294643,0.1464593487827396,0.11531944785179679,0.25972064948394546,0.1221822272134317,0.15224711823500395
350,20.305,20.03,-0.43,0.09543464193967625,0.1480725164451287,0.11527150544158199,0.261990993240573,0.122157723764146,0.1532991983794873
351,20.346,20.08,-0.52,0.09564161133143342,0.14969374130306054,0.11521980970789629,0.2642792723300325,0.12214275430527144,0.15435616821999606
352,20.407,20.14,-0.52,0.0958601378026239,0.1513226609969912,0.11516398745930538,0.2665845995259672,0.12213651683564586,0.15541777332735363
353,20.491,20.19,-0.45,0.09608942541493677,0.1529589084243144,0.11510366735425703,0.2689060782321438,0.12213820115706939,0.1564837567311298
354,20.512,20.25,-0.51,0.0963286716535601,0.15460211196934237,0.11503848024846176,0.27124280346800006,0.12214698972029871,0.15755385913481473
355,20.553,20.3,-0.56,0.09657706825689881,0.1562518957366958,0.11496805953995667,0.273593862857556,0.12216205847930824,0.1586278191337907
356,20.615,20.36,-0.51,0.09683380204903073,0.1579078797881965,0.11489204151158983,0.27595833762042093,0.12218257775309968,0.1597053734360801
357,20.678,20.41,-0.51,0.09709805577411075,0.15956968038333075,0.11481006567064578,0.2783353035636197,0.12220771309431475,0.16078625708583957
358,20.739,20.47,-0.58,0.09736900893188127,0.16123691022329284,0.11472177508531262,0.28072383207292484,0.12223662616387265,0.16187020368955152
359,20.801,20.52,-0.55,0.09764583861337515,0.16290917869854685,0.11462681671766312,0.2831229911023674,0.12226847561082115,0.16295694564484461
360,20.843,20.58,-0.51,0.09792772033584125,0.1645860921397663,0.11452484175279615,0.2855318461606201,0.12230241795656213,0.16404621437185304
361,20.927,20.63,-0.57,0.09821382887590092,0.1662672540719417,0.11441550592377052,0.2879494612929849,0.12233760848258583,0.165137740547015
362,20.989,20.69,-0.52,0.09850333909996095,0.16795226547141556,0.11429846983196086,0.29037490005776395,0.12237320212081947,0.16623125433922728
363,21.01,20.74,-0.45,0.09879542679095116,0.1696407250256144,0.11417339926247268,0.29280722649585567,0.12240835434567915,0.16732648564829672
364,21.051,20.8,-0.5,0.09908926947051666,0.17133222939527645,0.11403996549427084,0.29524550609247185,0.1224422220669077,0.16842316434562238
365,21.134,20.85,-0.52,0.09938404721585996,0.1730263734789935,0.11389784560469084,0.2976888067299197,0.12247396452229231,0.16952102051700416
366,21.155,20.91,-0.43,0.09967894347049011,0.17472275067988577,0.11374672276800185,0.30013619963044524,0.1225027441693755,0.17061978470739697
367,21.217,20.96,-0.43,0.09997314584819073,0.17642095317420542,0.113586286547681,0.3025867602881747,0.1225277275752939,0.17171918816735107
368,21.278,21.02,-0.49,0.10026584692955254,0.17812057218163097,0.11341623318204135,0.305039569389218,0.12254808630389227,0.17281896310081227
369,21.361,21.07,-0.47,0.10055624505042376,0.17982119823699005,0.11323626586283454,0.30749371371903345,0.1225629977992736,0.1739188429139016
370,21.382,21.13,-0.47,0.10084354508162038,0.1815224214631299,0.113046095006432,0.309948287056192,0.12257164626496451,0.17501856246424788
371,21.444,21.18,-0.53,0.10112695919920914,0.18322383184464489,0.1128454385171965,0.31240239105170275,0.122573223537879,0.17611785831042662
372,21.486,21.24,-0.53,0.101405707644629,0.1849250195021807,0.1126340220427017,0.3148551360930622,0.12256692995624548,0.17721646896107465
373,21.568,21.29,-0.45,0.10167901947385884,0.18662557496705864,0.11241157922055853,0.3173056421521438,0.12255197522063388,0.1783141351232764
374,21.609,21.35,-0.51,0.1019461332947983,0.18832508945599105,0.11217785191674076,0.31975303961595597,0.12252757924718456,0.17941059994984784
375,21.651,21.4,-0.55,0.10220629799201428,0.19002315514568452,0.11193259045541247,0.3221964700991947,0.12249297301211302,0.1805056092851644
376,21.732,21.46,-0.46,0.10245877343802219,0.19171936544714635,0.11167555384031465,0.3246350872374536,0.12244739938654771,0.1815989119091893
377,21.774,21.51,-0.43,0.10270283119031674,0.19341331527950686,0.11140650996778874,0.32706805745991246,0.12239011396074626,0.18269025977936137
378,21.836,21.57,-0.48,0.10293775517342597,0.19510460134314675,0.11112523583152814,0.3294945607403024,0.1223203858567277,0.1837794082700125
379,21.877,21.62,-0.43,0.10316284234532283,0.19679282239189133,0.1108315177191606,0.33191379132494037,0.12223749852836094,0.18486611640898978
380,21.94,21.68,-0.4,0.10337740334758096,0.19847757950401734,0.1105251514007857,0.334324958436661,0.1221407505479746,0.18595014711115307
381,22.002,21.73,-0.49,0.1035807631387034,0.2001584763518188,0.1102059423096129,0.33672728695353776,0.12202945637858358,0.1870312674084117
382,22.103,21.79,-0.49,0.10377226161006521,0.20183511946950963,0.10987370571485208,0.33912001806139846,0.12190294713084825,0.1881092486759821
383,22.123,21.84,-0.42,0.1039512541838987,0.20350711851928638,0.10952826688699135,0.3415024098792875,0.12176057130389213,0.1891838668545699
384,22.164,21.9,-0.48,0.10411711239271383,0.20517408655541752,0.10916946125557307,0.34387373805713994,0.1216016955090956,0.190254902668204
385,22.205,21.95,-0.46,0.10426922443949425,0.20683564028625306,0.10879713455954712,0.3462332963450047,0.12142570517596382,0.1913221418374635
386,22.266,22.01,-0.37,0.10440699573794641,0.20849140033404628,0.10841114299023902,0.3485803971331975,0.1212320052391523,0.19238537528782815
387,22.329,22.06,-0.36,0.10452984943204552,0.21014099149243623,0.10801135332692224,0.35091437196279857,0.12102002080573236,0.19344439935285335
388,22.431,22.12,-0.42,0.10463722689412491,0.21178404298137657,0.10759764306492796,0.35323457200595326,0.12078919780179695,0.19449901597183916
389,22.451,22.17,-0.36,0.10472858820079783,0.21342018869925025,0.10716990053615812,0.35554036851552107,0.12053900359754582,0.19554903288163594
390,22.471,22.23,-0.32,0.1048034125860697,0.21504906747190378,0.10672802502180705,0.3578311532437548,0.12026892761003641,0.19659426380222178
391,22.533,22.28,-0.38,0.10486119887108486,0.2166703232983607,0.10627192685706223,0.3601063388298542,0.11997848188282717,0.19763452861571285
392,22.595,22.34,-0.37,0.10490146587003742,0.21828360559302318,0.10580152752754421,0.3623653591564144,0.11966720164176921,0.19866965353852012
393,22.657,22.39,-0.3,0.10492375277185934,0.21988856942422585,0.10531675975725233,0.3646076696749452,0.11933464582622734,0.19969947128642504
394,22.699,22.45,-0.35,0.10492761949737113,0.22148487574904496,0.10481756758779961,0.36683274770073565,0.11898039759503463,0.2007238212323907
395,22.76,22.5,-0.37,0.1049126470316285,0.22307219164429307,0.10430390644872804,0.36904009267737364,0.11860406480650248,0.20174254955695192
396,22.821,22.56,-0.28,0.10487843773121379,0.224650190533638,0.10377574321868697,0.37122922641125283,0.11820528047182935,0.2027555093910318
397,22.883,22.61,-0.3,0.10482461560621122,0.22621855241076935,0.10323305627723926,0.37339969327640427,0.11778370318127324,0.2037625609510131
398,22.925,22.67,-0.35,0.10475082657658043,0.22777696405848893,0.1026758355470386,0.37555106038999003,0.11733901750247767,0.20476357166587247
399,22.968,22.72,-0.26,0.10465673870261957,0.2293251192635195,0.10210408252610115,0.3776829177588188,0.11687093435036619,0.20575841629616012
400,23.071,22.78,-0.21,0.10454204238921895,0.23086271902670297,0.10151781030987805,0.3797948783972823,0.11637919132805599,0.2067469770445923
401,23.092,22.83,-0.26,0.1044064505636578,0.23238947176813052,0.10091704360283875,0.3818865784171692,0.11586355303828037,0.20772914365802564
402,23.154,22.89,-0.25,0.10424969882678045,0.23390509352667238,0.10030181871929768,0.3839576770898695,0.1153238113648616,0.2087048135206035
403,23.195,22.94,-0.16,0.10407154557749189,0.23540930815337743,0.09967218357326664,0.3860078568815354,0.11475978572383752,0.20967389173789477
404,23.258,23.0,-0.22,0.10387177211062057,0.23690184749826512,0.09902819765718876,0.38803682346177576,0.1141713232839137,0.2106362912118762
405,23.298,23.05,-0.25,0.10365018268829562,0.23838245159010027,0.0983699320094863,0.390044305686445,0.11355829915596649,0.2115919327066431
406,23.359,23.11,-0.18,0.10340660458506468,0.23985086880880113,0.09769746917091371,0.39203005555505877,0.11292061655137543,0.21254074490475428
407,23.42,23.16,-0.19,0.10314088810704732,0.2413068560501606,0.09701090312975462,0.39399384814331484,0.1122582069090092,0.2134826644541274
408,23.482,23.22,-0.24,0.10285290658546926,0.24275017888256903,0.09631033925593253,0.39593548151115143,0.11157102999072538,0.2144176360054165
409,23.583,23.27,-0.19,0.10254255634495636,0.2441806116954303,0.09559589422412554,0.3978547765867551,0.110859073945278,0.21534561223982251
410,23.604,23.33,-0.18,0.10220975664699346,0.24559793783895417,0.09486769592599578,0.39975157702694347,0.11012235534056493,0.21626655388730545
411,23.645,23.38,-0.25,0.10185444960897093,0.2470019497549891,0.0941258833716783,0.40162574905435755,0.10936091916418422,0.217180429735188
412,23.686,23.44,-0.25,0.10147660009923644,0.24839244909855498,0.09337060658070759,0.40347718127192134,0.10857483879230241,0.21808721662716885
413,23.746,23.49,-0.17,0.10107619560853393,0.24976924684975896,0.09260202646258406,0.40530578445505266,0.10776421592686687,0.21898689945278735
414,23.809,23.55,-0.22,0.10065324609816675,0.25113216341580974,0.09182031468719835,0.40711149132214364,0.10692918050121633,0.21987947112740036
415,23.85,23.6,-0.25,0.10020778382518619,0.2524810287228893,0.09102565354533979,0.4088942562838399,0.10606989055416505,0.22076493256273533
416,23.932,23.66,-0.17,0.0997398631448996,0.25381568229768064,0.09021823579952103,0.4106540551716469,0.10518653207266539,0.22164329262807228
417,23.974,23.71,-0.18,0.099249560291025,0.25513597333838645,0.08939826452536329,0.4123908849463592,0.10427931880319612,0.22251456810208584
418,24.035,23.77,-0.23,0.09873697313387497,0.25644176077510206,0.08856595294380797,0.4141047633867726,0.10334849203206718,0.2233787836153677
419,24.097,23.82,-0.17,0.09820222091701794,0.2577329133194363,0.08772152424444773,0.4157957287591161,0.10239432033488091,0.22423597158365668
420,24.178,23.88,-0.17,0.0976454439729326,0.2590093095033054,0.08686521140031515,0.4174638394676455,0.10141709929544235,0.22508617213181936
421,24.199,23.93,-0.22,0.09706680341823812,0.260270837706867,0.08599725697452568,0.41910917368684614,0.10041715119446523,0.22592943300865578
422,24.239,23.99,-0.23,0.09646648082914053,0.2615173961756208,0.08511791291922723,0.42073182897573225,0.09939482466846877,0.22676580949265188
423,24.3,24.04,-0.18,0.09584467789778972,0.26274889302676774,0.08422744036734318,0.4223319218747996,0.0983504943393073,0.2275953642888474
424,24.361,24.1,-0.27,0.09520161607028627,0.2639652462449715,0.0833261094175911,0.42390958748627144,0.09728456041481201,0.22841816741704124
425,24.424,24.15,-0.28,0.09453753616709955,0.265166383667706,0.08241419891319239,0.4254649790383786,0.09619744826105046,0.2292342960915948
426,24.486,24.21,-0.21,0.0938526979866466,0.2663522429603908,0.08149199621457899,0.42699826743452757,0.09508960794672917,0.23004383459311067
427,24.527,24.26,-0.23,0.09314737989274621,0.26752277158150967,0.08055979696630547,0.42850964078826514,0.09396151376028104,0.23084687413224841
428,24.588,24.32,-0.29,0.09242187838661041,0.26867792673787383,0.07961790485832268,0.42999930394495167,0.09281366370019681,0.23164351270590816
429,24.67,24.37,-0.23,0.09167650766399006,0.2698176753301441,0.0786666313817467,0.4314674779910338,0.09164657893918964,0.23243385494597876
430,24.691,24.43,-0.23,0.0909115991580825,0.2709419938886794,0.07770629557926093,0.43291439975179374,0.09046080326282468,0.23321801196082018
431,24.733,24.48,-0.29,0.09012750106884723,0.27205086849974813,0.07673722379031779,0.4343403212784434,0.08925690248328909,0.23399610116965325
432,24.794,24.54,-0.27,0.08932457787944523,0.27314429472214613,0.0757597493913458,0.4357455093254482,0.08803546382901951,0.2347682461300632
433,24.857,24.59,-0.21,0.08850320986059872,0.27422227749430705,0.07477421253121108,0.4371302448190169,0.08679709531094762,0.23553457635886546
434,24.919,24.65,-0.27,0.0876637925637443,0.2752848310320588,0.07378095986222431,0.43849482231773085,0.08554242506616712,0.2362952271466176
435,24.961,24.7,-0.3,0.08680673630390628,0.27633197871725357,0.07278034426701988,0.43983954946631887,0.08427210067986894,0.23705033936608388
436,25.024,24.76,-0.23,0.08593246563324505,0.2773637529775747,0.07177272458165691,0.44116474644359627,0.08298678848644059,0.23780005927495984
437,25.065,24.81,-0.29,0.08504141880625225,0.2783801951578601,0.07075846531531349,0.44247074540556874,0.08168717285067446,0.2385445383131457
438,25.127,24.87,-0.36,0.0841340472375755,0.2793813553832672,0.06973793636696367,0.4437578899246499,0.08037395543007203,0.23928393289483654
439,25.168,24.92,-0.3,0.08321081495346315,0.28036729241456204,0.0687115127394389,0.44502653442588297,0.07904785441926468,0.24001840419567336
440,25.229,24.98,-0.31,0.08227219803782167,0.28133807349575535,0.0676795742512857,0.4462770436209968,0.07770960377760315,0.24074811793517562
441,25.29,25.03,-0.39,0.08131868407386016,0.28229377419426416,0.06664250524684288,0.44750979194107,0.07635995244098778,0.2414732441546658
442,25.332,25.09,-0.38,0.08035077158224474,0.2832344782337624,0.06560069430496326,0.4487251629685518,0.07499966351902843,0.2421939569908924
443,25.394,25.14,-0.35,0.07936896945661062,0.28416027731989535,0.06455453394680134,0.4499235488693834,0.07362951347864345,0.24291043444555208
444,25.455,25.2,-0.41,0.07837379639721641,0.2850712709590577,0.06350442034308837,0.45110534982595696,0.07225029131522512,0.24362285815090784
445,25.517,25.25,-0.44,0.07736578034348854,0.2859675662704649,0.062450753021318126,0.45227097347162953,0.07086279771251491,0.24433141313169818
446,25.578,25.31,-0.39,0.07634545790620156,0.28684927779178887,0.0613939345732679,0.45342083432748004,0.06946784419235139,0.24503628756352747
447,25.62,25.36,-0.44,0.07531337380006017,0.2877165272786562,0.06033437036327616,0.45455535324195817,0.06806625225547686,0.2457376725279179
448,25.703,25.42,-0.5,0.07427008027745444,0.2885694434983143,0.05927246823768728,0.455674956834036,0.06665885251461064,0.24643576176418963
449,25.766,25.47,-0.48,0.0732161365641289,0.28940816201777636,0.05820863823585517,0.4567800769404437,0.06524648382101741,0.24713075141832047
450,25.787,25.53,-0.49,0.07215210829745328,0.2902328249867511,0.05714329230308808,0.4578711500675293,0.06382999238581655,0.2478228397889171
451,25.828,25.58,-0.6,0.07107856696794054,0.29104358091565624,0.05607684400591706,0.45894861684822813,0.062410230897286256,0.24851222707042614
452,25.89,25.64,-0.59,0.06999608936463235,0.29184058444900723,0.05500970825006719,0.46001292150459444,0.06098805763541453,0.2491991150937299
453,25.952,25.69,-0.58,0.06890525702495072,0.2926239961344888,0.05394230100150381,0.46106451131636117,0.05956433558494035,0.24988370706430624
454,26.012,25.75,-0.68,0.06780665568958165,0.2933939821880333,0.05287503901092065,0.46210383609601485,0.0581399315481125,0.25056620729817186
455,26.053,25.8,-0.71,0.06670087476290079,0.294150714255253,0.05180833954202544,0.4631313476709077,0.05671571525836651,0.25124682095587175
456,26.136,25.86,-0.66,0.06558850677937723,0.2948943691695887,0.05074262010395651,0.4641474993729602,0.055292558496093026,0.2519257537748002
457,26.156,25.91,-0.73,0.06447014687631511,0.2956251287075204,0.049678298188135274,0.4651527455365102,0.05387133420764163,0.25260321180014045
458,26.239,25.97,-0.8,0.06334639227322361,0.29634317934114784,0.04861579100982093,0.4661475410048362,0.05245291562867437,0.2532794011147015
459,26.279,26.02,-0.77,0.062217841758060076,0.29704871198840666,0.04755551525458555,0.46713234064586084,0.051038175412958985,0.25395452756791287
460,26.322,26.08,-0.78,0.06108509518057309,0.29774192176114445,0.04649788682988391,0.46810759887751285,0.04962798476767161,0.25462879650422565
461,26.383,26.13,-0.87,0.05994875295297832,0.29842300771125335,0.04544332062186737,0.4690737692031983,0.04822321259625364,0.2553024124911749
462,26.444,26.19,-0.86,0.058809415558212445,0.2990921725750483,0.044392230257582654,0.47003130375781665,0.04682472464983947,0.25597557904738794
463,26.507,26.24,-0.87,0.05766768306602836,0.2997496225160874,0.04334502787269979,0.470980652864757,0.04543338268824595,0.25664849837086506
464,26.568,26.3,-0.94,0.056524154657211736,0.30039556686664903,0.04230212388492088,0.4719222646043172,0.044050043651485404,0.25732137106790515
465,26.611,26.35,-0.97,0.055379428156201255,0.3010302178681033,0.04126392677321756,0.47285658439400174,0.04267555884272921,0.25799439588309714
466,26.672,26.41,-0.94,0.054234099572380054,0.3016537904104362,0.04023084286302822,0.47378405458116474,0.04131077312361202,0.2586677694308258
467,26.755,26.46,-1.02,0.05308876265028157,0.3022665017711828,0.03920327611752403,0.4747051140484433,0.03995652412272809,0.25934168592874596
468,26.776,26.52,-1.07,0.05194400842891598,0.3028685713539923,0.03818162793502251,0.4756201978323645,0.038613641458129455,0.26001633693365733
469,26.901,26.57,-1.02,0.05080042481037359,0.30346022042699144,0.037166296952585075,0.47652973675542076,0.0372829459745951,0.2606919110801719
470,26.921,26.63,-1.02,0.04965859613780662,0.30404167186102904,0.036157678855786954,0.4774341570717966,0.035965248996399815,0.26136859382251165
471,26.942,26.68,-1.1,0.048519102782837824,0.3046131498678095,0.03515616619459815,0.47833388012682015,0.03466135159627269,0.2620465671797251
472,27.023,26.74,-1.07,0.04738252074240314,0.30517487973787627,0.03416214820526828,0.4792293220301508,0.033372043881205724,0.26272600948458324
473,27.044,26.79,-1.09,0.04624942124502569,0.30572708757840805,0.03317601063808159,0.48012089334269153,0.03209810429575835,0.26340709513639676
474,27.105,26.85,-1.15,0.045120370366543705,0.3062700000508229,0.03219813559085081,0.4810089987772163,0.030840298943486662,0.26408999435800784
475,27.146,26.9,-1.18,0.043995928655358195,0.3068038441082397,0.031228901348032707,0.4818940369127203,0.029599380927100877,0.2647748729572457
476,27.227,26.96,-1.14,0.04287665076730621,0.3073288467329116,0.030268682225361113,0.482776399922518,0.02837608970792029,0.2654618920931789
477,27.269,27.01,-1.21,0.04176308511028488,0.3078452346738017,0.029317848419905174,0.48365647331608624,0.027171150485154692,0.2661512080475369
478,27.31,27.07,-1.27,0.0406557734987499,0.3083532341844909,0.02837676586546942,0.48453463569457683,0.025985273595498296,0.2668429720016905
479,27.372,27.12,-1.22,0.03955525081819913,0.3088530707615969,0.02744579609324419,0.48541125851981326,0.024819153933482253,0.2675373298195641
480,27.434,27.18,-1.25,0.03846204469973016,0.3093449688838372,0.026525296097589076,0.4862867058964856,0.023673470392991003,0.26823442183682483
481,27.537,27.23,-1.32,0.0373766752047122,0.3098291517518292,0.025615618206787375,0.4871613343671737,0.022548885330303036,0.2689343826566577
482,27.558,27.29,-1.27,0.036299654519525805,0.31030584102871944,0.024717109958558074,0.4880354927197954,0.02144604404897287,0.26963734095240505
483,27.6,27.34,-1.25,0.03523148666021933,0.3107752565817695,0.023830113980071815,0.4889095218070664,0.02036557430683642,0.2703434192773197
484,27.664,27.4,-1.33,0.03417266718684589,0.31123761622507706,0.022954967872199257,0.48978375437755234,0.019308085845392904,0.27105273388166284
485,27.706,27.45,-1.34,0.033123682927210775,0.31169313546366406,0.022092004097714325,0.4906585149179063,0.018274169941791773,0.2717653945373794
486,27.767,27.51,-1.27,0.032085011709781036,0.3121420272392038,0.021241549873179326,0.491534119505914,0.017264398983636332,0.272481504370593
487,27.829,27.56,-1.35,0.031057122105568744,0.31258450167768936,0.020403927064255117,0.492410875673981,0.016279326066794574,0.27320115970218045
488,27.892,27.62,-1.4,0.030040473178864033,0.31302076583936955,0.019579452084199853,0.49328908228269147,0.015319484616380658,0.2739244498966975
489,27.974,27.67,-1.32,0.029035514246746275,0.3134510234712985,0.01876843579533674,0.49416902940403645,0.014385388031045542,0.27465145721992
490,27.994,27.73,-1.35,0.028042684647338226,0.313875474762848,0.01797118341329238,0.4950509982138587,0.013477529350692623,0.2753822567052401
491,28.035,27.78,-1.42,0.027062413516783308,0.31429431610452474,0.017187994413830617,0.49593526089297474,0.012596380947709509,0.276116916029127
492,28.098,27.84,-1.38,0.02609511957491781,0.314707739850424,0.01641916244212589,0.4968220805363626,0.011742394241783595,0.2768554953958302
493,28.181,27.89,-1.35,0.025141210919591418,0.31511593408464844,0.015664975224340325,0.4977117110697298,0.010915999438350943,0.2775980474314709
494,28.202,27.95,-1.44,0.024201084829567298,0.31551908239200854,0.014925714481393784,0.49860439717272403,0.010117605290707467,0.2783446170876483
495,28.264,28.0,-1.44,0.023275127575902367,0.31591736363332606,0.014201655844835456,0.49950037420803384,0.009347598885786393,0.27909524155467746
496,28.367,28.06,-1.39,0.02236371424167569,0.3163109517256694,0.013493068774734761,0.5003998681556516,0.008606345453585195,0.27984995018457093
497,28.388,28.11,-1.44,0.021467208549913266,0.31670001542785103,0.012800216479515548,0.5013030955516248,0.007894188200202304,0.28060876442386945
498,28.428,28.17,-1.46,0.020585962699557928,0.31708471813152256,0.012123355837662395,0.5022102634306571,0.0072114481644186,0.28137169775642135
499,28.49,28.22,-1.37,0.01972031720935045,0.31746521765822094,0.011462737321234274,0.5031215692719481,0.006558424097737247,0.28213875565619273
500,28.552,28.28,-1.42,0.01887060076952449,0.31784166606272823,0.010818604921136251,0.504037200947634,0.005935392367781041,0.2829099355501586
501,28.613,28.33,-1.47,0.018037130101269123,0.31821420944310336,0.010191196074122355,0.5049573366731369,0.005342606884939424,0.2836852267912693
502,28.716,28.39,-1.41,0.017220209823976873,0.318582987757719,0.009580741591532537,0.5058821449586682,0.0047802990521581806,0.28446461064142814
503,28.737,28.44,-1.41,0.01642013233037016,0.31894813464959676,0.00898746558981518,0.5068117845610774,0.004248677737767431,0.2852480602643527
504,28.777,28.5,-1.49,0.015637177669669867,0.3193097772782974,0.00841158542295903,0.5077464044351945,0.003747929271238911,0.28603554072815535
505,28.819,28.55,-1.48,0.01487161343901448,0.3196680361596083,0.007853311617038413,0.5086861436838275,0.0032782174617524092,0.28682700901745944
506,28.88,28.61,-1.45,0.014123694683355217,0.32002302501328583,0.007312847807134359,0.5096311315057096,0.00283968363943839,0.2876224140548621
507,28.922,28.66,-1.53,0.01339366380404931,0.3203748506191348,0.0067903906769057635,0.5105814871409565,0.0024324467191433456,0.28842169673155954
508,28.985,28.72,-1.57,0.012681750476350655,0.32072361268173016,0.006286129901050941,0.5115373198139271,0.002056603286532821,0.28922478994696643
509,29.087,28.77,-1.49,0.011988171575956193,0.3210694037041028,0.005800248090853651,0.5124987286736457,0.0017122277063100944,0.29003161865717153
510,29.108,28.83,-1.51,0.011313131114719238,0.32141230887070704,0.005332920742980079,0.5134658027320392,0.0013993722522887486,0.29084209993207233
511,29.149,28.88,-1.55,0.010656820185600204,0.3217524059399689,0.004884316191678431,0.5144386208002436,0.0011180672590161123,0.2916561430210252
512,29.19,28.94,-1.49,0.010019416916907387,0.32208976514668547,0.004454595564519218,0.5154172514231979,0.0008683212946153722,0.29247364942683435
513,29.252,28.99,-1.46,0.00940108643590048,0.3224244491145218,0.0040439127418063665,0.5164017528127384,0.0006501213545045567,0.2932945129878788
514,29.314,29.05,-1.55,0.008801980841871502,0.3227565127788316,0.0036524143197860146,0.5173921727794363,0.0004634330756496027,0.29411861996816474
515,29.378,29.1,-1.5,0.008222239188863513,0.32308600332004095,0.003280239577770538,0.5183885486635204,0.0003082009710135687,0.2949458491550898
516,29.461,29.16,-1.46,0.007661987478231919,0.3234129601078561,0.002927520449288413,0.5193909072653535,0.00018434868387242248,0.29577607196471684
517,29.482,29.21,-1.54,0.007121338661299333,0.32373741465658445,0.0025943814973746855,0.5203992647760456,9.17792616708707e-05,0.2966091525543727
518,29.523,29.27,-1.56,0.006600392652405179,0.3240593905918487,0.0022809398941242005,0.5214136267088821,3.0375449091085666e-05,0.29744494794241105
519,29.585,29.32,-1.52,0.006099236352719238,0.3243789036289071,0.001987305404634261,0.5224339878323436,0.0,0.29828330813499493
520,29.667,29.38,-1.57,0.005617943685261485,0.32469596156266667,0.0017135803754692329,0.5234603321055423,4.960079272899899e-07,0.29912407625976734
521,29.687,29.43,-1.63,0.005156575641618859,0.325010564269343,0.0014598597277807168,0.5244926326169215,3.168725469556555e-05,0.2999670887062921
522,29.748,29.49,-1.58,0.004715180340847426,0.3253227037196203,0.00122623095520327,0.5255308515270459,9.337857678585877e-05,0.30081217527314436
523,29.81,29.54,-1.57,0.004293793101008288,0.325632364003082,0.0010127741266263742,0.5265749400162759,0.00018535624898103172,0.30165915932151854
524,29.872,29.6,-1.66,0.0038924365237218528,0.3259395213636144,0.0008195618939289814,0.5276248382380422,0.00030738838478347507,0.3025078579352067
525,29.913,29.65,-1.6,0.0035111205920487303,0.3262441442454501,0.000646659504747663,0.5286804752783891,0.0004592253530588555,0.3033580820868007
526,29.975,29.71,-1.56,0.003149842781936418,0.3265461933495237,0.000494124820335423,0.5297417691224543,0.0006406002103222618,0.3042096368099839
527,30.037,29.76,-1.62,0.002808588187429299,0.326845621699862,0.0003620083385572231,0.5308086266285972,0.0008512291480556148,0.30506232137780676
528,30.097,29.82,-1.47,0.002487329659826106,0.32714237471979785,0.0002503532220603127,0.5318809435109727,0.0010908119544237305,0.3059159294868811
529,30.202,29.87,-1.39,0.0021860279609755323,0.32743639031786487,0.00015919533165960922,0.5329586043314091,0.0013590324897584992,0.30677024944745346
530,30.222,29.93,-1.44,0.001904631930920569,0.327727598983278,8.856326500076403e-05,0.53404148250144,0.0016555591752102435,0.30762506437931153
531,30.243,29.98,-1.48,0.0016430786701179636,0.3280159238909268,3.8478400600100225e-05,0.5351294402952288,0.0019800454940325147,0.3084801524134465
532,30.285,30.04,-1.42,0.0014012937364645964,0.3283012810158105,8.95494739882098e-06,0.5362223288739528,0.002332130505056672,0.3093352868993302
533,30.346,30.09,-1.45,0.0011791913573558944,0.32858357925682574,0.0,0.5373199883220487,0.0027114393679902667,0.31019023661760003
534,30.409,30.15,-1.54,0.0009766746569683659,0.3288627205697839,1.161359976754117e-05,0.5384222476956033,0.0031175838802041905,0.31104476599789826
535,30.451,30.2,-1.53,0.0007936358988928962,0.3291386001095075,4.378880194651584e-05,0.5395289250831432,0.0035501630246719735,0.31189863534158946
536,30.554,30.26,-1.51,0.0006299567441616382,0.3294111063808228,9.651174893317403e-05,0.5406398276790947,0.004008763528699683,0.3127516010490706
537,30.575,30.31,-1.6,0.0004855085246185797,0.32968012139824415,0.00016976174979796933,0.541754751870186,0.004492960433043961,0.3136034158514062
538,30.616,30.37,-1.61,0.0003601525314764301,0.32994552085413364,0.00026351136614471515,0.5428734833350631,0.005002317670959505,0.31445382904604346
539,30.677,30.42,-1.54,0.00025374031879434907,0.3302071742951282,0.00037772650437251017,0.5439957971573821,0.005536388656659881,0.3153025867363857
540,30.739,30.48,-1.6,0.00016611402152279342,0.3304649453066342,0.0005123665143963486,0.5451214579526122,0.006094716882618505,0.31614943207501456
541,30.78,30.53,-1.62,9.710668770384114e-05,0.3307186917051995,0.0006673842948710907,0.5462502200087599,0.006676836525084384,0.316994105510353
542,30.841,30.59,-1.54,4.6542624378577266e-05,0.33096826573858884,0.0008427264049447106,0.5473818274411852,0.007282273057148601,0.3178363450365527
543,30.921,30.64,-1.55,1.423775673339637e-05,0.3312135142933895,0.0010383331825500493,0.5485160143616218,0.007910543868670442,0.3186758864463585
544,30.941,30.7,-1.62,0.0,0.331454279109971,0.0012541388692316649,0.5496525050614092,0.008561158892353727,0.31951246358667984
545,31.023,30.75,-1.55,3.62964360778504e-06,0.33169039700459196,0.001490071741492078,0.5507910142088523,0.009233621235249007,0.32034580861657347
546,31.085,30.81,-1.55,2.491974707445941e-05,0.33192170009841737,0.0017460542486283054,0.5519312470605393,0.009927427814948002,0.32117565226731637
547,31.128,30.86,-1.65,6.365654710988125e-05,0.332148016053169,0.002022003157003327,0.5530728996864059,0.010642069999724743,0.3220017241042408
548,31.19,30.92,-1.65,0.00011961987538817331,0.3323691683131074,0.002317829700648812,0.5542156592083449,0.011377034251855307,0.32282375279000564
549,31.273,30.97,-1.6,0.00019258358641184846,0.3325849763530287,0.002633439738029508,0.5553592040522145,0.012131802773319406,0.3236414663489977
550,31.293,31.03,-1.65,0.00028231599484406997,0.33279525593193743,0.0029687339147308643,0.556503204213175,0.01290585415303937,0.324454592432577
551,31.376,31.08,-1.64,0.0003885803216134703,0.33299981935203815,0.0033236078317563185,0.5576473215343605,0.013698664014751182,0.32526285858489695
552,31.396,31.14,-1.54,0.00051113514800512,0.33319847572267075,0.003697952219043057,0.5587912099989438,0.014509705664545165,0.32606599250903884
553,31.437,31.19,-1.54,0.0006497348768603392,0.3333910312287902,0.00409165311373988,0.5599345160356572,0.015338450737075878,0.3268637223331709
554,31.499,31.25,-1.68,0.0008041301999382527,0.3335772894035653,0.004504592042753469,0.5610768788377253,0.016184369839426054,0.3276557768764028
555,31.58,31.3,-1.6,0.0009740685704478186,0.3337570514046501,0.004936646209070189,0.562217930694988,0.017046933191612677,0.32844188591395923
556,31.661,31.36,-1.55,0.001159294679749244,0.33393011629367036,0.005387688681397346,0.5633572973387598,0.017925611262724763,0.32922178044127337
557,31.682,31.41,-1.6,0.00135955093723975,0.3340962813184672,0.005857588586721527,0.5644945982987608,0.0188198754016577,0.32999519293662277
558,31.723,31.47,-1.55,0.0015745779524652895,0.3342553421976559,0.00634621130542183,0.5656294472713592,0.01972919846136906,0.3307618576219983
559,31.785,31.52,-1.49,0.0018041150185275226,0.3344070934070943,0.0068534186685980875,0.5667614524983511,0.020653055415553893,0.3315215107219752
560,31.825,31.58,-1.41,0.0020479005958797263,0.334551328467898,0.007379069157286399,0.5678902171555363,0.021590923966635943,0.3322738907204277
561,31.886,31.63,-1.41,0.0023056727956134995,0.3346878402356854,0.007923018103234081,0.569015339750398,0.022542285143989725,0.33301873861497566
562,31.948,31.69,-1.34,0.002577169861325659,0.33481642119077754,0.00848511789089552,0.5701364145282184,0.023506623891351684,0.3337557981690381
563,32.052,31.74,-1.39,0.002862130648624347,0.3349368637290905,0.009065218160299107,0.5712530318859628,0.024483429642447405,0.3344848161612669
564,32.071,31.8,-1.41,0.0031602951012902137,0.33504896045343546,0.00966316601042167,0.5723647787931908,0.025472196883936378,0.33520554263199537
565,32.111,31.85,-1.32,0.003471404723058206,0.3351525044648817,0.01027880620268142,0.5734712392191835,0.02647242570483417,0.3359177311262104
566,32.173,31.91,-1.26,0.0037952030439478554,0.3352472896537535,0.010911981364125621,0.5745719945654049,0.027483622331602415,0.33662113893249856
567,32.214,31.96,-1.29,0.004131436080050148,0.33533311098975244,0.01156253218984957,0.5756666241023927,0.028505299648110213,0.33731552731742165
568,32.297,32.02,-1.23,0.004479852785684555,0.3354097648106569,0.012230297644147906,0.5767547054102021,0.02953697769969614,0.3380006617548123
569,32.38,32.07,-1.18,0.004840205496876031,0.3354770491090564,0.012915115159883759,0.5778358148215874,0.03057818418061079,0.3386763121495254
570,32.401,32.13,-1.2,0.005212250365163907,0.3355347638166203,0.01361682083557288,0.5789095278671624,0.0316284549041816,0.3393422530552186
571,32.442,32.18,-1.18,0.005595747780837263,0.3355827110854502,0.01433524962970526,0.5799754197218477,0.03268733425510117,0.3399982638857806
572,32.503,32.24,-1.08,0.00599046278479275,0.3356206955661071,0.015070235551855453,0.5810330656519608,0.033754375623299214,0.340644129120063
573,32.566,32.29,-1.11,0.00639616546831735,0.3356485246819244,0.01582161185016397,0.5820820414623253,0.03482914181891479,0.34127963849958715
574,32.607,32.35,-1.14,0.0068126313601825205,0.33566600889922893,0.016589211194797154,0.5831219239427646,0.035911205467941666,0.34190458721891487
575,32.648,32.4,-1.12,0.007239641800484621,0.3356729619930932,0.017372865857003098,0.5841522913133298,0.03700014938817728,0.3425187761083709
576,32.752,32.46,-1.09,0.007676984300690748,0.3356692013082312,0.01817240788338394,0.5851727236676069,0.038095566945156555,0.3431220118088228
577,32.773,32.51,-1.15,0.008124452889353623,0.3356545480146287,0.018987669265003608,0.5861828034134424,0.03919706238778173,0.34371410693825655
578,32.814,32.57,-1.09,0.008581848442938775,0.33562882735749405,0.01981848210094306,0.5871821157104579,0.04030425116337144,0.3442948802499505
579,32.874,32.62,-1.03,0.009048979001172474,0.3355918689011359,0.020664678755908713,0.5881702489037793,0.04141676021185766,0.3448641567821143
580,32.937,32.68,-1.05,0.009525660066284254,0.33554350676640693,0.021526092011501363,0.5891467949534807,0.04253422823887081,0.3454217679989195
581,32.999,32.73,-1.04,0.010011714885503026,0.33548357986140404,0.0224025552107582,0.5901113498593124,0.04365630596747668,0.3459675519228831
582,33.041,32.79,-0.95,0.010506974716184142,0.3354119321051734,0.023293902395594826,0.5910635140803587,0.044782656368372246,0.3465013532585889
583,33.123,32.84,-0.98,0.011011279073000046,0.33532841264422386,0.024199968436808387,0.5920028929492972,0.04591295486840081,0.34702302350772857
584,33.143,32.9,-1.0,0.011524475956702609,0.3352328760616955,0.025120589156351805,0.5929290970809126,0.04704688953730238,0.34753242107543875
585,33.205,32.95,-0.94,0.012046422064045433,0.33512518257905755,0.026055601441641194,0.593841742774472,0.04818416125267016,0.34802941136790205
586,33.288,33.01,-0.94,0.01257698297853306,0.33500519825022124,0.02700484335171022,0.594740452409509,0.04932448384313381,0.34851386688116825
587,33.308,33.06,-1.0,0.013116033341727965,0.3348727951479559,0.027968154215067174,0.5956248548345263,0.05046758420982962,0.3489856672811508
588,33.371,33.12,-0.95,0.013663457004883597,0.3347278515425219,0.02894537471913279,0.5964945857481462,0.05161320242624834,0.3494446994747731
589,33.433,33.17,-0.91,0.014219147160686625,0.33457025207247537,0.02993634699114703,0.5973492880723139,0.05276109181657671,0.34989085767226696
590,33.473,33.23,-0.96,0.014783006454892698,0.3343998879076509,0.03094091467043696,0.5981886123172403,0.05391101901266534,0.3503240434406798
591,33.534,33.28,-0.96,0.015354947077630708,0.33421665690437236,0.0319589229719332,0.5990122169378533,0.0550627639897683,0.3507441657487007
592,33.595,33.34,-0.87,0.01593489083414094,0.33402046375296846,0.032990218740812434,0.5998197686815908,0.056216120081219775,0.3511511410029626
593,33.656,33.39,-0.91,0.01652276919471267,0.33381122011766473,0.03403465049814164,0.6006109429273719,0.05737089397223742,0.35154489307599207
594,33.697,33.45,-0.92,0.01711852332360638,0.33358884476889766,0.03509206847741005,0.6013854240155379,0.05852690567306845,0.3519253533259904
595,33.76,33.5,-0.83,0.017722104086790754,0.3333532637080553,0.036162324651856426,0.6021429055684578,0.05968398847172492,0.3522924606086265
596,33.861,33.56,-0.83,0.018333472038402444,0.33310441028460525,0.03724527275253608,0.6028830908013932,0.06084198886659146,0.3526461612810302
597,33.882,33.61,-0.9,0.01895259738593015,0.33284222530553964,0.03834076827711522,0.6036056928231259,0.06200076647922398,0.35298640919819335
598,33.922,33.67,-0.84,0.019579459934218352,0.3325666571370497,0.03944866848941649,0.6043104349258231,0.06316019394769666,0.3533131657020119
599,33.984,33.72,-0.81,0.02021404900847407,0.3322776617983521,0.040568832409774845,0.6049970508636211,0.064320156800892,0.35362639960323755
600,34.047,33.78,-0.87,0.020856363356541653,0.3319752030476071,0.04170112079630813,0.6056652851194432,0.06548055331415865,0.3539260871566499
601,34.108,33.83,-0.88,0.021506411030778192,0.33165925245990097,0.042845396117267426,0.6063148931596236,0.06664129434678034,0.35421221202980474
602,34.149,33.89,-0.82,0.022164209249912605,0.3313297894973053,0.04400152251470202,0.6069456416759632,0.0678023031617177,0.35448476526574496
603,34.231,33.94,-0.88,0.022829784241298674,0.3309868015710542,0.04516936575974402,0.6075573088148748,0.06896351522809585,0.3547437452400711
604,34.25,34.0,-0.9,0.02350317106397298,0.3306302840958956,0.046348793199867476,0.608149684393267,0.07012487800691132,0.35498915761276134
605,34.311,34.05,-0.81,0.024184413412909955,0.3302602405366588,0.047539673698499915,0.6087225701007908,0.07128635072042731,0.3552210152751027
606,34.353,34.11,-0.79,0.024873563404841086,0.3298766824470331,0.04874187756736919,0.609275779688033,0.07244790410572213,0.3554393382920423
607,34.416,34.16,-0.83,0.02557068134598641,0.3294796295004824,0.04995527649196374,0.6098091391402021,0.07360952015285731,0.3556441538402223
608,34.477,34.22,-0.78,0.02627583548204768,0.3290691095131663,0.05117974345047828,0.6103224868358254,0.07477119182814927,0.3558354961419267
609,34.539,34.27,-0.75,0.026989101730849965,0.32864515845870534,0.05241515262662647,0.610815673689965,0.07593292278306413,0.35601340639515144
610,34.62,34.33,-0.8,0.027710563398089184,0.3282078204746282,0.05366137931672657,0.6112885632814765,0.07709472704929678,0.3561779327000195
611,34.641,34.38,-0.8,0.028440310876727996,0.32775714786037724,0.054918299831492996,0.6117410319638985,0.07825662872063202,0.35632912998178917
612,34.704,34.44,-0.72,0.029178441330665453,0.3272932010668111,0.05618579139299721,0.6121729689596581,0.07941866162221559,0.3564670599107367
613,34.745,34.49,-0.78,0.029925058363376705,0.3268160486772203,0.05746373202729945,0.6125842764373524,0.08058086896788257,0.35659179081922043
614,34.807,34.55,-0.81,0.03068027167226498,0.3263257673799425,0.05875200045327359,0.61297486957198,0.081743303006202,0.35670339761624953
615,34.868,34.6,-0.74,0.031444196689489716,0.3258224419327185,0.06005047596812837,0.6133446765881948,0.08290602465590578,0.356801961699866
616,34.971,34.66,-0.76,0.03221695421004199,0.32530616511893545,0.06135903833008433,0.6136936387868583,0.08406910313137879,0.3568875708676122
617,35.015,34.71,-0.84,0.03299867000783473,0.32477703769587185,0.06267756763862448,0.6140217105553115,0.0852326155588882,0.3569603192252978
618,35.035,34.77,-0.79,0.033789474440560095,0.3242351683349952,0.06400594421270042,0.614328859361817,0.0863966465842251,0.3570203070942221
619,35.075,34.82,-0.77,0.03458950204404538,0.3236806735542945,0.06534404846723779,0.6146150657346238,0.08756128797242202,0.3570676409169506
620,35.138,34.88,-0.83,0.03539889111681878,0.3231136776425678,0.0666917607882443,0.6148803232260943,0.08872663820018885,0.35710243316171314
621,35.218,34.93,-0.81,0.03621778329557926,0.3225343125755726,0.06804896140678958,0.6151246383623512,0.0898928020416849,0.35712480222547743
622,35.239,34.99,-0.77,0.037046323122264725,0.32194271792397716,0.0694155302721113,0.615348030578933,0.09105989014822394,0.35713487233575625
623,35.321,35.04,-0.81,0.037884657603437476,0.3213390407531243,0.07079134692411133,0.6155505321429735,0.09222801862249347,0.3571327734512135
624,35.342,35.1,-0.82,0.038732935762745044,0.3207234355146949,0.07217629036552345,0.6157321880624304,0.09339730858785507,0.3571186411611451
625,35.426,35.15,-0.74,0.03959130818725174,0.3200960639304435,0.07357023893405387,0.615893055982877,0.09456788575328194,0.35709261658391295
626,35.468,35.21,-0.76,0.040459926568465344,0.3194570948682395,0.07497307017481732,0.6160332060723198,0.0957398799744818,0.35705484626439316
627,35.529,35.26,-0.81,0.04133894323889752,0.318806704210686,0.07638466071341178,0.6161527208944284,0.09691342481174861,0.35700548207047644
628,35.591,35.32,-0.76,0.04222851070499818,0.3181450747166051,0.07780488612998569,0.6162516952704874,0.09808865708508868,0.35694468108862965
629,35.694,35.37,-0.75,0.04312878117730282,0.3174723958756699,0.07923362083466373,0.6163302361303292,0.09926571642717093,0.35687260551849476
630,35.715,35.43,-0.83,0.04403990609862882,0.3167888637564433,0.08067073794470968,0.6163884623524771,0.10044474483464715,0.3567894225664826
631,35.756,35.48,-0.8,0.04496203567113504,0.31609468084806164,0.08211610916380271,0.6164265045937367,0.10162588621837189,0.3566953043383075
632,35.798,35.54,-0.74,0.045895318383010225,0.31539005589581204,0.08356960466378137,0.6164445051085259,0.10280928595302825,0.35659042773040683
633,35.881,35.59,-0.78,0.0468399005354849,0.31467520373087443,0.08503109296917398,0.6164426175582693,0.10399509042663758,0.35647497432018027
634,35.902,35.65,-0.8,0.04779592577079151,0.3139503450945385,0.08650044084479427,0.616421006811216,0.10518344659040134,0.356349130254974
635,35.962,35.7,-0.71,0.04876353460164649,0.3132157064572443,0.08797751318663066,0.6163798487330684,0.1063745015093059,0.35621308613970826
636,36.045,35.76,-0.73,0.04974286394281407,0.3124715198328183,0.08946217291619443,0.6163193299688458,0.10756840191391319,0.3560670369230164
637,36.064,35.81,-0.77,0.0507340466453235,0.3117180225882773,0.09095428087841115,0.6162396477164398,0.10876529375375349,0.3559111817817348
638,36.125,35.87,-0.72,0.05173721103394049,0.3109554572495514,0.0924536957430616,0.61614100949233,0.10996532175273516,0.3557457240035664
639,36.167,35.92,-0.68,0.052752480448530016,0.3101840713034469,0.09396027390974236,0.6160236328899003,0.11116862896698514,0.3555708708677393
640,36.229,35.98,-0.73,0.053779972789978404,0.30940411699614195,0.09547386941632033,0.61588774533075,0.11237535634553153,0.35538683352349704
641,36.311,36.03,-0.71,0.05481980007134964,0.3086158511285137,0.09699433385086673,0.6157335838093986,0.11358564229423461,0.355193826866289
642,36.351,36.09,-0.68,0.05587206797492917,0.3078195348486322,0.09852151626705127,0.615561394631848,0.11479962224337159,0.35499206941155487
643,36.433,36.14,-0.72,0.056936875415767606,0.3070154334418011,0.10005526310295884,0.6153714331485651,0.11601742821927714,0.3547817831660149
644,36.454,36.2,-0.73,0.058014314112279614,0.30620381611854874,0.1015954181032611,0.6151639634825444,0.1172391884204287,0.3545631934963844
645,36.496,36.25,-0.64,0.05910446816439099,0.30538495580096603,0.10314182224463707,0.6149392582531736,0.11846502679834742,0.3543365289954282
646,36.557,36.31,-0.64,0.060207413639675904,0.30455912890773545,0.1046943136643041,0.6146975982966286,0.11969506264366338,0.3541020213452544
647,36.619,36.36,-0.67,0.06132321816789906,0.3037266151381347,0.10625272759150346,0.6144392723834753,0.12092941017767754,0.3538599051777311
648,36.683,36.42,-0.58,0.06245194054437612,0.3028876972552499,0.10781689628178094,0.614164576934088,0.12216817814975015,0.35361041793189124
649,36.786,36.47,-0.55,0.0635936303425941,0.3020426608686064,0.10938664895392677,0.6138738157324015,0.12341146944086247,0.35335379970817904
650,36.806,36.53,-0.6,0.06474832753657847,0.301191794216414,0.11096181172949096,0.6135672996384175,0.12465938067372069,0.35309029311938783
651,36.827,36.58,-0.55,0.06591606213353489,0.3003353879476398,0.11254220757485471,0.613245346299789,0.12591200182979753,0.35282014313816723
652,36.888,36.64,-0.5,0.067096853817326,0.29947373490416357,0.11412765624589842,0.6129082798627685,0.12716941587373531,0.3525435969410112
653,36.949,36.69,-0.54,0.06829071160336557,0.29860712990330407,0.11571797423535835,0.6125564306828059,0.1284316983855578,0.3522609037486763
654,37.011,36.75,-0.57,0.06949763350551855,0.29773586952103404,0.11731297472299444,0.6121901350351038,0.12969891720115256,0.3519723146630135
655,37.052,36.8,-0.5,0.07071760621557585,0.29686025187621273,0.11891246752870104,0.6118097348254592,0.13097113206149757,0.3516780825002102
656,37.196,36.86,-0.52,0.07195060479583276,0.2959805764161499,0.12051625906868593,0.6114155773017003,0.13224839427110588,0.3513784616204389
657,37.216,36.91,-0.57,0.07319659238524133,0.2950971437037738,0.1221241523148347,0.611008014765949,0.1335307463661526,0.3510737077539122
658,37.236,36.97,-0.49,0.0744555199195468,0.2942102552066134,0.12373594675737146,0.6105874042878227,0.13481822179272857,0.3507640778233455
659,37.277,37.02,-0.45,0.07572732586577606,0.2933202130877326,0.12535143837093646,0.6101541074185528,0.1361108445956507,0.35044982976283645
660,37.338,37.08,-0.5,0.07701193597143183,0.2924273199987033,0.1269704195842164,0.6097084899058945,0.13740862911824508,0.3501312223331937
661,37.38,37.13,-0.45,0.0783092630287509,0.29153187887469084,0.12859267925327056,0.6092509214096679,0.13871157971351958,0.34980851493378295
662,37.442,37.19,-0.37,0.07961920665440383,0.2906341927317514,0.13021800263869746,0.6087817752178131,0.14001969046715465,0.34948196741101545
663,37.524,37.24,-0.41,0.08094165308504515,0.28973456446648166,0.13184617138679108,0.6083014279629129,0.14133294493276172,0.3491518398636612
664,37.546,37.3,-0.43,0.08227647498915566,0.2888332966581909,0.13347696351484098,0.6078102593392176,0.14265131587987834,0.34881839244523005
665,37.629,37.35,-0.34,0.08362353129564162,0.287930691373791,0.1351101534007266,0.6073086518202924,0.1439747650551962,0.34848188516369905
666,37.671,37.41,-0.37,0.08498266703966038,0.28702704997560047,0.1367455117769545,0.6067969903774509,0.14530324295754365,0.3481425776788791
667,37.734,37.46,-0.44,0.08635371322611958,0.28612267293224924,0.13838280572927952,0.6062756621991454,0.1466366886271563,0.34780072909772125
668,37.775,37.52,-0.36,0.08773648671124971,0.2852178596328434,0.14002179870003933,0.6057450564114755,0.14797502944977428,0.34745659776786636
669,37.838,37.57,-0.35,0.08913079010259059,0.2843129082045123,0.14166225049631612,0.6052055637999869,0.1493181809760982,0.3471104410697445
670,37.901,37.63,-0.42,0.09053641167766496,0.28340811533341775,0.14330391730303274,0.6046575765329357,0.15066604675711917,0.34676251520754625
671,37.942,37.68,-0.38,0.09195312532155353,0.2825037760892856,0.14494655170107976,0.6041014878862307,0.15201851819581735,0.34641307499941115
672,38.003,37.74,-0.31,0.09338069048354936,0.28160018375352813,0.14658990269056388,0.6035376919703166,0.15337547441570634,0.34606237366720854
673,38.085,37.79,-0.36,0.09481885215307985,0.2806976296510495,0.14823371571927818,0.6029665834592963,0.15473678214668465,0.345710662626316
674,38.127,37.85,-0.4,0.09626734085512435,0.2797964029858657,0.14987773271650448,0.6023885573226222,0.15610229562864247,0.34535819127582507
675,38.147,37.9,-0.28,0.09772587266540614,0.278896790680702,0.15152169213226496,0.6018040085597086,0.1574718565332659,0.34500520678961294
676,38.208,37.96,-0.31,0.09919414924567857,0.2779990772207475,0.15316532898214805,0.6012133319378178,0.15884529390447663,0.34465195390871933
677,38.27,38.01,-0.37,0.10067185789944677,0.27710354450174884,0.1548083748978468,0.6006169217335351,0.16022242411793985,0.34429867473546233
678,38.312,38.07,-0.33,0.10215867164847013,0.27621047168261126,0.15645055818356948,0.6000151714780868,0.16160305086006577,0.3439456085297098
679,38.374,38.12,-0.34,0.10365424933039417,0.27532013504264136,0.158091603878511,0.5994084737066859,0.16298696512692637,0.3435929915076881
680,38.457,38.18,-0.42,0.10515823571785485,0.2744328078435034,0.1597312338256018,0.5987972197120278,0.1643739452434905,0.343241056643684
681,38.498,38.23,-0.4,0.10667026165936885,0.27354876019590435,0.1613691667467641,0.5981817993020319,0.16576375690353953,0.34289003347499086
682,38.54,38.29,-0.34,0.10818994424226118,0.27266825893099605,0.16300511832490852,0.5975626005619112,0.16715615323057392,0.34254014791046683
683,38.642,38.34,-0.38,0.10971688697780317,0.2717915674764853,0.16463880129290934,0.5969400096206292,0.16855087485995426,0.34219162204309567
684,38.663,38.4,-0.38,0.11125068000866885,0.27091894573747244,0.1662699255298027,0.5963144104217447,0.1699476500424598,0.3418446739669644
685,38.704,38.45,-0.29,0.11279090033878386,0.27005064998206874,0.16789819816445237,0.5956861844985968,0.1713461947694009,0.34149951759907576
686,38.767,38.51,-0.32,0.11433711208564735,0.2691869327318608,0.16952332368692627,0.5950557107537334,0.1727462129193932,0.34115636250639525
687,38.807,38.56,-0.36,0.1158888667552187,0.2683280426572939,0.17114500406780617,0.5944233652424805,0.17414739642688398,0.3408154137385005
688,38.87,38.62,-0.3,0.11744570353945966,0.26747422447804964,0.17276293888563085,0.5937895209605376,0.17554942547251057,0.3404768716661642
689,38.953,38.67,-0.3,0.1190071496366111,0.26662571886848946,0.1743768254626571,0.5931545476354807,0.17695196869535854,0.3401409318261649
690,38.995,38.73,-0.37,0.12057272059426641,0.2657827623682139,0.17598635900912638,0.5925188115220263,0.1783546834271671,0.33980778477260093
691,39.057,38.78,-0.35,0.12214192067527739,0.2649455872977638,0.1775912327762223,0.591882675200921,0.17975721594849764,0.33947761593498
692,39.099,38.84,-0.32,0.12371424324648557,0.2641144216794713,0.1791911382178925,0.5912464973813736,0.1811592017668435,0.3391506054833505
693,39.161,38.89,-0.39,0.1252891711902059,0.2632894891634602,0.1807857651616888,0.5906106327070155,0.18256026591660657,0.3388269282007384
694,39.221,38.95,-0.41,0.12686617733829855,0.26247100895879527,0.1823748019887394,0.5899754315654462,0.1839600232808039,0.33850675336314034
695,39.263,39.0,-0.31,0.12844472492856024,0.26165919576977237,0.18395793582290854,0.5893412399014909,0.18535807893429873,0.33819024462729597
696,39.365,39.06,-0.35,0.13002426808307585,0.2608542597373232,0.1855348527291348,0.5887083990343118,0.18675402850828052,0.3378775599264172
697,39.385,39.11,-0.33,0.13160425230810555,0.260056406385485,0.18710523792088868,0.5880772454784741,0.18814745857565093,0.3375688513740085
698,39.447,39.17,-0.27,0.133184115015039,0.2592658365728691,0.18866877597664927,0.5874481107690082,0.1895379470569219,0.3372642651758639
699,39.467,39.22,-0.24,0.1347632860619299,0.25848274644904845,0.1902251510652802,0.5868213212904494,0.19092506364620085,0.3369639415502957
700,39.529,39.28,-0.3,0.1363411883151145,0.25770732741576835,0.19177404718017665,0.5861971981097822,0.19230837025682562,0.3366680146566156
701,39.591,39.33,-0.27,0.13791723823040944,0.25693976609287783,0.19331514838205413,0.5855760568131884,0.19368742148620374,0.3363766125318838
702,39.654,39.39,-0.24,0.13949084645336574,0.2561802442888915,0.19484813905024312,0.584958207346519,0.19506176509940498,0.3360898570359244
703,39.757,39.44,-0.29,0.14106141843802802,0.25542893897611235,0.1963727041423427,0.5843439538594547,0.1964309425310312,0.3358078638045977
704,39.777,39.5,-0.31,0.1426283550835972,0.2546860222702715,0.19788852946205454,0.5837335945533877,0.19779448940484784,0.3355307422113021
705,39.819,39.55,-0.23,0.14419105338831975,0.2539516614146562,0.19939530193496957,0.583127421533121,0.1991519360706091,0.3352585953366563
706,39.881,39.61,-0.25,0.14574890711984304,0.253226018768676,0.2008927098920181,0.5825257206624923,0.20050280815745436,0.33499151994625737
707,39.923,39.66,-0.29,0.14730130750118756,0.2525092518007624,0.20238044336022606,0.5819287714240022,0.20184662714319307,0.3347296064763479
708,39.985,39.72,-0.23,0.1488476439114091,0.25180151308544074,0.2038581943603561,0.5813368467824946,0.2031829109387442,0.3344729390271509
709,40.046,39.77,-0.18,0.1503873045999697,0.2511029503043671,0.20532565721096543,0.5807502130529008,0.20451117448695363,0.3342215953635671
710,40.108,39.83,-0.23,0.15191967741381002,0.2504137062511125,0.2067825288383939,0.5801691297720314,0.20583093037497338,0.3339756469228987
711,40.149,39.88,-0.19,0.15344415053610438,0.24973391883949148,0.20822850909218915,0.5795938495743923,0.20714168945935094,0.33373515882926763
712,40.211,39.94,-0.13,0.1549601132356736,0.24906372111528038,0.20966330106547848,0.5790246180720218,0.20844296150295188,0.3335001899144098
713,40.273,39.99,-0.18,0.15646695662602605,0.2484032412712233,0.21108661141980917,0.5784616737383659,0.2097342558228175,0.33327079274455207
714,40.334,40.05,-0.2,0.15796407443299096,0.24775260266528198,0.21249815071398692,0.5779052477962345,0.21101508194803575,0.33304701365309525
715,40.354,40.1,-0.12,0.15945086376989406,0.2471119238421273,0.21389763373644163,0.5773555641098984,0.21228495028667776,0.3328288927788401
716,40.416,40.16,-0.14,0.16092672591920448,0.2464813185578745,0.2152847798406338,0.5768128390813719,0.21354337280081676,0.33261646410948864
717,40.477,40.21,-0.16,0.16239106711953763,0.2458608958080423,0.21665931328298654,0.5762772815508778,0.2147898636886045,0.3324097555301357
718,40.54,40.27,-0.1,0.16384329935682698,0.24525075985866965,0.2180209635627882,0.5757490927014175,0.21602394007233466,0.33220878887644145
719,40.582,40.32,-0.03,0.1652828411583952,0.2446510102804806,0.2193694657634788,0.5752284659672718,0.2172451226913846,0.33201357999215436
720,40.643,40.38,-0.06,0.16670911838857805,0.2440617419859611,0.22070456089471632,0.5747155869461724,0.21845293659889492,0.3318241387906412
721,40.704,40.43,-0.0,0.16812156504451076,0.2434830452692179,0.222025996234605,0.574210633314854,0.21964691186102614,0.33164046932009866
722,40.766,40.49,0.07,0.16951962405069657,0.24291500584850234,0.22333352567146791,0.5737137747477262,0.22082658425763133,0.33146256983212735
723,40.849,40.54,0.03,0.1709027480510491,0.24235770491125325,0.22462691004454738,0.5732251728384881,0.22199149598319948,0.3312904328533642
724,40.87,40.6,0.03,0.1722704001971957,0.24181121916146095,0.2259059174830152,0.5727449810246464,0.22314119634694055,0.33112404525988526
725,40.912,40.65,0.12,0.17362205493190866,0.2412756208691175,0.2271703237426635,0.5722733445150581,0.2242752424709011,0.3309633883541125
726,40.974,40.71,0.11,0.17495719876657154,0.24075097792152328,0.22841991253963823,0.5718104002207413,0.22539319998500618,0.3308084379439775
727,41.016,40.76,0.07,0.17627533105159432,0.2402373538762316,0.22965447588057525,0.5713562766892281,0.22649464371792025,0.330659164424118
728,41.078,40.82,0.14,0.1775759647386684,0.2397348080154135,0.23087381438849586,0.5709110940426979,0.22757915838261514,0.33051553285889096
729,41.12,40.87,0.18,0.17885862713371406,0.2392433954014025,0.23207773762381473,0.5704749639200676,0.22864633925552758,0.33037750306698427
730,41.204,40.93,0.14,0.1801228606393202,0.23876316693315108,0.23326606439980674,0.570047989423151,0.229695792848178,0.33024502970741826
731,41.266,40.98,0.22,0.18136822348543039,0.2382941694033054,0.23443862309185867,0.5696302650669963,0.23072713757011232,0.3301180623667439
732,41.307,41.04,0.29,0.18259429044700992,0.23783644555560188,0.2355952519398109,0.569221876734557,0.23174000438202516,0.3299965456472771
733,41.368,41.09,0.28,0.18380065354745978,0.23739003414229692,0.23673579934268504,0.5688229016359392,0.23273403743793608,0.329880419256232
734,41.408,41.15,0.29,0.1849869227466008,0.2369549699813799,0.23786012414510213,0.5684334082725521,0.2337088947153125,0.32976961809564775
735,41.449,41.2,0.39,0.18615272661212237,0.23653128401337653,0.23896809591472892,0.5680534564065431,0.23466424863207258,0.32966407235302136
736,41.51,41.26,0.38,0.18729771297346542,0.2361190033575976,0.2400595952101438,0.5676830970358973,0.2355997866494451,0.3295637075925672
737,41.613,41.31,0.36,0.18842154955719476,0.23571815136772153,0.24113451383857779,0.5673223723755085,0.23651521185970234,0.32946844484703675
738,41.633,41.37,0.43,0.1895239246029958,0.23532874768660136,0.24219275510303606,0.5669713158444865,0.23741024355782464,0.32937820071003276
739,41.674,41.42,0.45,0.1906045474594999,0.23495080830016254,0.24323423403834168,0.5666299520599025,0.23828461779618915,0.3292928874287625
740,41.736,41.48,0.4,0.1916631491591798,0.2345843455902282,0.24425887763567247,0.5662982968371575,0.23913808792140615,0.3292124129971795
741,41.797,41.53,0.47,0.19269948297155762,0.2342293683860926,0.2452666250551836,0.5659763571971276,0.2399704250924441,0.32913668124948847
742,41.838,41.59,0.53,0.19371332493394208,0.23388588201467422,0.24625742782632024,0.5656641313802635,0.24078141877920897,0.32906559195400326
743,41.939,41.64,0.5,0.19470447435887903,0.23355388834910512,0.2472312500354347,0.5653616088678753,0.24157087724075685,0.32899904090736964
744,41.959,41.7,0.53,0.19567275431747808,0.23323338585564743,0.24818806850032113,0.5650687704108984,0.24233862798234704,0.32893692002917524
745,42.021,41.75,0.64,0.19661801209780116,0.232924369638859,0.24912787293129443,0.5647855880664621,0.24308451819057245,0.3288791174569712
746,42.082,41.81,0.62,0.1975401196375611,0.23262683148494623,0.2500506660784883,0.564512025242489,0.2438084151458534,0.3288255176417324
747,42.123,41.86,0.61,0.19843897393047097,0.23234075990324987,0.2509564638651169,0.5642480367503694,0.2445102066116262,0.3287760014437767
748,42.184,41.92,0.71,0.19931449740567744,0.23206614016581292,0.2518452955065149,0.5639935688655832,0.24518980119961764,0.32873044622916386
749,42.245,41.97,0.74,0.20016663827979986,0.2318029543449711,0.25271720361482264,0.5637485593960407,0.2458471287106576,0.3286887259665876
750,42.327,42.03,0.67,0.2009953708811705,0.23155118134890162,0.2535722442892232,0.5635129377578701,0.2464821404505437,0.3286507113247897
751,42.348,42.08,0.73,0.20180069594591893,0.23131079695508242,0.25441048719165466,0.5632866250584189,0.24709480952053145,0.3286162697705446
752,42.389,42.14,0.76,0.20258264088556607,0.23108177384165873,0.25523201560793807,0.5630695341863312,0.24768513108208592,0.32858526566729035
753,42.449,42.19,0.7,0.20334126002579644,0.23086408161676408,0.2560369264942704,0.5628615699086605,0.24825312259557852,0.32855756037451495
754,42.511,42.25,0.7,0.20407663481605912,0.23065768684589838,0.2568253305090503,0.5626626289750817,0.24879882403264045,0.32853301234804083
755,42.553,42.3,0.79,0.204788874009615,0.23046255307750854,0.2575973520300042,0.5624726002293327,0.24932229806190623,0.3285114772413642
756,42.616,42.36,0.78,0.20547811381361436,0.23027864086692895,0.25835312915659453,0.5622913647280257,0.24982363020789217,0.3284928080081987
757,42.677,42.41,0.78,0.20614451800877054,0.23010590779881604,0.25909281369768056,0.5621187958669221,0.25030292898277123,0.3284768550063419
758,42.718,42.47,0.88,0.2067882780382134,0.22994430850815945,0.2598165711443846,0.5619547595147091,0.2507603259908354,0.32846346610294297
759,42.78,42.52,0.9,0.20740961306515981,0.22979379469988112,0.2605245806280801,0.5617991141542517,0.2511959760054867,0.3284524867811967
760,42.841,42.58,0.83,0.20800876999912266,0.22965431516697973,0.26121703486340553,0.5616517110312444,0.2516100570186642,0.3284437602484507
761,42.882,42.63,0.9,0.20858602349046004,0.22952581580715584,0.2618941400762131,0.5615123943101338,0.2520027702626851,0.32843712754569143
762,42.965,42.69,0.93,0.20914167589314964,0.22940823963786602,0.26255611591638783,0.5613810012371798,0.2523743402045524,0.32843242765837116
763,43.027,42.74,0.87,0.20967605719574725,0.229301526809787,0.26320319535552744,0.5612573623105176,0.2527250145128363,0.3284294976285675
764,43.048,42.8,0.74,0.2101895249205551,0.22920561461871164,0.26383562456952825,0.5611413014570868,0.25305506399728267,0.3284281726685159
765,43.11,42.85,0.81,0.21068246399108234,0.22912043751592084,0.2644536628061804,0.5610326362163129,0.25336478252133177,0.3284282862756035
766,43.172,42.91,0.76,0.2111552865679366,0.2290459271170534,0.2650575822379308,0.5609311779303933,0.253654486887728,0.328429670348958
767,43.212,42.96,0.71,0.21160843185332542,0.22898201220942938,0.2656476678000096,0.5608367319409971,0.25392451669736005,0.3284321553077931
768,43.275,43.02,0.81,0.21204236586435327,0.22892861875771034,0.26622421701412263,0.5607490977921299,0.2541752341814075,0.3284355702116745
769,43.337,43.07,0.84,0.212457581175278,0.22888566990770062,0.2667875397978912,0.5606680694388516,0.2544070240068194,0.328439742882838
770,43.397,43.13,0.8,0.21285459662885342,0.22885308598802856,0.2673379582601902,0.5605934354614747,0.2546202930551255,0.3284445000306382
771,43.44,43.18,0.87,0.21323395701685696,0.22883078450939406,0.2678758064825044,0.5605249792848147,0.25481547017459466,0.3284496673781579
772,43.5,43.24,0.9,0.21359623272991446,0.2288186801610541,0.26840143028642516,0.5604624794020301,0.2549930059057927,0.32845506979096123
773,43.541,43.29,0.84,0.21394201937678436,0.22881668480422948,0.2689151869874353,0.5604057096025663,0.25515337218064915,0.3284605314079549
774,43.603,43.35,0.86,0.21427193737333888,0.22882470746216493,0.26941744513517557,0.5603544392037358,0.2552970619951955,0.3284658757743138
775,43.664,43.4,0.92,0.21458663150155913,0.22884265430664996,0.26990858424042097,0.5603084332855144,0.2554245890561859,0.3284709259764363
776,43.727,43.46,0.88,0.21488677043893695,0.22887042864088367,0.27038899448902803,0.5602674529281707,0.25553648740184753,0.3284755047788871
777,43.768,43.51,0.84,0.21517304625873804,0.22890793087863656,0.2708590764431389,0.560231255452351,0.2556333109970335,0.32847943476328173
778,43.83,43.57,0.9,0.21544617390162923,0.2289550585197069,0.27131924072993374,0.5601995946612279,0.25571563330307673,0.3284825384690228
779,43.891,43.62,0.86,0.21570689061919995,0.22901170612167907,0.27176990771823434,0.5601722210842635,0.2557840468226683,0.32848463853575116
780,43.931,43.68,0.79,0.21595595538991785,0.2290777652679681,0.27221150718326725,0.5601488822220445,0.2558391626200921,0.328485557847316
781,43.993,43.73,0.84,0.2161941483080384,0.22915312453211448,0.2726444779598947,0.5601293227915694,0.2558816098171535,0.32848511967702565
782,44.054,43.79,0.88,0.2164222699459505,0.22923766943828472,0.2730692675846154,0.5601132849713203,0.2559120350651331,0.3284831478339118
783,44.158,43.84,0.83,0.216641140690404,0.22933128241794054,0.2734863319266159,0.5601005086454885,0.25593110199308644,0.32847946680972284
784,44.178,43.9,0.86,0.21685160005304088,0.22943384276267187,0.2738961348081272,0.5600907316468078,0.25593949063280524,0.3284739019263777
785,44.199,43.95,0.97,0.2170545059556687,0.2295452265732418,0.27429914761431407,0.5600836899975999,0.2559378968207615,0.3284662794836226
786,44.281,44.01,0.92,0.21725073399076408,0.2296653067049689,0.274695848892923,0.5600791181487572,0.2559270315773868,0.32845642690665006
787,44.322,44.06,0.92,0.21744117665777388,0.22979395270965436,0.27508672394392053,0.5600767492164915,0.2559076204640758,0.3284441728934512
788,44.384,44.12,1.02,0.21762674257587492,0.22993103077433336,0.2754722643993612,0.5600763152167636,0.25588040291836844,0.32842934756166486
789,44.445,44.17,1.01,0.21780835567395937,0.2300764036571645,0.2758529677937403,0.5600775472973373,0.2558461315678316,0.3284117825946726
790,44.507,44.23,0.97,0.2179869543587216,0.2302299306207713,0.27622933712512193,0.560080175967372,0.2558055715232335,0.32839131138667155
791,44.527,44.28,1.01,0.21816349066181076,0.23039146736334923,0.27660188040736405,0.5600839313244262,0.25575949965167194,0.32836776918644495
792,44.59,44.34,1.03,0.2183389293670799,0.23056086594786118,0.276971110213814,0.5600885432787205,0.2557087038303871,0.32834099323954424
793,44.651,44.39,0.97,0.2185142471189997,0.23073797472966787,0.2773375432128947,0.5600937417745094,0.2556539821820488,0.32831082292861646
794,44.712,44.45,0.99,0.21869043151331155,0.2309226382829843,0.27770169969606046,0.5600992570084361,0.25559614229234767,0.3282770999116592
795,44.774,44.5,1.04,0.21886848017097155,0.23111469732660817,0.27806410309864177,0.56010481964477,0.25553600041075425,0.3282396682580442
796,44.816,44.56,1.0,0.21904939979639437,0.23131398864942052,0.27842527951415075,0.5601101610274286,0.25547438063533456,0.3281983745822047
797,44.878,44.61,1.01,0.21923420522096151,0.2315203450362121,0.27878575720264887,0.5601150133886662,0.25541211408253767,0.3281530681749266
798,44.92,44.67,1.1,0.21942391843272535,0.231733595194434,0.27914606609379417,0.5601191100542979,0.2553500380429,0.3281036011322083
799,44.981,44.72,1.08,0.21961956759325377,0.23195356368249978,0.279506737285184,0.5601221856453164,0.2552889951236566,0.32804982848165715
800,45.022,44.78,1.05,0.2198221860426086,0.23218007084026718,0.2798683025366135,0.5601239762757328,0.25522983237930413,0.3279916083063916
801,45.085,44.83,1.11,0.22003281129352892,0.23241293272232091,0.2802312937608761,0.5601242197464685,0.255173400431228,0.32792880186640294
802,45.147,44.89,1.15,0.22025248401597905,0.23265196103465952,0.28059624251176296,0.5601226557350959,0.25512055257758315,0.32786127371733137
803,45.251,44.94,1.08,0.2204822470133063,0.2328969630753781,0.2809636794699785,0.5601190259811952,0.2550721438946852,0.32778889182662957
804,45.272,45.0,1.08,0.22072314419131478,0.23314774167995064,0.28133413392775164,0.5601130744670726,0.25502903033123586,0.3277115276871266
805,45.314,45.05,1.12,0.22097621952159605,0.2334040951717516,0.28170813327299155,0.560104547593594,0.2549920677967627,0.32762905642805346
806,45.356,45.11,1.05,0.22124251600046904,0.23366581731850347,0.2820862024738948,0.5600931943509124,0.2549621112457105,0.3275413569236322
807,45.418,45.16,1.01,0.22152307460486295,0.2339326972953803,0.2824688635649523,0.5600787664838895,0.2549400137586469,0.3274483118993725
808,45.46,45.22,1.07,0.22181893324643012,0.2342045196555195,0.28285663513532366,0.5600610186520179,0.25492662562206936,0.327349808036237
809,45.523,45.27,1.03,0.22213112572511634,0.23448106430867804,0.2832500318205433,0.5600397085836423,0.25492279340830803,0.32724573607282414
810,45.626,45.33,0.97,0.22246068068336233,0.23476210650869872,0.2836495637985156,0.5600145972242442,0.2549293590570203,0.32713599090569306
811,45.647,45.38,1.01,0.22280862056209533,0.2350474168503225,0.2840557362907357,0.5599854488785317,0.2549471589597773,0.3270204716879117
812,45.69,45.44,1.02,0.2231759605597244,0.2353367612756973,0.28446904906966336,0.5599520313460857,0.25497702304924685,0.3268990819258903
813,45.751,45.49,0.94,0.22356370759545124,0.23562990109073878,0.28488999597317444,0.5599141160503373,0.2550197738944808,0.3267717295745743
814,45.813,45.55,0.95,0.22397285927830315,0.23592659299137614,0.285319064427022,0.5598714781607121,0.25507622580382044,0.3266383271311061
815,45.855,45.6,0.97,0.22440440288335123,0.23622658909969735,0.28575673497624543,0.559823896707864,0.2551471839369411,0.32649879172710683
816,45.917,45.66,0.89,0.22485931433658835,0.23652963701004878,0.28620348082646463,0.5597711546920136,0.25523344342755916,0.3263530452197592
817,45.999,45.71,0.82,0.22533855720992757,0.23683547984521086,0.2866597673959779,0.5597130391844939,0.25533578851832245,0.32620101428188125
818,46.021,45.77,0.84,0.22584308172773337,0.2371438563228245,0.28712605187954804,0.5596493414226614,0.25545499170938185,0.32604263049117826
819,46.102,45.82,0.76,0.22637382378623336,0.2374545008322606,0.2876027828247238,0.5595798568982994,0.2555918129221121,0.32587783041883017
820,46.143,45.88,0.64,0.22693170398706733,0.23776714352209963,0.2880903997215067,0.5595043854395803,0.2557469986793874,0.32570655571754303
821,46.206,45.93,0.64,0.22751762668611103,0.23808151039833228,0.28858933260609315,0.5594227312866614,0.2559212813037421,0.32552875320915237
822,46.248,45.99,0.64,0.22813247905858355,0.23839732343332076,0.2891000016793003,0.5593347031611497,0.2561153781346506,0.3253443749718337
823,46.29,46.04,0.52,0.2287771301813264,0.23871430068549096,0.28962281694013636,0.559240114329911,0.25632999076605284,0.3251533784269558
824,46.35,46.1,0.51,0.22945243013305736,0.23903215642967815,0.2901581778348501,0.5591387826638878,0.2565658043051348,0.3249557264256114
825,46.411,46.15,0.52,0.23015920911335494,0.23935060129802485,0.29070647292170443,0.5590305306926622,0.2568234866532621,0.3247513873348751
826,46.452,46.21,0.45,0.2308982765811218,0.2396693424313141,0.2912680795516769,0.5589151856554588,0.257103687809862,0.32454033512385305
827,46.514,46.26,0.42,0.2316704204132718,0.2399880836406131,0.29184336356524115,0.5587925795492268,0.25740703919993907,0.3243225494496113
828,46.575,46.32,0.49,0.23247640608437153,0.24030652557909785,0.29243267900533254,0.5586625491743724,0.25773415302581293,0.32409801574306407
829,46.636,46.37,0.44,0.23331697586794753,0.24062436592389516,0.29303636784655657,0.5585249361786174,0.2580856216435708,0.3238667252948757
830,46.739,46.43,0.34,0.23419284806014037,0.2409412995677234,0.2936547597406738,0.5583795870993077,0.2584620169646545,0.32362867534137135
831,46.759,46.48,0.35,0.2351047162263503,0.24125701882003667,0.2942881717783778,0.5582263534043264,0.2588638898829272,0.32338386915037554
832,46.799,46.54,0.33,0.23605324847146675,0.24157121361729783,0.2949369082673614,0.5580650915316016,0.25929176972749785,0.3231323161068133
833,46.861,46.59,0.25,0.23703908673420615,0.24188357174192496,0.2956012605266141,0.5578956629270816,0.25974616374148685,0.3228740317978356
834,46.923,46.65,0.25,0.23806284610599213,0.24219377904940145,0.2962815066968187,0.5577179340809881,0.2602275565868024,0.32260903809717706
835,46.964,46.7,0.26,0.23912511417471236,0.24250151970300685,0.2969779115666294,0.5575317765621437,0.26073640987487345,0.32233736324840817
836,47.005,46.76,0.2,0.2402264503936104,0.24280647641562367,0.29769072641453614,0.5573370670501535,0.261273161723168,0.3220590419466881
837,47.088,46.81,0.17,0.2413673854755244,0.24310833069808838,0.29842018886595434,0.5571336873651883,0.2618382263372112,0.3217741154185689
838,47.129,46.87,0.27,0.24254842081267958,0.24340676311358353,0.29916652276512,0.5569215244950846,0.2624319936177092,0.3214826314993294
839,47.191,46.92,0.26,0.24377002792226168,0.2437014535375818,0.2999299380613126,0.5567004706194532,0.2630548287922879,0.32118464470723707
840,47.253,46.98,0.23,0.24503264791803306,0.2439920814228342,0.3007106307088689,0.5564704231304491,0.2637070720712666,0.32088021631404817
841,47.336,47.03,0.31,0.24633669100828565,0.2442783260688459,0.3015087825804015,0.556231284649815,0.2643890383268189,0.3205694144109752
842,47.378,47.09,0.34,0.24768253602044943,0.24455986689520043,0.30232456139259867,0.5559829630417464,0.2651010167948387,0.3202523139692798
843,47.399,47.14,0.3,0.2490705299526851,0.24483638371802516,0.30315812064397213,0.5557253714210764,0.2658432707987979,0.31992899689462195
844,47.44,47.2,0.37,0.25050098755276906,0.24510755702886097,0.3040095995639033,0.5554584281562622,0.26661603749486684,0.31959955207430646
845,47.503,47.25,0.48,0.2519741909245404,0.24537306827522365,0.3048791230723355,0.5551820568666909,0.26741952763755733,0.31926407541660257
846,47.565,47.31,0.46,0.25349038916212324,0.24563260014219362,0.3057668017494557,0.5548961864138527,0.2682539253651435,0.31892266988135004
847,47.606,47.36,0.5,0.25504979801207306,0.24588583683443446,0.30667273181470583,0.5546007508859823,0.2691193880041287,0.31857544550109135
848,47.667,47.42,0.63,0.25665259956353853,0.2461324643580981,0.30759699511444777,0.554295689575813,0.27001604589205386,0.31822251939196755
849,47.73,47.47,0.65,0.2582989419665015,0.24637217080211735,0.30853965911760284,0.5539809469511103,0.2709440022179966,0.31786401575359974
850,47.811,47.53,0.66,0.25998893917816956,0.2466046466184153,0.3095007769185912,0.5536564726176287,0.27190333288016916,0.3175000658571682
851,47.831,47.58,0.78,0.2617226707376269,0.24682958490057036,0.3104803872469206,0.5533222212741026,0.2728940863600968,0.3171308080209141
852,47.892,47.64,0.82,0.2635001815689037,0.24704668166047125,0.31147851448281105,0.5529781526588693,0.2739162836129381,0.3167563875723264
853,47.935,47.69,0.77,0.2653214818126791,0.24725563610248813,0.312495168678297,0.5526242314877101,0.27496991797359543,0.31637695679634836
