,Time_Host,Time_Arduino,easingdata,CH1_Oxy,CH1_Deoxy,CH2_Oxy,CH2_Deoxy,CH3_Oxy,CH3_Deoxy
0,1.178,0.04,0.0,0.5798401685317403,0.5234943310592411,0.6646186662397492,0.18644850894590614,0.5079588571437822,0.19922998964481653
1,1.199,0.1,0.0,0.5803776341076909,0.5224652980216502,0.6588375036779863,0.1896320386270242,0.5018327320126283,0.20781164033087576
2,1.218,0.15,0.0,0.5808894261443797,0.521432820183212,0.6530653744082882,0.19277816306676424,0.49569234263916817,0.21632940718364965
3,1.238,0.21,0.0,0.5813747147207041,0.5203976661475951,0.6473044627333294,0.19588608055510065,0.4895403104368107,0.22478000733089434
4,1.259,0.26,0.0,0.5818326734132466,0.5193606151615924,0.6415569472285759,0.19895503070799597,0.48337928390107754,0.2331602245427907
5,1.28,1.05,0.0,0.5822624797998303,0.5183224563602107,0.635824999149355,0.20198429481538013,0.47721193688083213,0.24146691227137032
6,1.301,1.11,0.0,0.5826633159590466,0.5172839880063046,0.6301107808468193,0.2049731961255525,0.47104096682418944,0.2496969965798389
7,1.362,1.16,0.0,0.5830343689653452,0.5162460167276082,0.6244164441926826,0.20792110006807138,0.46486909299990686,0.25784747895787946
8,1.425,1.22,0.0,0.5833748313792817,0.5152093567540716,0.6187441290125039,0.21082741441738884,0.45869905469498296,0.26591543901929043
9,1.571,1.27,0.0,0.5836839017325238,0.5141748291584595,0.6130959615272011,0.21369158939967828,0.4525336093891125,0.27389803707857757
10,1.592,1.33,-0.06,0.5839607850072206,0.5131432611032044,0.6074740528023949,0.21651311774547502,0.44637553090658283,0.281792516603377
11,1.613,1.38,-0.15,0.5842046931093693,0.5121154850964649,0.6018804972051482,0.21929153469081816,0.44022760754609486,0.2895962065398489
12,1.654,1.44,-0.07,0.5844148453358758,0.5110923382600431,0.5963173708677731,0.22202641792937663,0.4340926401887944,0.2973065235085016
13,1.696,1.49,-0.04,0.5845904688350886,0.5100746616112735,0.5907867301585842,0.22471738751750142,0.42797344038441054,0.3049209738683681
14,1.757,1.55,-0.08,0.5847307990605756,0.5090632993604364,0.5852906101596881,0.22736410573356228,0.42187282841491,0.31243715564804836
15,1.88,1.6,-0.1,0.5848350802177903,0.5080590982249668,0.579831023151918,0.22996627689264604,0.41579363133469766,0.31985276034269
16,1.941,1.66,0.02,0.5849025657030636,0.5070629067616383,0.574409957106957,0.23252364711766713,0.40973868098627003,0.32716557457636325
17,1.961,1.71,-0.02,0.5849325185342514,0.5060755747177463,0.5690293741866587,0.23503600406788752,0.403710811990239,0.3343734816295496
18,1.983,1.77,-0.09,0.5849242117723734,0.5050979524020685,0.5636912092496097,0.23750317662571738,0.3977128597087102,0.34147446283173366
19,2.023,1.82,0.07,0.5848769289336809,0.5041308900761391,0.5583973683650507,0.23992503454257952,0.3917476581811105,0.3484665988193392
20,2.086,1.88,0.03,0.5847899643917648,0.503175237366146,0.5531497273344055,0.24230148804455864,0.38581803803173015,0.35534807065948176
21,2.128,1.93,-0.03,0.5846626237694528,0.5022318426955923,0.5479501302208217,0.24463248739855775,0.37992682434841724,0.36211716084023976
22,2.212,1.99,0.04,0.5844942243203609,0.5013015527387856,0.5428003878872446,0.24691802243983196,0.37407683453207563,0.36877225412832976
23,2.274,2.04,0.08,0.5842840953000271,0.500385211895076,0.5377022765436749,0.24915812206190618,0.3682708761168678,0.3753118382951802
24,2.295,2.1,0.05,0.5840315783266022,0.49948366178349146,0.5326575363044319,0.2513528536698109,0.3625117445612268,0.38173450471249204
25,2.355,2.15,0.01,0.5837360277310206,0.4985977407571639,0.5276678697563788,0.2535023225974089,0.35680222100993986,0.38803894881851503
26,2.417,2.21,0.13,0.5833968108964571,0.4977282834367719,0.5227349405391378,0.25560667148948113,0.3511450700277754,0.39422397045636226
27,2.458,2.26,0.08,0.5830133085866963,0.49687612026207917,0.517860371938406,0.25766607964911986,0.3455430373053606,0.4002884740857362
28,2.52,2.32,-0.0,0.5825849152628605,0.49604207706050285,0.5130457454935556,0.2596807623508069,0.3399988473382318,0.40623146886950634
29,2.583,2.37,0.16,0.5821110393878005,0.4952269746314938,0.5082925996207739,0.261650970119401,0.33451520108020505,0.4120520686366575
30,2.643,2.43,0.15,0.5815911037174403,0.49443162834531507,0.5036024282531083,0.26357698797507634,0.32909477357245537,0.4177494917232349
31,2.685,2.48,0.09,0.5810245455785106,0.4936568477546027,0.49897667949894825,0.2654591346440831,0.3237402115499296,0.42332306069307646
32,2.725,2.54,0.13,0.5804108171323622,0.4929034362169849,0.4944167543206299,0.2672977617351783,0.3184541310270184,0.4287722019402707
33,2.786,2.59,0.19,0.5797493856249045,0.4921721905269061,0.48992400523505786,0.26909325288164543,0.3132391148648278,0.43409644517530915
34,2.848,2.65,0.14,0.5790397336231149,0.4914639005545657,0.4854997350384901,0.27084602284883874,0.3080977103227944,0.43929542279690154
35,2.908,2.7,0.08,0.5782813592389437,0.490779348889722,0.48114519555785995,0.27255651660726854,0.3030324265977227,0.44436886915148227
36,3.011,2.76,0.2,0.5774737763417134,0.4901193104882062,0.4768615864311342,0.27422520837151093,0.2980457323536351,0.4493166196825255
37,3.032,2.81,0.14,0.5766165147602885,0.4894845523192348,0.4726500539192665,0.27585260060556044,0.2931400532460971,0.45413860997187827
38,3.072,2.87,0.03,0.5757091204763585,0.48887583301190013,0.4685116897523208,0.2774392229955326,0.28831776944487714,0.4588348746754356
39,3.153,2.92,0.13,0.5747511558101253,0.4882939024995186,0.4644475300122959,0.27898563139088617,0.28358121315895024,0.46340554635557696
40,3.194,2.98,0.14,0.573742199599553,0.48773950166078717,0.4604585540551278,0.28049240671552067,0.27893266616797907,0.4678508542128571
41,3.215,3.03,0.07,0.5726818473741428,0.4872133619569603,0.45654568347426266,0.28196015385022893,0.2743743573644386,0.47217112271957046
42,3.276,3.09,0.05,0.5715697115239964,0.48671620506461366,0.45270978110804316,0.28338950048822514,0.26990846031057947,0.47636677015795914
43,3.38,3.14,0.11,0.570405421464821,0.48624874250391037,0.4489516500929953,0.2847810959658167,0.2655370908145322,0.48043830706591706
44,3.401,3.2,0.06,0.5691886237995495,0.48581167526250185,0.4452720329650632,0.2861356100705275,0.2612623045299781,0.48438633459312425
45,3.441,3.25,-0.03,0.5679189824773436,0.4854056934153537,0.4416716108109034,0.28745373182910533,0.25708609458384774,0.4882115427707243
46,3.503,3.31,0.1,0.5665961789508456,0.48503147574100186,0.4381510024714284,0.288736168277948,0.25301038923651625,0.49191470869788023
47,3.563,3.36,0.03,0.5652199123326116,0.48468968933496476,0.43471076379984785,0.2899836432185714,0.24903704957895825,0.4954966946487508
48,3.625,3.42,-0.06,0.5637898995516805,0.48438098922124007,0.43135138697644854,0.2911968959608189,0.24516786727131054,0.4989584461036184
49,3.667,3.47,-0.01,0.5623058755111943,0.4841060179629994,0.4280732998822823,0.29237668005665984,0.24140456232728655,0.5023009897080479
50,3.748,3.53,-0.01,0.5607675932479079,0.4838654052736921,0.42487686553384163,0.29352376202754005,0.2377487809488936,0.5055254311640487
51,3.769,3.58,-0.06,0.5591748240942788,0.4836597676297377,0.4217623815807197,0.2946389200882182,0.23420209341580403,0.5086329530573156
52,3.831,3.64,-0.11,0.5575273578435953,0.4834897078859716,0.4187300798681111,0.2957229428699455,0.23076599203356457,0.5116248126247673
53,3.894,3.69,-0.01,0.5558250029183364,0.48335581489499635,0.41578012606582093,0.29677662814578465,0.22744188914468588,0.5145023394666847
54,3.956,3.75,-0.07,0.5540675865417478,0.48325866313148186,0.41291261936530577,0.2978007815607365,0.22423111520654093,0.5172669332077866
55,3.998,3.8,-0.16,0.5522549549125191,0.4831988123222624,0.41012759224615547,0.29879621536919765,0.22113491693990311,0.5199200611116024
56,4.141,3.86,-0.01,0.5503869733824495,0.4831768070828658,0.40742501031333106,0.2997637471821875,0.21815445555190968,0.5224632556524738
57,4.162,3.91,-0.06,0.5484635266370879,0.4831931765608876,0.4048047722064093,0.3007041987267053,0.21529080503724699,0.5248981120494557
58,4.181,3.97,-0.13,0.5464845188794485,0.48324843408644946,0.40226670958203503,0.3016183946194863,0.21254495056136954,0.527226285766309
59,4.222,4.02,-0.09,0.5444498740169894,0.48334307682992866,0.39981058717069484,0.30250716115738846,0.2099177869296291,0.5294494899816717
60,4.264,4.08,-0.07,0.5423595358521137,0.48347758546708786,0.39743610290885745,0.3033713251265714,0.20741011714630503,0.5315694930332926
61,4.326,4.13,-0.13,0.5402134682764907,0.4836524238515605,0.39514288814747905,0.3042117126324068,0.20502265106758338,0.5335881158400239
62,4.387,4.19,-0.21,0.5380116554694788,0.48386803869448103,0.3929305079377985,0.30502914795182234,0.20275600415250286,0.5355072293051448
63,4.509,4.24,-0.1,0.5357541021008332,0.48412485925098403,0.3907984613952065,0.3058244524096567,0.20061069631583328,0.5373287517044871
64,4.53,4.3,-0.17,0.5334408335377289,0.48442329701326275,0.38874618214183126,0.3065984432804802,0.19858715088674464,0.5390546460627677
65,4.55,4.35,-0.27,0.5310718960559278,0.4847637454098509,0.3867730388283314,0.3073519327171653,0.19668569367692534,0.540686917521518
66,4.612,4.41,-0.15,0.5286473570547126,0.48514657951076745,0.3848783357352239,0.30808572670733936,0.1949065521615884,0.5422276107020055
67,4.653,4.46,-0.17,0.5261673052750837,0.4855721557380939,0.38306131345392375,0.3088006240586773,0.19324985477660295,0.5436788070664939
68,4.716,4.52,-0.24,0.5236318510206878,0.4860408115815076,0.38132114964753855,0.30949741541386155,0.19171563033479552,0.5450426222811616
69,4.757,4.57,-0.24,0.5210411263809778,0.48655286531839004,0.37965695989129533,0.3101768822960556,0.19030380756433374,0.5463212035839377
70,4.859,4.63,-0.19,0.5183952854561917,0.48710861573828046,0.3780677985923249,0.3108397961858241,0.18901421477206462,0.5475167271603738
71,4.88,4.68,-0.27,0.5156945045838408,0.48770834187152234,0.3765526599884286,0.31148691763038616,0.18784657963461746,0.5486313955305181
72,4.942,4.74,-0.35,0.5129389825664663,0.48835230272204916,0.3751104792253288,0.3121189953860381,0.186800529119923,0.5496674349496737
73,4.984,4.79,-0.24,0.5101289409004273,0.48904073700447875,0.37374013351171037,0.312736765594691,0.18587558954158775,0.5506270928258842
74,5.045,4.85,-0.33,0.5072646240054114,0.48977386288596364,0.37244044335112625,0.31334095099567166,0.1850711867482951,0.5515126351569422
75,5.106,4.9,-0.43,0.5043462994542218,0.49055187773352515,0.37121017384960936,0.31393226017408077,0.18438664645005076,0.5523263439897259
76,5.208,4.96,-0.36,0.5013742582021711,0.4913749578678982,0.3700480360975773,0.31451138684712304,0.18382119468270566,0.5530705149046351
77,5.229,5.01,-0.36,0.4983488148151458,0.49224325832515053,0.36895268862438474,0.3150790091898336,0.18337395841178142,0.5537474545278381
78,5.27,5.07,-0.42,0.4952703076951136,0.49315691262752526,0.3679227389236411,0.3156357892015636,0.18304396627614772,0.5543594780740053
79,5.33,5.12,-0.45,0.49213909930159955,0.49411603256513725,0.36695674504713044,0.3161823721146068,0.18283014947162576,0.5549089069221984
80,5.412,5.18,-0.37,0.4889555763675355,0.4951207079902855,0.36605321726488593,0.3167193858464705,0.18273134277423417,0.5553980662275267
81,5.432,5.23,-0.43,0.4857201501079404,0.49617100662607216,0.36521061978878727,0.3172474404973022,0.18274628570250134,0.5558292825711029
82,5.474,5.29,-0.52,0.48243325642004786,0.4972669738908173,0.3644273725569306,0.3177671278938939,0.1828736238179599,0.5562048816508144
83,5.577,5.34,-0.38,0.4790953560736841,0.49840863273953107,0.3637018530759193,0.3182790211815947,0.1831119101626355,0.556527186015423
84,5.598,5.4,-0.45,0.4757069348908659,0.4995959835234787,0.3630323983181352,0.31878367446537437,0.1834596068320417,0.556798512844485
85,5.639,5.45,-0.54,0.4722685039137079,0.5008290038686919,0.36241730667097083,0.31928162250116104,0.18391508668186338,0.5570211717765691
86,5.7,5.51,-0.5,0.46878059955978807,0.5021076485741663,0.36185483993491074,0.3197733804384704,0.18447663516619067,0.557197462788208
87,5.803,5.56,-0.48,0.46524378376413605,0.5034318495303494,0.361343225367302,0.3202594436151359,0.1851424523048472,0.5573296741259545
88,5.844,5.62,-0.51,0.461658644106975,0.5048015156582957,0.3608806577686342,0.32074028740456556,0.18591065477695118,0.557420080293878
89,5.865,5.67,-0.55,0.458025793926225,0.506216532869719,0.36046530160808987,0.3212163671155821,0.18677927813739828,0.557470940098851
90,5.967,5.73,-0.44,0.4543458724136326,0.5076767640480873,0.3600952931850156,0.32168811794468194,0.1877462791525861,0.5574844947559139
91,5.988,5.78,-0.5,0.4506195446933257,0.509182049050756,0.3597687428229034,0.32215595498034505,0.18880953825142646,0.557462966055846
92,6.05,5.84,-0.58,0.44684750188165584,0.5107322047318908,0.359483737092478,0.3226202732587868,0.18996686208745822,0.5574085545968878
93,6.111,5.89,-0.45,0.44303046112736766,0.5123270249856934,0.35923834106052976,0.3230814478703395,0.19121598620767247,0.557323438082356
94,6.152,5.95,-0.46,0.4391691656313653,0.5139662808092338,0.35903060056121805,0.32353983411544845,0.19255457782346833,0.5572097696857121
95,6.214,6.0,-0.52,0.4352643846455794,0.5156497203840577,0.3588585444866656,0.32399576770908517,0.1939802386789244,0.5570696764845098
96,6.317,6.06,-0.48,0.4313169134506236,0.5173770691757023,0.3587201870937254,0.3244495650322981,0.19549050801137674,0.5569052579645087
97,6.338,6.11,-0.42,0.42732757331208093,0.519148030050203,0.35861353032387133,0.3249015234295446,0.1970828655992033,0.5567185845949983
98,6.379,6.17,-0.46,0.423297211415382,0.5209622834065234,0.3585365661332661,0.3253519215502251,0.19875473489163722,0.556511696476102
99,6.439,6.22,-0.52,0.4192267007792545,0.5228194873237509,0.35848727883012504,0.3258010197325578,0.20050348621533406,0.5562866020586128
100,6.46,6.28,-0.39,0.4151169401476207,0.5247192777219921,0.35846364741647724,0.3262490604276824,0.2023264400523405,0.5560452769366865
101,6.521,6.33,-0.44,0.41096885385961407,0.5266612685360577,0.3584636479313795,0.3266962686616057,0.20422087038403225,0.5557896627134721
102,6.581,6.39,-0.53,0.4067833916971116,0.5286450519012255,0.35848525579254414,0.32714285253235276,0.206184008095458,0.5555216659395377
103,6.705,6.44,-0.4,0.40256152870891865,0.5306701983505467,0.3585264481332015,0.3275890037395731,0.20821304443438857,0.5552431571237212
104,6.727,6.5,-0.39,0.39830426501060096,0.5327362570232564,0.3585852061308903,0.3280348981438393,0.2103051345192484,0.5549559698158493
105,6.747,6.55,-0.44,0.3940126255589611,0.5348427558838853,0.3586595173247792,0.3284806963529134,0.2124574008899613,0.5546618997606911
106,6.808,6.61,-0.46,0.38968765990026233,0.5369892019518123,0.3587473779180372,0.3289265443324664,0.21466693709563392,0.554362704122516
107,6.87,6.66,-0.33,0.3853304418914749,0.539175081541175,0.3588467950617168,0.32937257403902376,0.2169308113129914,0.554060100779603
108,6.931,6.72,-0.38,0.38094206939403924,0.5413998605111282,0.3589557891166547,0.3298189040731081,0.2192460699894812,0.5537557676880047
109,6.971,6.77,-0.45,0.3765236639398427,0.5436629845264795,0.3590723958899661,0.3302656403506836,0.2216097415049253,0.5534513423138416
110,7.075,6.83,-0.3,0.3720763703692562,0.5459638793288483,0.3591946688427495,0.33071287679122807,0.2240188398456075,0.5531484211332908
111,7.117,6.88,-0.36,0.36760135644115544,0.5483019510186616,0.35932068126565625,0.3311606960209612,0.22647036828474082,0.5528485591992239
112,7.137,6.94,-0.44,0.36309981241485334,0.5506765863485042,0.35944852841900765,0.33160917008990515,0.2289613230632849,0.5525532697732687
113,7.198,6.99,-0.36,0.35857295060376904,0.5530871530285731,0.3595763296341429,0.332058361201588,0.23148869706506678,0.5522640240219404
114,7.259,7.05,-0.33,0.35402200490049723,0.5555330000451651,0.3597022303726769,0.3325083224542987,0.23404948348009544,0.5519822507754151
115,7.321,7.1,-0.36,0.34944823027272975,0.5580134579931793,0.35982440424034046,0.3329590985927997,0.2366406794497971,0.551709336347495
116,7.341,7.16,-0.38,0.3448529022292882,0.5605278394236528,0.3599410549520255,0.3334107267694339,0.2392592896877236,0.5514466244153848
117,7.424,7.21,-0.26,0.3402373162554452,0.5630754392073256,0.36005041824464573,0.3338632373136295,0.24190233006921574,0.5511954159578936
118,7.485,7.27,-0.29,0.33560278721683184,0.5656555349150288,0.36015076373451316,0.33431665450879117,0.2445668311835381,0.5509569692506765
119,7.546,7.32,-0.35,0.33095064873149965,0.5682673872154179,0.3602403967161277,0.33477099737545385,0.24724984184207466,0.5507324999171597
120,7.566,7.38,-0.18,0.3262822525100258,0.5709102402903276,0.36031765989950704,0.33522628045940933,0.2499484325363098,0.5505231810338211
121,7.626,7.43,-0.21,0.32159896766387097,0.5735833222678399,0.36038093508345054,0.33568251462326637,0.2526596988395116,0.5503301432885085
122,7.687,7.49,-0.27,0.3169021799824506,0.5762858456730309,0.3604286447623928,0.3361397078396596,0.25538076474622934,0.55015447519046
123,7.79,7.54,-0.2,0.3121932911795751,0.5790170078963195,0.3604592536647249,0.3365978659842272,0.2581087859439681,0.5499972233306452
124,7.81,7.6,-0.16,0.30747371811005303,0.5817759916792575,0.360471270220692,0.3370569936264151,0.26084095301168636,0.5498593926908879
125,7.852,7.65,-0.19,0.3027448919573404,0.5845619656173779,0.360463247958238,0.3375170948159676,0.26357449453998816,0.549741947000108
126,7.913,7.71,-0.22,0.2980082573931062,0.5873740846795609,0.36043378682538546,0.33797817386275186,0.2663066801680273,0.5496458091359431
127,7.975,7.76,-0.09,0.2932652717094766,0.5902114907433391,0.36038153443789456,0.33844023610744844,0.26903482353230945,0.5495718615699385
128,8.015,7.82,-0.12,0.2885174039246018,0.5930733131455502,0.36030518725110716,0.3389032886805055,0.2717562851227682,0.5495209468544212
129,8.076,7.87,-0.2,0.2837661338621137,0.5959586692477035,0.36020349165505855,0.33936734124659446,0.2744684750416743,0.5494938681491304
130,8.18,7.93,-0.03,0.2790129512050908,0.5988666650153243,0.3600752449921196,0.33983240673169185,0.2771688556611612,0.5494913897856619
131,8.201,7.98,-0.04,0.27425935452534006,0.6017963956103562,0.35991929649665044,0.34029850202981526,0.2798549441754238,0.549514237867764
132,8.241,8.04,-0.08,0.26950685028908944,0.6047469459954666,0.35973454815640077,0.3407656486863401,0.28252431504392916,0.5495631009055393
133,8.303,8.09,-0.03,0.26475695184048587,0.6077173915489569,0.35951995549564353,0.3412338735547951,0.28517460232232306,0.549638630481608
134,8.345,8.15,0.04,0.26001117836458654,0.6107067986888222,0.35927452828030704,0.3417032094240416,0.28780350187815334,0.549741441947198
135,8.407,8.2,0.01,0.25527105383179893,0.6137142255042357,0.3589973311456656,0.34217369561273936,0.29040877348895805,0.5498721151460129
136,8.449,8.26,-0.04,0.2505381059259025,0.6167387223925174,0.3586874841473549,0.3426453785282268,0.2929882428206547,0.550031195163663
137,8.532,8.31,0.08,0.245813864957845,0.6197793326995977,0.3583441632365408,0.3431183121874524,0.29553980328456014,0.5502191931003727
138,8.553,8.37,0.04,0.24109986276744474,0.6228350933620869,0.35796660066006974,0.34359255869812844,0.2980614177717469,0.5504365868645971
139,8.614,8.42,-0.05,0.23639763161494487,0.625905035549245,0.3575540852864014,0.34406818869863837,0.3005511202637376,0.5506838219851394
140,8.676,8.48,0.08,0.23170870306407534,0.6289881853034113,0.3571059628580712,0.34454528175548377,0.30300701731878554,0.5509613124393214
141,8.737,8.53,0.09,0.22703460685793486,0.632083564177711,0.3566216361713884,0.34502392671721627,0.3054272894332127,0.5512694414947095
142,8.798,8.59,0.04,0.22237686978869248,0.6351901898701222,0.35610056518403,0.34550422202394737,0.30781019227745254,0.5516085625619113
143,8.9,8.64,0.04,0.21773701456188801,0.6383070768533252,0.35554226705110586,0.3459862759718129,0.3101540578066598,0.5519790000559904
144,8.921,8.7,0.13,0.21311655865606638,0.6414332370000706,0.3549463160902044,0.3464702069321562,0.31245729524606647,0.5523810502640372
145,8.941,8.75,0.08,0.20851701317862048,0.6445676802039378,0.35431234367597203,0.3469561435254848,0.31471839195160034,0.5528149822164367
146,9.003,8.81,0.02,0.203939881718944,0.6477094149954008,0.35364003806488503,0.3474442247504762,0.31693591414655614,0.5532810385594598
147,9.065,8.86,0.16,0.1993866592002304,0.6508574491531882,0.352929144150995,0.34793460006858384,0.31910850753535547,0.553779436426922
148,9.127,8.92,0.09,0.19485883073146149,0.6540107903109339,0.35217946315355825,0.34842742944505556,0.3212348977956739,0.5543103683087601
149,9.188,8.97,-0.0,0.19035787046129282,0.6571684465590587,0.3513908522375875,0.3489228833473916,0.32331389095041374,0.5548740029145011
150,9.291,9.03,0.08,0.1858852404356372,0.660329427041769,0.35056322406845963,0.34942114270247443,0.32534437362118884,0.5554704860297123
151,9.311,9.08,0.08,0.18144238946076616,0.663492742549006,0.34969654630181385,0.3499223988137226,0.32732531316513336,0.5560999413636287
152,9.352,9.14,0.02,0.17703075197365786,0.6666574061031821,0.3487908410100667,0.3504268532396147,0.32925575769687176,0.556762471386297
153,9.395,9.19,-0.0,0.17265174692107566,0.6698224335407523,0.34784618404687834,0.35093471763500417,0.3311348359974425,0.5574581581537666
154,9.457,9.25,0.1,0.16830677664851587,0.6729868440890232,0.34686270435084215,0.3514462135567996,0.3329617573119583,0.558187064119997
155,9.497,9.3,0.05,0.16399722579982878,0.6761496609388667,0.3458405831896457,0.351961572235667,0.33473581103780425,0.5589492329342666
156,9.557,9.36,-0.02,0.15972446022809636,0.6793099118140943,0.34478005334596357,0.35248103431537375,0.33645636630518405,0.5597446902230372
157,9.638,9.41,0.13,0.1554898259183159,0.6824666295381762,0.3436813982463872,0.3530048495613842,0.3381228714518947,0.5605734443553738
158,9.659,9.47,0.07,0.15129464792258876,0.6856188525987748,0.34254495103477933,0.35353327654032174,0.3397348533943432,0.561435487191148
159,9.761,9.52,-0.01,0.1471402293087662,0.6887656257103183,0.3413710935915567,0.35406658227192134,0.3412919168969597,0.5623307948113888
160,9.782,9.58,0.06,0.14302785012377392,0.691906000374641,0.34016025550053175,0.3546050418551659,0.34279374374233035,0.5632593282302759
161,9.843,9.63,0.09,0.13895876637309434,0.695039035439506,0.3389129129651041,0.3551489380703047,0.3442400918045334,0.5642210340883728
162,9.885,9.69,0.05,0.13493420901809539,0.6981637976545342,0.3376295876757751,0.3556985609583367,0.34563079402825064,0.5652158453268428
163,10.006,9.74,0.01,0.13095538299302026,0.7012793622238783,0.33631084563106517,0.35625420737946145,0.3469657573162505,0.5662436818425823
164,10.026,9.8,0.11,0.12702346624347421,0.7043848133549213,0.33495729591394824,0.3568161805520437,0.3482449613279446,0.5673044511243256
165,10.067,9.85,0.04,0.12313960878819581,0.707479244802261,0.3335695894259526,0.35738478957364955,0.34946845719185715,0.5683980488698055
166,10.128,9.91,-0.05,0.11930493180575198,0.7105617604062355,0.33214841758110875,0.35796034892566175,0.35063636613495663,0.569524359584062
167,10.168,9.96,0.11,0.11552052674753321,0.7136314746253147,0.3306945109619123,0.35854317796295865,0.3517488780318665,0.5706832571589685
168,10.209,10.02,0.07,0.11178745447810216,0.7166875130617565,0.3292086379394371,0.3591336003901214,0.3528062498769966,0.5718746054340283
169,10.27,10.07,0.0,0.10810674444364432,0.7197290129799976,0.32769160325969915,0.35973194372560346,0.3538088041826228,0.5730982587385013
170,10.352,10.13,0.04,0.10447939386909187,0.7227551238172913,0.3261442465983648,0.36033853875531513,0.35475692730599767,0.5743540624148928
171,10.372,10.18,0.09,0.10090636698452274,0.7257650076860122,0.32456744108596786,0.36095371897702894,0.35565106770872645,0.5756418533237389
172,10.434,10.24,0.05,0.09738859428164148,0.7287578398667532,0.32296209180596874,0.3615778200368176,0.35649173415178337,0.5769614603295347
173,10.537,10.29,0.01,0.09392697180140798,0.7317328092910447,0.3213291342681461,0.3622111791585493,0.3572794938296141,0.5783127047677108
174,10.558,10.35,0.11,0.09052236045412562,0.7346891190122989,0.319669532859928,0.3628541345673995,0.3580149704468717,0.5796954008926325
175,10.599,10.4,0.05,0.08717558537352584,0.7376259866633853,0.31798427927839684,0.36350702490828274,0.3586988422414707,0.5811093563066189
176,10.662,10.46,-0.05,0.08388743530654068,0.7405426448990157,0.31627439094583554,0.36417018865997725,0.3593318399577582,0.5825543723699834
177,10.766,10.51,0.08,0.08065866204052514,0.7434383418209654,0.31454090941178436,0.36484396354558335,0.35991474477367996,0.5840302445920779
178,10.787,10.57,0.05,0.07748997986965782,0.7463123413840415,0.3127848987446423,0.3655286859397987,0.3604483861858356,0.5855367630033178
179,10.808,10.62,-0.02,0.07438206510208877,0.7491639237806955,0.31100744391586094,0.3662246902733499,0.3609336398562557,0.5870737125082195
180,10.87,10.68,0.02,0.07133555560911202,0.7519923858023371,0.30920964917969657,0.36693230843489566,0.36137142542468514,0.588640873219506
181,10.931,10.73,0.07,0.068351050417269,0.7547970411756547,0.3073926364513795,0.36765186917071513,0.36176270429017693,0.5902380207732785
182,11.011,10.79,0.03,0.06542910934394357,0.7575772208724266,0.3055575436864885,0.36838369748236505,0.3621084773658389,0.5918649266251588
183,11.114,10.84,-0.02,0.06257025267676437,0.7603322733914741,0.30370552326426054,0.3691281140223334,0.3624097828105958,0.5935213583272598
184,11.134,10.9,0.11,0.059774960897043664,0.7630615650115696,0.30183774037748645,0.36988543448770145,0.3626676937419152,0.5952070797857968
185,11.175,10.95,0.05,0.0570436744475626,0.7657644800142,0.2999553714315991,0.37065596901184483,0.3628833159335763,0.5969218514990926
186,11.195,11.01,-0.05,0.054376793545179034,0.7684404208750899,0.29805960245553076,0.37144002155421224,0.3630577855026789,0.5986654307756814
187,11.256,11.06,0.07,0.05177467803891381,0.7710888084233989,0.2961516275268856,0.3722378892882614,0.3631922665902184,0.6004375719321733
188,11.317,11.12,0.06,0.04923764731430443,0.7737090819675134,0.2942326472139409,0.3730498619876837,0.36328794903964934,0.6022380264704965
189,11.378,11.17,-0.02,0.046765980244856765,0.7763006993864625,0.2923038670369403,0.3738762214111271,0.3633460460778752,0.6040665432341671
190,11.481,11.23,-0.03,0.04435991519134184,0.7788631371862919,0.2903664959510064,0.3747172406858576,0.36336779200308494,0.6059228685432824
191,11.502,11.28,0.02,0.042019650049494296,0.7813958905211321,0.28842174485281885,0.37557318369111026,0.363354439883878,0.607806746307916
192,11.543,11.34,-0.04,0.03974534234640598,0.7838984731790657,0.2864708251130407,0.37644430444207505,0.36330725927407964,0.6097179181195582
193,11.605,11.39,-0.12,0.037537109385540925,0.7863704175333106,0.2845149471362858,0.37733084647560494,0.3632275339474998,0.6116561233202856
194,11.665,11.45,0.02,0.03539502843981605,0.7888112744597872,0.28255531895017505,0.3782330422389478,0.36311655965668377,0.6136210990494142
195,11.707,11.5,-0.04,0.033319136991664576,0.7912206132226987,0.2805931448247678,0.37915111248302263,0.3629756419194965,0.6156125802674252
196,11.789,11.56,-0.14,0.031309433018554544,0.7935980213301822,0.27862962392341556,0.3800852656619302,0.36280609383717477,0.6176302997569936
197,11.848,11.61,-0.05,0.029365875322174138,0.7959431043623367,0.2766659489858766,0.38103569734053805,0.3626092339473263,0.6196739881009669
198,11.869,11.67,-0.05,0.027488383899485554,0.79825548577397,0.27470330504441226,0.3820025896120605,0.3623863841152552,0.62174337363715
199,11.93,11.72,-0.11,0.02567684035399437,0.800534806674388,0.2727428681735288,0.3829861105275555,0.3621388674668482,0.6238381823898406
200,11.991,11.78,-0.14,0.023931088345755164,0.8027807255866817,0.2707858042739608,0.38398641353935825,0.3618680063660893,0.6259581379781878
201,12.053,11.83,-0.07,0.022250934078787466,0.8049929181891889,0.2688332678914101,0.38500363696065376,0.3615751204401434,0.6281029615015644
202,12.094,11.89,-0.13,0.02063614682471085,0.8071710770419829,0.2668864010705216,0.38603790344348426,0.36126152465480765,0.6302723714022412
203,12.135,11.94,-0.2,0.019086459481492686,0.8093149113013068,0.26494633224454883,0.3870893194774891,0.36092852744290493,0.6324660833058439
204,12.196,12.0,-0.07,0.01760156916620659,0.8114241464249639,0.2630141751610934,0.38815797491169574,0.3605774288879664,0.6346838098402546
205,12.256,12.05,-0.14,0.01618113784062238,0.8134985238717162,0.26109102784421007,0.389243942501692,0.360209518965334,0.6369252604337381
206,12.318,12.11,-0.24,0.014824792968273375,0.8155378007978316,0.2591779715930546,0.3903472774845029,0.35982607584259574,0.6391901410931551
207,12.379,12.16,-0.16,0.013532128201362934,0.8175417497540524,0.2572760700170779,0.3914680171835446,0.3594283642410662,0.6414781541631637
208,12.442,12.22,-0.14,0.012302704095556295,0.8195101583863695,0.25538636810760346,0.39260618064604086,0.35901763385980257,0.6437889980673187
209,12.462,12.27,-0.19,0.011136048850439298,0.8214428291439211,0.25350989134547114,0.3937617683151921,0.3585951178633567,0.6461223670320524
210,12.566,12.33,-0.22,0.010031659073282994,0.8233395789971836,0.25164764484427576,0.39493476173930236,0.3581620314341493,0.6484779507946369
211,12.587,12.38,-0.12,0.008989000563781161,0.8252002391694266,0.24980061252861044,0.39612512332006383,0.3577195703901549,0.6508554342963142
212,12.649,12.44,-0.18,0.008007509117617157,0.8270246548841167,0.24796975634669388,0.397332796102146,0.3572689098684593,0.653254497361818
213,12.689,12.49,-0.25,0.007086591346977658,0.8288126851306674,0.2461560155167878,0.39855770360614656,0.356811203075126,0.6556748143665952
214,12.75,12.55,-0.11,0.006225625516392477,0.8305642024506851,0.2443603058068254,0.39979974970689086,0.3563475801016981,0.6581160538931162
215,12.812,12.6,-0.15,0.005423962392507981,0.8322790927466149,0.24258351884669957,0.40105881855896813,0.3558791468085689,0.6605778783777279
216,12.874,12.66,-0.25,0.004680926106573517,0.8339572551144457,0.2408265214726769,0.402334774571267,0.3554069837753455,0.6630599437495954
217,12.936,12.71,-0.2,0.0039958150285197775,0.8355986017019318,0.2390901551033967,0.40362746243215714,0.354932145318242,0.6655618990633436
218,12.957,12.77,-0.18,0.003367902651549837,0.8372030575935482,0.23737523514693715,0.4049367071867663,0.35445565857446504,0.6680833861270266
219,13.019,12.82,-0.22,0.00279643848612864,0.838770560723098,0.23568255043848585,0.40626231436741517,0.35397852265337193,0.6706240391271066
220,13.081,12.88,-0.26,0.002280648962102757,0.8403010618146821,0.234012862708154,0.4076040701779011,0.35350170785390556,0.6731834842522394
221,13.143,12.93,-0.14,0.001819738337458616,0.8417945243526813,0.23236690607842148,0.4089617417320863,0.3530261549475488,0.6757613393177411
222,13.205,12.99,-0.19,0.0014128896120559097,0.8432509245813047,0.23074538659066254,0.41033507734704994,0.3525527745258361,0.678357213392614
223,13.308,13.04,-0.27,0.0010592654446557454,0.8446702515340199,0.22914898176020815,0.41172380689086524,0.35208244641129705,0.6809707064309872
224,13.328,13.1,-0.11,0.0007580090717018524,0.8460525070928608,0.22757834015943731,0.41312764218489995,0.35161601913062734,0.6836014089097742
225,13.348,13.15,-0.15,0.0005082452265688775,0.8473977060772201,0.22603408102847833,0.4145462774603586,0.35115430944886045,0.6862489014742938
226,13.41,13.21,-0.21,0.00030908105827033767,0.8487058763613946,0.22451679391320645,0.41597938986861016,0.3506981019632844,0.6889127545935898
227,13.472,13.26,-0.15,0.0001596070488606642,0.849977059019966,0.22302703833030135,0.41742664004475927,0.3502481487558642,0.6915925282271538
228,13.532,13.32,-0.12,5.889792896865014e-05,0.851211308499923,0.2215653434591947,0.4188876727238432,0.3498051691030013,0.6942877715046644
229,13.593,13.37,-0.15,6.0135910493013976e-06,0.8524086928182109,0.22013220786083043,0.42036211740884677,0.3493698492414975,0.6969980224202241
230,13.675,13.43,-0.21,0.0,0.8535692937832088,0.2187280992232098,0.42184958908952724,0.3489428421895775,0.6997228075424908
231,13.696,13.48,-0.12,3.989010073470792e-05,0.8546932072385726,0.21735345413369542,0.42334968901091796,0.34852476762181483,0.7024616417419749
232,13.759,13.54,-0.18,0.00012470472217180722,0.8557805433278892,0.2160086778780583,0.42486200549021763,0.3481162117967773,0.7052140279366459
233,13.78,13.59,-0.27,0.00025345347685553493,0.856831426778628,0.21469414426625358,0.4263861147805448,0.3477177275360821,0.7079794568569185
234,13.841,13.65,-0.1,0.0004251356551383284,0.8578459972039911,0.21341019548487308,0.4279215819798397,0.34732983425334873,0.7107574068310739
235,13.903,13.7,-0.13,0.0006387411126213449,0.8588244094213162,0.2121571419761986,0.4294679619829634,0.34695301803132866,0.7135473435921802
236,13.944,13.76,-0.19,0.0008932511494673896,0.8597668337856544,0.21093526234378965,0.4310248004747476,0.34658773174529955,0.7163487201076061
237,14.044,13.81,-0.14,0.0011876393802870686,0.8606734565370996,0.20974480328458556,0.43259163496146047,0.3462343952307624,0.7191609764322199
238,14.065,13.87,-0.08,0.001520872593536023,0.8615444801602888,0.2085859795476042,0.4341679958378309,0.3458933954935724,0.7219835395862605
239,14.107,13.92,-0.11,0.0018919115996772259,0.8623801237541867,0.20745897391948961,0.4357534074863808,0.34556508696073507,0.7248158234587613
240,14.17,13.98,-0.17,0.002299712067661317,0.8631806234099619,0.20636393723730442,0.43734738940549106,0.3452497917701633,0.727657228737343
241,14.231,14.03,-0.04,0.0027432253495142207,0.8639462325945843,0.20530098842905056,0.43894945736247165,0.34494780009778486,0.7305071428651279
242,14.273,14.09,-0.1,0.0032213992929926937,0.8646772225376705,0.20427021458247702,0.440559124567785,0.3446593705205229,0.7333649400254186
243,14.417,14.14,-0.2,0.003733179042351849,0.8653738826190411,0.2032716710427867,0.44217590286642755,0.3443847304137458,0.7362299811547152
244,14.438,14.2,-0.07,0.004277507827267197,0.8660365207544167,0.20230538153985683,0.4437993039423728,0.3441240763818179,0.7391016139845727
245,14.458,14.25,-0.1,0.004853327739867655,0.8666654637766169,0.20137133834554846,0.4454288405318982,0.3438775747203532,0.741979173112751
246,14.5,14.31,-0.15,0.005459580499688944,0.8672610578095499,0.2004695024616053,0.4470640276415585,0.3436453619086596,0.7448619801041007
247,14.562,14.36,-0.11,0.006095208206151544,0.8678236686322958,0.19959980383850914,0.4487043837666103,0.3434275451307473,0.7477493436216317
248,14.623,14.42,-0.04,0.006759154078009619,0.8683536820305732,0.19876214162554726,0.4503494321057423,0.3432242028232511,0.7506405595881177
249,14.665,14.47,-0.08,0.007450363179196204,0.8688515041327176,0.1979563844523226,0.4519987017678765,0.3430353852486456,0.7535349113784583
250,14.79,14.53,-0.12,0.008167783130612656,0.8693175617271224,0.19718237074194586,0.45365172896671213,0.34286111509219475,0.7564316700429188
251,14.811,14.58,0.02,0.008910364807622417,0.8697523025580234,0.1964399090561289,0.45530805819876674,0.3427013880812164,0.7593300945612406
252,14.852,14.64,-0.02,0.009677063023260766,0.8701561955965111,0.19572877847239475,0.4569672434008397,0.342556173625429,0.7622294321274861
253,14.914,14.69,-0.11,0.010466837197409802,0.8705297312836472,0.19504872899361997,0.45862884908298046,0.34242541547732924,0.7651289184653548
254,14.935,14.75,0.02,0.011278652012379941,0.8708734217425896,0.19439948199013526,0.460292451433169,0.3423090324117627,0.7680277781735688
255,15.018,14.8,0.0,0.012111478055482601,0.8711878009565989,0.19378073067464124,0.46195763938995277,0.3422069189240573,0.7709252251007536
256,15.038,14.86,-0.07,0.012964292449238642,0.871473424909816,0.19319214061021875,0.4636240156792644,0.3421189459462306,0.7738204627491337
257,15.141,14.91,-0.07,0.013836079469801747,0.8717308716879002,0.19263335025163503,0.46529119781175865,0.34204496158086684,0.776712684706276
258,15.162,14.97,-0.0,0.014725831153995915,0.8719607415359292,0.192103971519992,0.4669588190372616,0.34198479185235503,0.7796010751039788
259,15.224,15.02,-0.05,0.015632547895107922,0.8721636568712958,0.19160359041059036,0.4686265292531533,0.3419382414752017,0.7824848091032791
260,15.265,15.08,-0.12,0.016555239027256256,0.8723402622496986,0.19113176763368436,0.4702939958637481,0.34190509463906704,0.7853630534044813
261,15.328,15.13,0.03,0.017492923397865342,0.8724912242827316,0.190688039287578,0.4719609045880711,0.34188511581010766,0.788234966781071
262,15.39,15.19,-0.02,0.018444629927626698,0.8726172315058776,0.19027191756333411,0.47362696021376166,0.3418780505481858,0.7910997006363312
263,15.451,15.24,-0.11,0.019409398157362437,0.8727189941958075,0.18988289148026688,0.47529188729507144,0.34188362633949665,0.7939563995814637
264,15.511,15.3,0.01,0.020386278781387854,0.8727972441359159,0.1895204276513483,0.47695543079313213,0.34190155344421796,0.7968042020340088
265,15.572,15.35,0.0,0.02137433416720406,0.8728527343289874,0.18918397107767868,0.478617356656826,0.3419315257588839,0.799642240835308
266,15.632,15.41,-0.07,0.022372638861559237,0.8728862386559227,0.18887294597120396,0.4802774523427188,0.3419732216932603,0.8024696438857538
267,15.652,15.46,-0.09,0.023380280083037733,0.8728985514796321,0.18858675660482555,0.48193552727272626,0.342026305061543,0.805285534796588
268,15.713,15.52,-0.02,0.024396358201384145,0.8728904871934742,0.18832478818898096,0.48359141322844434,0.3420904259877683,0.8080890335570018
269,15.774,15.57,-0.08,0.02541998720376936,0.872862879713833,0.18808640777372782,0.48524496468123973,0.34216522182531084,0.8108792572153076
270,15.877,15.63,-0.14,0.026450295148119793,0.8728165819166914,0.18787096517531007,0.4868960590573224,0.3422503180902159,0.8136553205730334
271,15.898,15.68,-0.01,0.02748642460344596,0.8727524650184403,0.18767779392607997,0.4885445969371923,0.34234532940794854,0.8164163368908717
272,15.939,15.74,-0.08,0.028527533076846696,0.8726714179015804,0.18750621224654299,0.49019050218895205,0.3424498604730064,0.8191614186054229
273,15.999,15.79,-0.17,0.029572793426611007,0.8725743463862864,0.18735552403819852,0.49183372203498654,0.3425635070207246,0.8218896780556371
274,16.062,15.85,-0.07,0.030621394260660784,0.8724621724490029,0.1872250198957453,0.4934742270515548,0.34268585681052255,0.8246002282178161
275,16.125,15.9,-0.06,0.03167254031955982,0.8723358333892506,0.187113978137138,0.49511201110094105,0.34281649061978137,0.8272921834480198
276,16.146,15.96,-0.11,0.03272545284343123,0.8721962809457638,0.18702166584990704,0.4967470911959605,0.3429549832474143,0.829964660230802
277,16.247,16.01,-0.13,0.0337793699222907,0.8720444803631603,0.18694733995205878,0.4983795072969248,0.34310090452607156,0.8326167779333503
278,16.288,16.07,-0.04,0.03483354682948259,0.8718814094105267,0.1868902482657865,0.5000093220415887,0.34325382034189683,0.8352476595641687
279,16.309,16.12,-0.1,0.035887256338081465,0.8717080573534669,0.18684963060220564,0.5016366204089415,0.34341329366076284,0.8378564325354929
280,16.39,16.18,-0.16,0.036939789020249275,0.8715254238812674,0.18682471985534044,0.5032615093179609,0.3435788855598776,0.8404422294287172
281,16.453,16.23,-0.02,0.0379904535296029,0.8713345179910068,0.18681474310358193,0.5048841171626971,0.3437501562636111,0.8430041887621961
282,16.493,16.29,-0.09,0.039038576866632556,0.8711363568306077,0.18681892271683,0.5065045932852508,0.3439266661823583,0.8455414557608044
283,16.555,16.34,-0.18,0.04008350462710749,0.8709319645030457,0.1868364774675317,0.5081231073882835,0.34410797695321343,0.8480531831266152
284,16.616,16.4,-0.1,0.041124601233214424,0.8707223708341668,0.1868666236438139,0.509739848888752,0.3442936524812012,0.8505385318099806
285,16.637,16.45,-0.08,0.04216125014694508,0.870508610106763,0.1869085761629145,0.511355026214526,0.34448325997976603,0.8529966717801881
286,16.7,16.51,-0.15,0.043192854065019264,0.8702917197636552,0.18696154968311987,0.5129688660454886,0.3446763710090864,0.8554267827948001
287,16.764,16.56,-0.17,0.04421883509444694,0.8700727390826737,0.18702475971235508,0.514581612500798,0.34487256251060777,0.8578280551667817
288,16.805,16.62,-0.08,0.04523863490775307,0.8698527078265809,0.18709742371148327,0.5161935262742108,0.34507141783608153,0.8601996905285128
289,16.869,16.67,-0.12,0.04625171487697272,0.869632664871076,0.18717876219036522,0.5178048837195428,0.3452725277692936,0.8625409025918098
290,16.992,16.73,-0.19,0.047257556185724414,0.8694136468140463,0.187267999794797,0.5194159758884425,0.3454754915385381,0.8648509179032295
291,17.013,16.78,-0.05,0.04825565991892267,0.8691966865692694,0.18736436638251616,0.5210271075227995,0.3456799178177869,0.8671289765940883
292,17.054,16.84,-0.07,0.0492455471299486,0.8689828119477744,0.18746709808651643,0.5226385960043022,0.3458854257144767,0.8693743331247482
293,17.095,16.89,-0.15,0.050226758885318315,0.8687730442300179,0.1875754383638954,0.5242507702638749,0.34609164574182866,0.8715862570228179
294,17.157,16.95,-0.07,0.05119885628705976,0.8685683967320073,0.18768863902839658,0.5258639696540031,0.34629822077368033,0.8737640336149072
295,17.219,17.0,-0.06,0.05216142047311642,0.8683698733684504,0.18780596126478502,0.527478542787159,0.3465048069799383,0.8759069647514427
296,17.239,17.06,-0.12,0.05311405259611356,0.8681784672159644,0.18792667662323537,0.5290948463436249,0.34671107474085605,0.8780143695238842
297,17.36,17.11,-0.14,0.054056373780696686,0.8679951590794905,0.18805006799190538,0.5307132438521183,0.3469167095383731,0.8800855849735829
298,17.38,17.17,-0.04,0.05498802505940283,0.8678209160653316,0.1881754305458051,0.532334104446829,0.34712141282277464,0.8821199667914602
299,17.422,17.22,-0.08,0.05590866728672126,0.8676566901644766,0.18830207267002763,0.5339578016045564,0.3473249028529105,0.8841168900076715
300,17.505,17.28,-0.14,0.05681798103072579,0.8675034168500232,0.1884293168553988,0.5355847118655878,0.3475269155081474,0.8860757496704652
301,17.526,17.33,0.02,0.05771566644150532,0.867362013692514,0.18855650056462112,0.5372152135419107,0.34772720507020627,0.8879959615134843
302,17.588,17.39,-0.03,0.05860144309565584,0.867233378996854,0.1886829770670598,0.5388496854162835,0.347925544973101,0.8898769626107594
303,17.649,17.44,-0.11,0.05947504981630258,0.8671183904642471,0.18880811624044802,0.5404885054356298,0.3481217285195124,0.8917182120186293
304,17.733,17.5,-0.03,0.060336244468413916,0.867017903882386,0.1889313053379258,0.5421320494022491,0.3483155695621142,0.8935191914037995
305,17.754,17.55,-0.01,0.06118480372949323,0.8669327518469145,0.18905194971899955,0.5437806896663381,0.3485069031485729,0.8952794056566825
306,17.794,17.61,-0.06,0.062020522836028755,0.8668637425169379,0.1891694735431964,0.5454347938232295,0.3486955861290439,0.8969983834891824
307,17.856,17.66,-0.08,0.06284321530628927,0.8668116584072103,0.1892833204253206,0.5470947234187008,0.3488814977250077,0.8986756780161856
308,17.918,17.72,0.01,0.06365271264017824,0.8667772552196041,0.18939295405130735,0.5487608326657151,0.34906454005834525,0.9003108673200869
309,17.959,17.77,-0.04,0.0644488639969178,0.8667612607164312,0.18949785875377742,0.5504334671759107,0.3492446386396128,0.901903554997733
310,18.022,17.83,-0.12,0.06523153585131244,0.8667643736381403,0.18959754004651022,0.5521129627090297,0.34942174281449795,0.9034533706892253
311,18.104,17.88,0.04,0.06600061162921567,0.8667872626678994,0.18969152511713094,0.5537996439433652,0.34959582616744794,0.9049599705880909
312,18.124,17.94,-0.0,0.06675599132263049,0.8668305654455367,0.18977936327736922,0.5554938232701839,0.3497668868814786,0.9064230379323489
313,18.206,17.99,-0.09,0.06749759108468951,0.8668948876332576,0.18986062637029535,0.5571957996149461,0.3499349480532068,0.9078422834760179
314,18.268,18.05,-0.01,0.06822534280466212,0.8669808020354498,0.18993490913398528,0.558905857288086,0.3501000579622463,0.909217445940588
315,18.309,18.1,0.02,0.06893919366321594,0.8670888477746801,0.1900018295211694,0.5606242648680123,0.350262290294255,0.9105482924459473
316,18.371,18.16,-0.01,0.06963910566837957,0.8672195295256642,0.1900610289745952,0.5623512741188053,0.3504217443170097,0.9118346189202701
317,18.455,18.21,-0.04,0.07032505517290116,0.8673733168087823,0.19011217265799324,0.564087118944937,0.3505785450089417,0.913076250488463
318,18.475,18.27,0.07,0.07099703237392292,0.8675506433446561,0.1901549496426655,0.565832014385339,0.35073284313969105,0.914273041838794
319,18.517,18.32,0.02,0.0716550407960965,0.8677519064712533,0.1901890730498711,0.5675861556491141,0.35088481530241006,0.9154248775673021
320,18.578,18.38,-0.06,0.07229909675942776,0.8679774666248974,0.19021428014934746,0.5693497171951278,0.35103466389769644,0.9165316724995751
321,18.62,18.43,0.09,0.07292922883323064,0.8682276468864776,0.1902303324144298,0.5711228518576734,0.3511826170691806,0.9175933719894847
322,18.681,18.49,0.04,0.07354547727757915,0.8685027325940896,0.19023701553432854,0.5729056900203269,0.3513289285909237,0.9186099521944432
323,18.742,18.54,-0.05,0.07414789347353826,0.8688029710233234,0.19023413938417852,0.5746983388400166,0.35147387770688776,0.919581420326747
324,18.885,18.6,0.02,0.07473653934323522,0.8691285711365143,0.1902215379534737,0.576500881523267,0.35161776892284474,0.920507814880513
325,18.905,18.65,0.04,0.07531148676058054,0.8694797034022691,0.19019906923349716,0.5783133766564723,0.3517609317512121,0.9213892058336252
326,18.925,18.71,0.0,0.07587281695323904,0.8698564996863632,0.1901666150643844,0.580135857591822,0.3519037204093371,0.9222256948240407
327,18.946,18.76,-0.02,0.07642061989633503,0.8702590532147855,0.19012408094246755,0.581968331890259,0.3520465134717285,0.9230174152998597
328,19.008,18.82,0.09,0.07695499369840467,0.8706874186093982,0.1900713957885699,0.5838107808227031,0.35218971347677014,0.9237645326426
329,19.069,18.87,0.04,0.07747604398028392,0.8711416119963785,0.1900085116780177,0.5856631589305668,0.3523337464885475,0.9244672442631693
330,19.132,18.93,-0.03,0.07798388324787901,0.8716216111873141,0.1899354035332858,0.5875253936463749,0.35247906161453296,0.9251257796700731
331,19.193,18.98,0.12,0.07847863026002387,0.8721273559326221,0.1898520687803321,0.5893973849751244,0.35262613048003627,0.9257404005094263
332,19.234,19.04,0.06,0.07896040939285628,0.8726587482467653,0.18975852696980122,0.5912790052368998,0.3527754466605176,0.9263114005763192
333,19.295,19.09,-0.03,0.07942935000229912,0.8732156528046101,0.18965481936435893,0.5931700988712019,0.3529275250730254,0.9268391057970872
334,19.356,19.15,0.04,0.07988558578631585,0.8737978974082096,0.1895410084934476,0.595070482303507,0.3530829013281785,0.9273238741820145
335,19.416,19.2,0.05,0.08032925414862876,0.8744052735231761,0.18941717767677413,0.5969799438745895,0.3532421310442328,0.9277660957479943
336,19.476,19.26,0.0,0.08076049556553382,0.875037536883581,0.18928343051785537,0.5988982438329854,0.3534057891247744,0.9281661924106952
337,19.559,19.31,-0.03,0.08117945295726128,0.8756944081641483,0.18913989036885692,0.6008251143907934,0.35357446900150663,0.9285246178458667
338,19.58,19.37,0.07,0.08158627106504515,0.8763755737184666,0.18898669976778426,0.602760259842917,0.35374878184357045,0.9288418573194481
339,19.621,19.42,0.02,0.08198109583474666,0.8770806863819198,0.18882401984894326,0.6047033567497005,0.35392935573484513,0.929118427486119
340,19.683,19.48,-0.06,0.08236407380762499,0.877809366337967,0.18865202972751213,0.6066540541827239,0.35411683482067924,0.9293548761559329
341,19.724,19.53,0.1,0.0827353515187458,0.8785612020462515,0.18847092585905603,0.6086119740333485,0.3543118784255359,0.929551782028701
342,19.787,19.59,0.04,0.0830950749036027,0.8793357512307728,0.18828092137486882,0.6105767113834744,0.35451516014311835,0.9297097543958304
343,19.85,19.64,-0.04,0.08344338871373846,0.8801325419260686,0.1880822453941305,0.6125478349378437,0.35472736690062634,0.9298294328094004
344,19.91,19.7,0.03,0.08378043594240445,0.8809510735791318,0.18787514231397565,0.6145248875172068,0.35494919799891206,0.9299114867183647
345,19.952,19.75,0.05,0.08410635726154271,0.8817908182045469,0.187659871078702,0.6165073866115994,0.35518136413042967,0.9299566150718204
346,20.014,19.81,-0.01,0.08442129047157151,0.8826512215900756,0.1874367044294962,0.6184948249928142,0.3554245863769154,0.9299655458893779
347,20.076,19.86,-0.04,0.08472536996555739,0.8835317045497458,0.1872059281361417,0.620486671384991,0.3556795951887125,0.9299390357987981
348,20.117,19.92,0.05,0.08501872620936139,0.8844316642214741,0.18696784021219892,0.6224823711921855,0.3559471293476601,0.9298778695411465
349,20.178,19.97,-0.01,0.08530148523928144,0.8853504754062458,0.1867227501151874,0.6244813472816763,0.3562279349154643,0.9297828594437931
350,20.282,20.03,-0.08,0.08557376817855135,0.8862874919459132,0.18647097793332987,0.62648300082161,0.35652276416941775,0.929654844861684
351,20.302,20.08,0.06,0.08583569077379814,0.8872420481367354,0.18621285356038872,0.628486712171474,0.35683237452726846,0.9294946915874026
352,20.343,20.14,-0.01,0.08608736295224662,0.8882134601758034,0.18594871586006495,0.6304918418237652,0.35715752746300194,0.9293032912305372
353,20.383,20.19,-0.09,0.08632888840016893,0.8892010276374656,0.18567891182134455,0.6324977313951387,0.357498987415268,0.9290815605668482
354,20.444,20.25,-0.01,0.08656036416289337,0.8902040349767981,0.18540379570609758,0.6345037046652768,0.35785752069018184,0.9288304408576524
355,20.505,20.3,0.0,0.08678188026669093,0.8912217530569685,0.1851237281902368,0.6365090686616474,0.3582338943602396,0.9285508971397968
356,20.545,20.36,-0.04,0.08699351936301099,0.8922534406970596,0.18483907549982304,0.6385131147881313,0.35862887516100955,0.9282439174866041
357,20.649,20.41,-0.07,0.08719535639572441,0.8932983462367224,0.18455020854357715,0.6405151199953909,0.3590432283871691,0.9279105122402801
358,20.669,20.47,0.03,0.08738745829221192,0.8943557091139541,0.18425750204328456,0.6425143479908625,0.35947771678943763,0.9275517132163268
359,20.729,20.52,-0.03,0.08756988367929569,0.8954247614522182,0.1839613336636252,0.644510050486276,0.3599330994739916,0.9271685728805257
360,20.771,20.58,-0.1,0.08774268262513912,0.8965047296529939,0.18366208314301838,0.646501468480507,0.3604101308059629,0.9267621634990887
361,20.831,20.63,0.03,0.08790589640829329,0.8975948359897545,0.18336013142714125,0.6484878335754439,0.36090955931863583,0.926333576262609
362,20.894,20.69,-0.03,0.08805955731504363,0.8986943001992908,0.18305585980688602,0.6504683693222952,0.3614321266299713,0.925883920384432
363,20.934,20.74,-0.12,0.08820368846608166,0.8998023410662935,0.1827496490626281,0.6524422925954558,0.36197856636806475,0.9254143221740704
364,21.017,20.8,-0.04,0.0883383036732926,0.9009181779972072,0.18244187861671166,0.6544088149908082,0.36254960310711337,0.9249259240862286
365,21.037,20.85,-0.02,0.08846340732717632,0.902041032579475,0.18213292569601902,0.6563671442451905,0.363145951315437,0.9244198837459275
366,21.099,20.91,-0.08,0.08857899431517326,0.9031701301223576,0.18182316450641775,0.6583164856736328,0.36376831431698164,0.9238973729501668
367,21.16,20.96,-0.1,0.08868504997100032,0.9043047011755858,0.18151296542074946,0.6602560436209683,0.36441738326759987,0.9233595766466152
368,21.201,21.02,-0.03,0.08878155005507227,0.9054439830222237,0.18120269418190382,0.6621850229245729,0.3650938361473278,0.9228076918898523
369,21.263,21.07,-0.08,0.08886846076619247,0.9065872211421333,0.18089271112247957,0.664102630385067,0.36579833676984247,0.9222429267757529
370,21.325,21.13,-0.15,0.08894573878487565,0.9077336706423959,0.18058337040256442,0.666008076241839,0.36653153381018916,0.9216664993547482
371,21.447,21.18,-0.01,0.08901333134882901,0.9088825976510106,0.18027501926720205,0.6679005756502482,0.36729405985176716,0.921079636524855
372,21.467,21.24,-0.08,0.08907117636123511,0.9100332806701876,0.17996799732515936,0.6697793501573208,0.36808653045346523,0.920483572905481
373,21.489,21.29,-0.17,0.08911920253253179,0.9111850118855687,0.17966263585065426,0.6716436291726207,0.3689095432377411,0.9198795496931054
374,21.552,21.35,-0.09,0.08915732955635905,0.9123370984278074,0.17935925710971481,0.6734926514308731,0.3697636770003595,0.9192688134999855
375,21.594,21.4,-0.09,0.08918546832026346,0.9134888635830365,0.17905817371285015,0.6753256664428123,0.37064949084241605,0.9186526151770474
376,21.654,21.46,-0.15,0.08920352115157772,0.9146396479488806,0.17875968799568343,0.677141935930646,0.371567523325085,0.9180322086221461
377,21.757,21.51,-0.17,0.08921138209858695,0.9157888105329695,0.17846409142905278,0.6789407352446093,0.37251829164728373,0.9174088495749366
378,21.777,21.57,-0.08,0.08920893724667323,0.9169357297913361,0.17817166405984955,0.6807213547573249,0.37350229084623926,0.916783794399598
379,21.819,21.62,-0.13,0.08919606506870957,0.9180798046044589,0.17788267398363247,0.6824831012328795,0.374519993020767,0.9161582988566279
380,21.881,21.68,-0.19,0.08917263680863918,0.9192204551889734,0.1775973768498618,0.6842252991676097,0.37557184657687925,0.9155336168649537
381,21.923,21.73,-0.03,0.08913851689701704,0.9203571239433015,0.17731601540043757,0.6859472920996821,0.37665827549521264,0.9149109992556478
382,21.985,21.79,-0.09,0.08909356339730272,0.9214892762255826,0.17703881904214674,0.6876484438845794,0.37777967861970685,0.9142916925185501
383,22.048,21.84,-0.19,0.0890376284818353,0.922616401062385,0.17676600345361257,0.689328139933599,0.37893642896695967,0.9136769375431165
384,22.111,21.9,-0.08,0.08897055893660658,0.9237380117867187,0.17649777022735338,0.6909857884124715,0.3801288730557303,0.9130679683547971
385,22.152,21.95,-0.07,0.08889219669413478,0.9248536466038852,0.17623430654759964,0.6926208213972046,0.38135733025611074,0.9124660108482332
386,22.193,22.01,-0.13,0.08880237939387514,0.9259628690836829,0.17597578490454,0.694232695984225,0.38262209215783866,0.9118722815186219
387,22.256,22.06,-0.15,0.08870094096962668,0.9270652685776674,0.1757223628456104,0.6958208953519599,0.38392342195713575,0.911287986192716
388,22.318,22.12,-0.07,0.0885877122633288,0.9281604605604886,0.17547418276432727,0.6973849297711668,0.3852615538614166,0.9107143187609706
389,22.359,22.17,-0.13,0.0884625216645029,0.9292480868946426,0.17523137172705966,0.6989243375614352,0.3866366925111671,0.9101524599123946
390,22.42,22.23,-0.19,0.08832519577437742,0.9303278160183537,0.17499404133802024,0.7004386859913956,0.38804901241816214,0.9096035758737596
391,22.501,22.28,-0.04,0.08817556009342807,0.9313993430567555,0.17476228764258156,0.7019275721203879,0.38949865741903766,0.909068817154948
392,22.522,22.34,-0.08,0.08801343973072505,0.9324623898569867,0.17453619106883458,0.7033906235795816,0.3909857401430993,0.9085493173022815
393,22.604,22.39,-0.17,0.08783866013319268,0.933516704948142,0.17431581640712063,0.704827499290764,0.39251034149316144,0.9080461916616966
394,22.645,22.45,-0.04,0.0876510478327466,0.9345620634271963,0.17410121282711222,0.7062378901212427,0.39407251013820316,0.907560536153612
395,22.685,22.5,-0.02,0.08745043120931913,0.9355982667720285,0.17389241393193514,0.7076215194735062,0.3956722620166965,0.9070934260612938
396,22.748,22.56,-0.08,0.0872366412679573,0.9366251425826354,0.17368943784879762,0.7089781438084599,0.3973095798495235,0.9066459148345724
397,22.891,22.61,-0.06,0.08700951242837764,0.9376425442517077,0.173492287355535,0.710307553101341,0.39898441266148743,0.9062190329108493
398,22.911,22.67,0.02,0.08676888332554314,0.9386503505658873,0.17330095004239954,0.7116095712297958,0.40069667531060377,0.9058137865553624
399,22.932,22.72,-0.02,0.0865145976200048,0.9396484652391299,0.17311539850839203,0.712884056293905,0.4024462480245458,0.9054311567226715
400,22.973,22.78,-0.09,0.08624650481686547,0.9406368163797212,0.17293559059140787,0.7141309008682004,0.4042329759437418,0.9050720979413667
401,23.034,22.83,0.04,0.0859644610922637,0.9416153558927601,0.1727614696314147,0.7153500321860509,0.4060566686707266,0.9047375372240339
402,23.096,22.89,-0.01,0.08566833012622743,0.9425840588202449,0.1725929647658115,0.7165414122571044,0.40791709982544966,0.9044283730044983
403,23.138,22.94,-0.11,0.08535798394060004,0.9435429226212353,0.17242999125603592,0.7177050379187203,0.40981400660629225,0.9041454741043604
404,23.219,23.0,0.03,0.08503330374051028,0.9444919663949006,0.17227245084436632,0.7188409408225594,0.41174708935657517,0.9038896787308204
405,23.239,23.05,0.05,0.08469418075759234,0.9454312300494919,0.17212023213974098,0.7199491873576911,0.41371601113635753,0.903661793507754
406,23.32,23.11,-0.0,0.08434051709293168,0.9463607734203566,0.17197321103129232,0.721029878511688,0.41572039729931326,0.9034625925419832
407,23.381,23.16,0.04,0.08397222655755898,0.9472806753401758,0.17183125112815928,0.7220831496713341,0.4177598350745291,0.9032928165266136
408,23.402,23.22,0.12,0.08358923550831147,0.948191032664606,0.1716942042240433,0.7231091703647424,0.4198338731532763,0.9031531718830974
409,23.465,23.27,0.08,0.08319148367701952,0.9490919592564376,0.17156191078497515,0.7241081439467641,0.4219420212810917,0.9030443299433981
410,23.526,23.33,0.02,0.08277892499118698,0.9499835849313469,0.17143420045878915,0.7250803072296667,0.42408374985578096,0.9029669261734058
411,23.608,23.38,0.14,0.08235152838455104,0.9508660543683841,0.1713108926048175,0.7260259300612628,0.4262584895322444,0.9029215594385364
412,23.629,23.44,0.08,0.08190927859609007,0.9517395259884518,0.1711917968423298,0.7269453148528878,0.42846563083528977,0.9029087913122691
413,23.689,23.49,-0.01,0.08145217695618338,0.9526041708041272,0.17107671361626575,0.7278387960597743,0.43070452378176893,0.9029291454282715
414,23.749,23.55,0.14,0.0809802421586978,0.9534601712443206,0.17096543477881906,0.7287067396164677,0.4329744775134672,0.9029831068767186
415,23.789,23.6,0.11,0.08049351101778573,0.9543077199573533,0.1708577441854654,0.7295495423299544,0.43527475994222675,0.903071121645398
416,23.85,23.66,0.04,0.07999203920811489,0.9551470185961685,0.17075341830406723,0.7303676312331498,0.43760459740878505,0.9031935961061979
417,23.996,23.71,0.08,0.07947590198707262,0.9559782765895948,0.17065222683568224,0.7311614629014218,0.4399631743568434,0.9033508965475334
418,24.016,23.77,0.13,0.07894519489725801,0.9568017099038009,0.17055393334568786,0.7319315227348515,0.4423496330239781,0.9035433487531245
419,24.036,23.82,0.1,0.07840003444735806,0.9576175397981005,0.17045829590386788,0.7326783242088006,0.44476307315109953,0.9037712376273265
420,24.078,23.88,0.06,0.07784055876936379,0.9584259915791692,0.17036506773214627,0.7334024080951481,0.44720255171222173,0.9040348068670885
421,24.139,23.93,0.18,0.0772669282500827,0.9592272933576094,0.17027399785869432,0.7341043416564749,0.44966708266642463,0.9043342586804672
422,24.2,23.99,0.12,0.0766793261350712,0.9600216748105865,0.17018483177721988,0.7347847178153883,0.45215563673405745,0.9046697535514961
423,24.263,24.04,0.03,0.07607795910340012,0.9608093659539888,0.17009731211037318,0.7354441543010936,0.4546671411993878,0.9050414100510894
424,24.325,24.1,0.18,0.07546305781198852,0.9615905959273184,0.1700111792763198,0.736083292775243,0.4572004797420313,0.9054493046935614
425,24.346,24.15,0.15,0.07483487740854125,0.962365591794262,0.16992617215764028,0.7367027979390598,0.4597544922995971,0.9058934718382488
426,24.388,24.21,0.07,0.07419369801236733,0.9631345773617132,0.16984202877180127,0.7373033566237331,0.4623279749640202,0.9063739036356848
427,24.45,24.26,0.12,0.07353982516251048,0.9638977720199601,0.16975848694247245,0.7378856768662251,0.46491967991411637,0.9068905500177239
428,24.511,24.32,0.14,0.07287359023272101,0.9646553896067129,0.16967528497098708,0.7384504869727857,0.4675283153870116,0.9074433187308495
429,24.573,24.37,0.1,0.07219535081283121,0.9654076372974995,0.1695921623073002,0.7389985345724361,0.4701525456911919,0.9080320754117038
430,24.614,24.43,0.02,0.07150549105604483,0.9661547145247995,0.16950886021983547,0.7395305856625519,0.4727909912639112,0.9086566437037343
431,24.698,24.48,0.14,0.07080442199150384,0.9668968119282175,0.16942512246361985,0.7400474236485327,0.47544222877566217,0.9093168054137228
432,24.718,24.54,0.09,0.07009258180131261,0.967634110337916,0.16934069594612255,0.740549848379387,0.47810479128433414,0.9100123007068704
433,24.78,24.59,0.0,0.06937043606102705,0.9683667797934334,0.16925533139023577,0.7410386751808454,0.4807771684415334,0.91074282833912
434,24.841,24.65,0.16,0.06863847794254024,0.969094978599876,0.16916878399382843,0.7415147338874977,0.48345780675340183,0.9115080459254432
435,24.902,24.7,0.1,0.06789722837836387,0.9698188524233249,0.1690808140853192,0.741978867875357,0.4861451098981979,0.9123075702428555
436,24.963,24.76,0.01,0.06714723618650911,0.9705385334271142,0.16899118777475797,0.7424319330962059,0.4888374391028638,0.9131409775669517
437,25.066,24.81,0.07,0.06638907815544692,0.971254139450534,0.16889967759996766,0.7428747971150713,0.4915331135808121,0.9140078040407899
438,25.087,24.87,0.08,0.06562335908893781,0.97196577323131,0.16880606316741908,0.7433083381521034,0.4942304110331706,0.9149075460749952
439,25.128,24.92,0.03,0.06485071181082487,0.972673521672901,0.16871013178768204,0.7437334441298795,0.49692756821563105,0.9158396607780662
440,25.189,24.98,-0.0,0.06407179713012347,0.9733774551573249,0.16861167910543387,0.7441510117268872,0.4996227815728576,0.9168035664160701
441,25.272,25.03,0.08,0.06328730376691942,0.9740776269039666,0.16851050972407544,0.74456194543776,0.5023142079422481,0.9177986429010724
442,25.292,25.09,0.02,0.06249794823969834,0.9747740723745507,0.16840643782505843,0.7449671566406437,0.5049999653286743,0.9188242323077604
443,25.334,25.14,-0.06,0.061704474714741955,0.9754668087242376,0.1682992877820525,0.7453675626718557,0.5076781337516344,0.9198796394178115
444,25.437,25.2,0.09,0.060907654818117885,0.9761558342986549,0.16818889477005938,0.7457640859078064,0.5103467561660562,0.9209641322916351
445,25.459,25.25,0.02,0.060108287410600446,0.9768411281765301,0.16807510536953493,0.7461576528539607,0.5130038394577919,0.9220769428671252
446,25.519,25.31,-0.07,0.059307198325645634,0.9775226497574283,0.16795777816552487,0.7465491932403856,0.515647355514657,0.9232172675850618
447,25.56,25.36,0.01,0.05850524007037684,0.978200338393929,0.16783678434174973,0.7469396391232784,0.5182752423737076,0.9243842680407656
448,25.601,25.42,0.02,0.057703291489500166,0.9788741130674053,0.1677120082695436,0.7473299239917252,0.5208854054453147,0.9255770716615606
449,25.662,25.47,-0.04,0.0569022573921625,0.9795438721064001,0.16758334809157568,0.7477209818787991,0.5234757188143834,0.926794772409653
450,25.723,25.53,-0.06,0.056103068141935206,0.9802094929465625,0.16745071630027994,0.7481137464761209,0.5260440266188123,0.9280364315101585
451,25.805,25.58,0.02,0.05530667921029468,0.9808708319312104,0.16731404031088526,0.7485091502511865,0.5285881445050659,0.9293010782041204
452,25.826,25.64,-0.04,0.05451407069417569,0.9815277241516926,0.16717326302891367,0.748908123566997,0.5311058611605298,0.9305877105264795
453,25.887,25.69,-0.11,0.05372624679834013,0.9821799833268268,0.16702834341198425,0.7493115938037523,0.5335949399220641,0.9318952961091004
454,25.948,25.75,0.02,0.05294423528341865,0.9828274017208644,0.16687925702569653,0.7497204844826516,0.5360531204599288,0.9332227730091168
455,26.01,25.8,-0.04,0.05216908688052657,0.9834697500996004,0.1667259965932995,0.7501357143920847,0.5384781205360227,0.9345690505629636
456,26.051,25.86,-0.14,0.0514018746733205,0.9841067777244287,0.16656857253877896,0.7505581967166605,0.540867637835123,0.935933010266542
457,26.176,25.91,-0.01,0.05064369344823711,0.9847382123843762,0.16640701352288967,0.7509888381696558,0.5432193518675817,0.9373135066820281
458,26.196,25.97,-0.01,0.04989565901348208,0.9853637604663428,0.16624136697153702,0.7514285381295828,0.5455309259417225,0.9387093683718214
459,26.237,26.02,-0.06,0.049158907487153444,0.9859831070639137,0.16607169959576024,0.7518781877816757,0.5478000092039625,0.9401193988601405
460,26.278,26.08,-0.02,0.04843459455473879,0.9865959161252129,0.16589809790235982,0.7523386692653059,0.5500242387444965,0.9415423776227552
461,26.34,26.13,0.05,0.047723894696192475,0.9872018306402994,0.16572066869403326,0.7528108548285598,0.5522012417663152,0.9429770611052285
462,26.403,26.19,0.02,0.04702800038292681,0.9878004728684548,0.16553953955781825,0.7532956059912967,0.554328637815335,0.944422183769879
463,26.444,26.24,-0.03,0.04634812124528115,0.988391444605537,0.16535485934064936,0.7537937727180095,0.5564040410694465,0.9458764591715367
464,26.607,26.3,0.1,0.045685483211302315,0.988974327491487,0.16516679861085723,0.7543061926018888,0.5584250626843846,0.9473385810620337
465,26.628,26.35,0.04,0.04504132761793096,0.9895486833579814,0.16497555010448858,0.754833690061604,0.5603893131944232,0.948807224523215
466,26.649,26.41,-0.04,0.04441691029592055,0.9901140546161066,0.16478132915539262,0.7553770755523631,0.562294404965938,0.9502810471281351
467,26.671,26.46,0.11,0.04381350062998216,0.9906699646838016,0.16458437410807095,0.7559371447928792,0.5641379547018667,0.951758690129996
468,26.711,26.52,0.07,0.043232380595749166,0.9912159184526713,0.16438494671233797,0.756514678009882,0.5659175859950681,0.9532387796782329
469,26.774,26.57,-0.02,0.04267484377515755,0.9917514027936579,0.16418333249886918,0.7571104392018091,0.5676309319285022,0.9547199280610047
470,26.834,26.63,0.03,0.042142194351740755,0.992275887101032,0.1639798411347057,0.757725175423333,0.5692756377201,0.9562007349731527
471,26.897,26.68,0.06,0.041635746087170536,0.9927888238740962,0.16377480675777384,0.7583596160923377,0.5708493634101308,0.9576797888084617
472,26.939,26.74,0.03,0.041156821280160905,0.9932896493358391,0.1635685882895033,0.7590144723207198,0.5723497865887365,0.9591556679748778
473,26.981,26.79,0.0,0.0407067497086085,0.9937777840876095,0.1633615697246335,0.7596904362700759,0.5737746051610728,0.9606269422312403
474,27.044,26.85,0.11,0.040286867555645735,0.994252633798763,0.16315416039728312,0.7603881805330901,0.575121540147317,0.9620921740440047
475,27.107,26.9,0.06,0.03989851632024344,0.9947135899300644,0.16294679522239938,0.7611083575412312,0.5763883385146995,0.9635499199622792
476,27.169,26.96,-0.02,0.039543041713137085,0.9951600304893804,0.16273993491179045,0.7618515989991806,0.5775727760386536,0.9649987320093952
477,27.251,27.01,0.13,0.03922179253911062,0.9955913208179571,0.16253406616404834,0.7626185153463301,0.5786726601901452,0.9664371590891246
478,27.272,27.07,0.07,0.03893611956697379,0.9960068144053378,0.16232970182778717,0.7634096952456298,0.5796858330462032,0.9678637484046158
479,27.333,27.12,-0.02,0.038687374388855826,0.9964058537307632,0.16212738103774768,0.7642257051000154,0.5806101742206103,0.9692770468881406
480,27.374,27.18,0.06,0.038476908270668485,0.9967877711287537,0.1619276693234401,0.7650670885965829,0.5814436038116289,0.9706756026397988
481,27.435,27.23,0.1,0.03830607099578971,0.9971518896763638,0.16173115869014804,0.7659343662785635,0.5821840853635515,0.9720579663733734
482,27.496,27.29,0.04,0.03817620970415763,0.9974975240993382,0.16153846767228866,0.7668280351448487,0.5828296288386866,0.9734226928676307
483,27.537,27.34,0.01,0.038088667728990555,0.9978239816942343,0.16135024135923107,0.7677485682765168,0.5833782935961909,0.9747683424214696
484,27.642,27.4,0.09,0.03804478343326206,0.9981305632635745,0.16116715139370832,0.7686964144895604,0.5838281913740607,0.976093482311372
485,27.662,27.45,0.03,0.03804588904787417,0.9984165640611485,0.16098989594297697,0.7696719980127683,0.5841774892705281,0.9773966882496326
486,27.704,27.51,-0.04,0.03809330951319492,0.9986812747446705,0.1608191996428557,0.7706757181894925,0.5844244127209393,0.9786765458419225
487,27.767,27.56,0.11,0.03818836132529539,0.9989239823331812,0.16065581351469144,0.7717079492019759,0.5845672484659649,0.9799316520428629
488,27.828,27.62,0.06,0.03833235138793697,0.9991439711667656,0.16050051485519562,0.7727690398169708,0.5846043475067376,0.9811606166083825
489,27.869,27.67,-0.01,0.038526575871222477,0.9993405238663128,0.1603541070990256,0.7738593131514929,0.5845341280422784,0.9823620635437315
490,27.91,27.73,0.15,0.03877231907785731,0.9995129222911744,0.16021741965397218,0.7749790664576782,0.5843550783844507,0.9835346325460933
491,28.012,27.78,0.17,0.03907085231814676,0.9996604484926231,0.16009130770869248,0.7761285709257875,0.5840657598456579,0.9846769804407695
492,28.032,27.84,0.12,0.03942343279508523,0.9997823856610863,0.15997665201303654,0.777308071504459,0.583664809594571,0.9857877826099811
493,28.094,27.89,0.16,0.039831302501082765,0.9998780190653257,0.15987435863106472,0.7785177867374872,0.583150943475365,0.9868657344133926
494,28.155,27.95,0.2,0.040295687128002355,0.9999466369820372,0.15978535866684737,0.7797579086167175,0.5825229587862937,0.987909552599481
495,28.216,28.0,0.16,0.040817794992262645,0.9999875316146054,0.15971060796314349,0.7810286024508823,0.5817797370137837,0.9889179767068489
496,28.257,28.06,0.11,0.04139881597677193,1.0,0.15965108677303677,0.7823300067504161,0.580920246518459,0.9898897704546274
497,28.297,28.11,0.23,0.04203992049137507,0.9999833449031392,0.1596077994045498,0.7836622331285491,0.579943545169635,0.9908237231211221
498,28.358,28.17,0.17,0.04274225845331958,0.9999368756983711,0.1595817738381932,0.7850253662191917,0.5788487829248693,0.9917186509098076
499,28.441,28.22,0.07,0.04350695828897139,0.9998599092380265,0.15957406131734983,0.7864194636122107,0.5776352043511287,0.9925733983017041
500,28.461,28.28,0.23,0.044335125957642496,0.9997517707082733,0.1595857359113188,0.7878445558067083,0.5763021510840964,0.9933868393930563
501,28.523,28.33,0.2,0.04522784399799053,0.9996117944726662,0.159617894050773,0.7893006461828587,0.5748490642220964,0.994157879217127
502,28.584,28.39,0.14,0.04618617059710766,0.9994393249038405,0.15967165403532627,0.7907877109927443,0.5732754866510278,0.9948854550488657
503,28.626,28.44,0.21,0.04721113868221451,0.9992337172037874,0.15974815551285784,0.7923056993705545,0.5715810652966804,0.9955685376911441
504,28.731,28.5,0.24,0.04830375503486901,0.9989943382130383,0.15984855893026545,0.793854533362423,0.5697655533008944,0.9962061327411175
505,28.752,28.55,0.21,0.04946499942776344,0.9987205672087972,0.15997404495543818,0.7954341079759546,0.5678288121181705,0.9967972818350783
506,28.813,28.61,0.17,0.0506958237844109,0.998411796691777,0.16012581387038186,0.7970442912492728,0.5657708135294713,0.9973410638700075
507,28.854,28.66,0.28,0.05199715136225863,0.9980674331611964,0.1603050849355529,0.7986849243393046,0.563591641570123,0.9978365961998825
508,28.917,28.72,0.22,0.05336987595998088,0.9976868978771231,0.16051309572560118,0.800355821628898,0.5612914943688797,0.9982830358046446
509,28.979,28.77,0.14,0.054814861149871254,0.9972696276090693,0.16075110143685334,0.8020567708522071,0.5588706858953237,0.9986795804296399
510,29.019,28.83,0.29,0.056332939536329354,0.9968150753695728,0.1610203741669583,0.8037875332376431,0.5563296476128489,0.999025469693284
511,29.161,28.88,0.22,0.057924912041407324,0.9963227111314029,0.16132220216717316,0.8055478436675537,0.5536689300345172,0.9993199861606756
512,29.182,28.94,0.13,0.059591547218233815,0.9957920225270558,0.16165788906779444,0.8073374108536402,0.5508892041790827,0.999562456380936
513,29.202,28.99,0.21,0.06133358059288409,0.995222515529281,0.16202875307722642,0.8091559175269887,0.5479912629244655,0.9997522518860994
514,29.242,29.05,0.22,0.06315171403497878,0.9946137151114267,0.16243612615516204,0.8110030206414183,0.544976022255955,0.9998887901494434
515,29.304,29.1,0.16,0.06504661515703922,0.9939651658863106,0.1628813531603209,0.812878351588651,0.54184452240633,0.9999715355012325
516,29.365,29.16,0.14,0.06701891674242695,0.9932764327223127,0.16336579097309978,0.8147815164237749,0.5385979288849472,1.0
517,29.467,29.21,0.22,0.0690692162016021,0.9925471013354705,0.16389080759336663,0.8167120960996659,0.535237533392768,0.9999737442576351
518,29.488,29.27,0.17,0.07119807505646131,0.9917767788564639,0.16445778121355073,0.8186696467092869,0.5317647546202431,0.9998923782167229
519,29.529,29.32,0.1,0.07340601845260677,0.9909650943715,0.1650680992671426,0.8206536997350554,0.528181138924906,0.999755561878809
520,29.591,29.38,0.24,0.0756935346994959,0.9901116994362805,0.16572315745267968,0.8226637623048079,0.524488360885475,0.9995630059825256
521,29.652,29.43,0.19,0.07806107483849216,0.9892162685624104,0.1664243587332768,0.8246993174542112,0.5206882237292328,0.9993144726307087
522,29.714,29.49,0.1,0.08050905223887829,0.988278499675752,0.1671731123117544,0.8267598243957232,0.516782659629434,0.9990097758658174
523,29.734,29.54,0.24,0.08303784222187513,0.9872981145463857,0.16797083258140533,0.8288447187943773,0.5127737298695179,0.998648782193087
524,29.837,29.6,0.22,0.0856477817126474,0.9862748591899653,0.16881893805243933,0.8309534130507567,0.5086636248709894,0.9982314110509152
525,29.857,29.65,0.16,0.08833916892013356,0.9852085042404477,0.1697188502541293,0.8330852965915354,0.5044546640819124,0.9977576352280392
526,29.917,29.71,0.2,0.09111226304428659,0.9840988452944934,0.1706719926125993,0.8352397361680984,0.5001492957230638,0.9972274812270913
527,29.959,29.76,0.26,0.0939672840100133,0.9829457032281814,0.17167978930408975,0.8374160761639423,0.4957500963889741,0.9966410295740666
528,30.023,29.82,0.24,0.09690441222683163,0.981748924486845,0.17274366408348898,0.839613638911655,0.4912597705012627,0.9959984150731456
529,30.083,29.87,0.18,0.09992378837311007,0.9805083813488272,0.1738650390879324,0.841831725020281,0.4866811496118308,0.9952998270062985
530,30.124,29.93,0.31,0.10302551320375652,0.979223972163831,0.1750453336153253,0.8440696137138721,0.48201719155369205,0.9945455092770724
531,30.207,29.98,0.25,0.10620964738038592,0.9778956215662753,0.1762859628777671,0.8463265631819556,0.47727097943747016,0.9937357604979116
532,30.227,30.04,0.16,0.109476211323247,0.976523280663755,0.17758833673002278,0.8486018109425097,0.4724457204918223,0.992870934020321
533,30.288,30.09,0.32,0.11282518508444372,0.975106927200388,0.17895385837334704,0.8508945742179029,0.46754474474625723,0.9919514379071763
534,30.371,30.15,0.27,0.11625650824220155,0.9736465656946053,0.18038392303511833,0.8532040503241266,0.4625715035550042,0.990977734846476
535,30.411,30.2,0.19,0.11977007981607068,0.9721422275507697,0.18187991662486674,0.8555294170735323,0.45752956796074434,0.9899503420059028
536,30.453,30.26,0.24,0.12336575820301754,0.9705939711440229,0.18344321436735872,0.8578698331912327,0.45242262689718854,0.9888698308275723
537,30.574,30.31,0.25,0.12704336113433556,0.9690018818777619,0.18507517941347917,0.8602244387452462,0.44725448522969014,0.9877368267622928
538,30.595,30.37,0.2,0.1308026656532153,0.9673660722131187,0.18677716142976322,0.8625923555902213,0.44202906163320504,0.9865520089426171
539,30.637,30.42,0.17,0.13464340811260248,0.9656866816698106,0.18855049516750635,0.8649726878242908,0.4367503863069366,0.9853161097939913
540,30.698,30.48,0.27,0.13856528419267825,0.963963876797859,0.19039649901240244,0.8673645222584024,0.43142259852502224,0.9840299145833769
541,30.759,30.53,0.22,0.1425679489370322,0.9621978511197271,0.19231647351567469,0.8697669288972711,0.42604994402264845,0.9826942609048148
542,30.779,30.59,0.15,0.14665101680644962,0.9603888250423817,0.19431169990768837,0.8721789614309117,0.4206367722170164,0.9813100381015458
543,30.841,30.64,0.3,0.15081406174925063,0.958537045738617,0.1963834385950696,0.8745996577355736,0.4151875332626783,0.9798781866244413
544,30.943,30.7,0.25,0.15505661728729056,0.9566427869967412,0.19853292764242642,0.8770280403828389,0.4097067749409293,0.9783996973266365
545,30.963,30.75,0.15,0.15937817661696624,0.9547063490375259,0.20076138123987863,0.8794631171556063,0.40419913938313434,0.9768756106943983
546,31.006,30.81,0.27,0.16377819272481733,0.952728058297219,0.20306998815770705,0.8819038815697648,0.3986693596281065,0.9753070160144033
547,31.066,30.86,0.28,0.16825607851751959,0.9507082671754485,0.2054599101895417,0.8843493134004643,0.3931222560139083,0.9736950504777024
548,31.108,30.92,0.22,0.1728112069662118,0.9486473537469529,0.20793228058560034,0.8867983792119962,0.3875627324046549,0.9720408982207893
549,31.17,30.97,0.23,0.17744291126514403,0.9465457214363575,0.21048820247749075,0.8892500328905097,0.3819957722531084,0.9703457893042975
550,31.232,31.03,0.3,0.1821504850046034,0.9444037986556076,0.21312874729602357,0.8917032161791025,0.376426434500149,0.9686109986299007
551,31.334,31.08,0.25,0.18693318235798295,0.9422220384040066,0.21585495318341485,0.8941568592150908,0.37085984931252675,0.9668378447959809
552,31.355,31.14,0.21,0.1917902182827016,0.9400009178311491,0.21866782340119334,0.8966098810694186,0.36530121366056206,0.9650276888926741
553,31.396,31.19,0.35,0.19672076873446853,0.9377409377633766,0.22156832473505325,0.8990611902882587,0.3597557867377361,0.9631819332369619
554,31.437,31.25,0.3,0.20172397089418515,0.9354426221946688,0.2245573858978521,0.9015096854368245,0.3542288852244049,0.9613020200485218
555,31.498,31.3,0.21,0.2067989234066688,0.9331065177430455,0.22763589593194816,0.9039542556453443,0.34872587839820524,0.9593894300671232
556,31.559,31.36,0.37,0.2119446866304136,0.9307331930736562,0.23080470261209998,0.9063937811571349,0.3432521830941153,0.9574456811124291
557,31.622,31.41,0.35,0.2171602828977779,0.928323238289777,0.23406461085024732,0.9088271338787222,0.3378132585175741,0.9554723265871438
558,31.682,31.47,0.28,0.22244469678524398,0.92587726429298,0.23741638110365249,0.9112531779319473,0.33241460091448566,0.9534709539245544
559,31.723,31.52,0.33,0.22779687539366403,0.9233959021138317,0.24086072778804055,0.9136707702081218,0.32706173810237343,0.9514431829816329
560,31.808,31.58,0.36,0.23321572863867293,0.9208798022145197,0.2443983176975473,0.9160787609244001,0.3217602238674438,0.9493906643788852
561,31.827,31.63,0.33,0.23870012955170125,0.9183296337646991,0.24802976843349492,0.9184759941825026,0.3165156322327847,0.9473150777881436
562,31.889,31.69,0.29,0.2442489145922263,0.9157460838916848,0.2517556468442136,0.9208613085297678,0.31133355160333553,0.9452181301695392
563,31.929,31.74,0.39,0.24986088397203457,0.9131298569060318,0.25557646747827945,0.9232335375223869,0.30621957879366785,0.9431015539589476
564,31.991,31.8,0.35,0.2555348019923372,0.9104816735035094,0.2594926910536787,0.9255915102905095,0.30117931294502914,0.9409671052072152
565,32.052,31.85,0.26,0.2612693973945647,0.9078022699444749,0.2635047229455113,0.9279340521047408,0.2962183493384756,0.9388165616724841
566,32.112,31.91,0.41,0.26706336372556283,0.9050923972117344,0.2676129116948839,0.930259984943407,0.2913422731113133,0.9366517208668951
567,32.173,31.96,0.35,0.27291535971777015,0.9023528201480716,0.271817547541638,0.9325681280598592,0.2865566528844643,0.9344743980588939
568,32.236,32.02,0.25,0.27882400968485704,0.8995843165747051,0.27611886098353233,0.9348572985489901,0.281867034308746,0.9322864242323328
569,32.277,32.07,0.34,0.28478790393330583,0.8967876763920014,0.28051702136447415,0.9371263119121073,0.2772789335384164,0.9300896440036103
570,32.338,32.13,0.33,0.29080559919054605,0.8939637006637268,0.28501213549443505,0.9393739826192598,0.2727978306406906,0.9278859134981694
571,32.421,32.18,0.27,0.29687561905047993,0.8911132006859528,0.28960424630377685,0.9415991246679456,0.2684291629502016,0.9256770981878549
572,32.44,32.24,0.24,0.3029964544374476,0.8882369970416375,0.2942933315347626,0.9438005521370414,0.2641783183775875,0.9234650706908903
573,32.5,32.29,0.31,0.30916656408985715,0.8853359186419136,0.29907930247300973,0.9459770797348586,0.260050628681619,0.9212517085364709
574,32.541,32.35,0.27,0.3153843750648449,0.8824108017551847,0.303962002721617,0.9481275233403466,0.2560513627145032,0.9190388918962206
575,32.602,32.4,0.19,0.3216482832654158,0.879462489025255,0.30894120702065075,0.9502507005366199,0.2521857196501795,0.9168285012850482
576,32.662,32.46,0.31,0.327956653991524,0.8764918284799473,0.3140166201145883,0.9523454311361734,0.2484588222056244,0.9146224152342001
577,32.724,32.51,0.26,0.3343078225164989,0.8734996725319265,0.3191878756702209,0.9544105376972916,0.24487570986541896,0.912422507939518
578,32.785,32.57,0.15,0.3407000946901097,0.8704868769736681,0.32445453524741585,0.9564448460311473,0.24144133212007104,0.9102306468880803
579,32.826,32.62,0.29,0.3471317475694114,0.8674542999686767,0.329816087325019,0.9584471856990215,0.2381605417288234,0.9080486904665823
580,32.888,32.68,0.26,0.3536010300783837,0.8644028010411504,0.3352719463840666,0.9604163904989431,0.2350380880179298,0.9058784855549481
581,32.929,32.73,0.21,0.36010616369731047,0.8613332400663268,0.3408214520503961,0.9623512989408997,0.2320786102256137,0.9037218651088728
582,32.971,32.79,0.25,0.36664534318285563,0.8582464762638798,0.3464638682986614,0.964250754709705,0.2292866309052039,0.9015806457351614
583,33.051,32.84,0.3,0.37321673731990673,0.8551433671968846,0.35219838271973336,0.9661136071145983,0.22666654939831848,0.8994566252638292
584,33.176,32.9,0.27,0.37981848970643295,0.8520247677789073,0.3580241058535214,0.9679387115245194,0.2242226353903934,0.8973515803209752
585,33.197,32.95,0.22,0.3864487195728003,0.8488915292917824,0.36394007058932626,0.9697249297878464,0.22195902256127953,0.8952672639065383
586,33.218,33.01,0.35,0.3931055226371363,0.8457444984166571,0.36994523163589327,0.971471130635311,0.21987970234413404,0.893205402981148
587,33.259,33.06,0.28,0.3997869719984241,0.8425845162808993,0.3760384650633964,0.973176190064787,0.21798851780635936,0.8911676960664279
588,33.302,33.12,0.18,0.4064911190689941,0.8394124175234167,0.3822185679196493,0.9748389917066632,0.21628915766684015,0.8891558108633344
589,33.383,33.17,0.31,0.4132159945479242,0.8362290293808948,0.38848425792287355,0.9764584271686425,0.21478515046417473,0.887171381893403
590,33.446,33.23,0.23,0.41995960943655797,0.8330351707973537,0.39483417323335424,0.978033396359022,0.21347985889097534,0.8852160081680825
591,33.528,33.28,0.09,0.42671995609691105,0.8298316515593371,0.4012668723062728,0.9795628077877978,0.21237647430956805,0.8832912508916533
592,33.548,33.34,0.09,0.43349500935319013,0.8266192714589808,0.4077808338278953,0.981045578845354,0.21147801146457898,0.8813986312034776
593,33.589,33.39,0.04,0.4402827276360759,0.8233988194870664,0.41437445673719375,0.9824806360588907,0.21078730340791316,0.8795396279654574
594,33.652,33.45,-0.07,0.44708105416888644,0.8201710730578202,0.42104606033495606,0.9838669153270262,0.21030699665138677,0.8777156756005969
595,33.692,33.5,-0.17,0.45388791819426555,0.8169367972667952,0.427793884482456,0.9852033621332867,0.21003954656174306,0.8759281619884811
596,33.774,33.56,-0.15,0.46070123623965004,0.8136967441827498,0.43461608989183387,0.9864889317395937,0.20998721301207723,0.874178426423177
597,33.816,33.61,-0.27,0.4675189134195047,0.8104516521739784,0.44151075851047417,0.9877225893612945,0.21015205630285938,0.8724677576385951
598,33.879,33.67,-0.4,0.47433884477214733,0.8072022452690824,0.4484758940018109,0.9889033103257002,0.21053593336478557,0.8707973919058256
599,33.941,33.72,-0.35,0.4811589166289247,0.8039492325517809,0.4555094223250652,0.9900300802165115,0.2111404942546643,0.8691685112065074
600,33.981,33.78,-0.47,0.48797700801352406,0.8006933075890503,0.4626091924164011,0.991101895006819,0.2119671789544806,0.867582241485892
601,34.042,33.83,-0.61,0.49479099206927,0.7974351478916992,0.4697729769738828,0.992117761183541,0.21301721448264177,0.8660396509890601
602,34.103,33.89,-0.55,0.5015987375122877,0.7941754144065101,0.4769984733484168,0.9930766958663596,0.21429161232522617,0.8645417486836646
603,34.123,33.94,-0.59,0.5083981101084045,0.7909147510392072,0.48428330454258794,0.9939777269243796,0.21579116619384744,0.8630894827725771
604,34.248,34.0,-0.69,0.5151869741715737,0.787653784207739,0.49162502031898436,0.9948198930938699,0.2175164501155086,0.8616837392998303
605,34.269,34.05,-0.7,0.5219631940814456,0.784393122425671,0.499021098419179,0.9956022441005614,0.21946781685864544,0.8603253408531838
606,34.353,34.11,-0.67,0.5287246358175551,0.7811333559158086,0.5064689458940784,0.9963238407900841,0.2216453966985317,0.8590150453664068
607,34.372,34.16,-0.74,0.535469168507505,0.7778750562543403,0.5139659005459102,0.9969837552701418,0.2240490965242854,0.8577535450240384
608,34.412,34.22,-0.8,0.542194665986552,0.7746187760459032,0.5215092324817188,0.9975810710680201,0.22667859928880513,0.8565414652710556
609,34.473,34.27,-0.7,0.5488990083660953,0.7713650486301095,0.5290961457778393,0.9981148833070731,0.22953336380211498,0.8553793639295347
610,34.535,34.33,-0.76,0.5555800836087189,0.7681143878201835,0.5367237802544788,0.9985842989058429,0.23261262486780052,0.8542677304240192
611,34.616,34.38,-0.86,0.5622357891076175,0.7648672876744095,0.5443892133592584,0.9989884368033304,0.2359153937614638,0.853206985116939
612,34.637,34.44,-0.72,0.5688640332683905,0.7616242223010598,0.552089462158318,0.9993264282137632,0.23944045904943226,0.8521974787550628
613,34.699,34.49,-0.76,0.5754627370913457,0.7583856456973538,0.5598214854334068,0.9995974169139182,0.24318638774531826,0.8512394920275952
614,34.74,34.55,-0.83,0.5820298357525544,0.7551519916228205,0.567582185883208,0.9998005595657398,0.24715152680138058,0.8503332352362339
615,34.8,34.6,-0.79,0.5885632801819547,0.7519236735073145,0.5753684124269585,0.9999350260766956,0.25133400493104296,0.8494788480771908
616,34.841,34.66,-0.76,0.5950610386367711,0.7487010843938361,0.5831769626082183,1.0,0.25573173475839506,0.8486763995348083
617,34.903,34.71,-0.79,0.6015210982684592,0.7454845969161116,0.5910045850964681,0.9999946789763394,0.2603424152899752,0.8479258878860072
618,34.985,34.77,-0.83,0.6079414666812644,0.7422745633106518,0.598847982284017,0.9999182752181606,0.2651635347035621,0.8472272408144562
619,35.004,34.82,-0.72,0.6143201734803461,0.7390713154628076,0.6067038129754669,0.99977001603707,0.27019237344816455,0.8465803156330349
620,35.067,34.88,-0.77,0.6206552718073689,0.7358751649860692,0.614568695166785,0.9995491444144211,0.27542600764888947,0.8459848996128342
621,35.128,34.93,-0.83,0.6269448398614798,0.7326864033336308,0.6224392089108554,0.9992549196147356,0.28086131280987287,0.8454407104166698
622,35.188,34.99,-0.69,0.6331869824037083,0.7295053019410769,0.6303118992662223,0.9988866178413099,0.28649496780799916,0.8449473966348381
623,35.25,35.04,-0.73,0.6393798322429671,0.7263321123989792,0.6381832793255967,0.9984435329331004,0.2923234591697169,0.8445045384206279
624,35.292,35.1,-0.81,0.6455215517020101,0.7231670666541352,0.646049833320573,0.9979249771017397,0.2983430856228441,0.8441116482229352
625,35.353,35.15,-0.73,0.6516103340618631,0.7200103772381622,0.6539080197988799,0.9973302817073193,0.30454996291486436,0.8437681716131986
626,35.416,35.21,-0.72,0.6576444049834014,0.716862237522103,0.6617542748703827,0.9966587980712996,0.3109400288888276,0.8434734882037489
627,35.477,35.26,-0.76,0.6636220239048521,0.7137228219956089,0.6695850155179771,0.9959098983245291,0.3175090488075058,0.8432269126546162
628,35.517,35.32,-0.77,0.6695414854140188,0.7105922865693193,0.6773966429693875,0.9950829762879831,0.3242526209159275,0.8430276957658727
629,35.558,35.37,-0.7,0.675401120593952,0.7074707688992194,0.6851855461257157,0.9941774483835435,0.3311661822319286,0.8428750256526051
630,35.639,35.43,-0.74,0.6811992983406778,0.7043583887318978,0.6929481050424068,0.9931927545718445,0.3382450145538832,0.8427680289996319
631,35.722,35.48,-0.78,0.6869344266514229,0.7012552482697104,0.7006806944580742,0.9921283593140053,0.3454842506742703,0.8427057723931312
632,35.743,35.54,-0.63,0.6926049538815685,0.6981614325549801,0.7083796873663184,0.990983752554009,0.35287888078722557,0.8426872637263938
633,35.804,35.59,-0.65,0.6982093699683823,0.6950770098724688,0.7160414586253427,0.9897584507185211,0.36042375907776913,0.8427114536768987
634,35.845,35.65,-0.72,0.7037462076194778,0.6920020321694582,0.7236623885998692,0.9884519977309874,0.3681136104800043,0.8427772372518523
635,35.906,35.7,-0.57,0.7092140434639721,0.688936535492875,0.7312388668296248,0.9870639660369054,0.37594303759131975,0.8428834553992492
636,35.968,35.76,-0.55,0.7146114991644521,0.6858805404429484,0.7387672957185383,0.9855939576372114,0.3839065277294608,0.8430288966814246
637,36.01,35.81,-0.58,0.7199372424880408,0.6828340526429368,0.7462440942387293,0.984041605126713,0.3919984601192004,0.8432122990080535
638,36.134,35.87,-0.52,0.7251899883350228,0.6797970632245786,0.7536657016433008,0.9824065727345682,0.40021311319525615,0.8434323514255883
639,36.155,35.92,-0.43,0.7303684997236409,0.6767695493290653,0.7610285811818869,0.9806885573639337,0.40854467200812683,0.8436876959600794
640,36.176,35.98,-0.44,0.7354715887298123,0.6737514746233578,0.7683292238128955,0.9788872896279006,0.41698723571959645,0.8439769295102553
641,36.238,36.03,-0.48,0.7404981173806253,0.6707427898316747,0.7755641519063929,0.9770025348788222,0.4255348251747268,0.8442986057876644
642,36.279,36.09,-0.33,0.7454469985005298,0.6677434332820604,0.7827299229315307,0.9750340942282413,0.4341813905372688,0.8446512373006173
643,36.339,36.14,-0.37,0.7503171965091254,0.6647533314680415,0.7898231331223646,0.9729818055547714,0.4429208189755336,0.845033297378564
644,36.401,36.2,-0.44,0.7551077281693978,0.6617723996254355,0.7968404211158604,0.9708455444973704,0.45174694238582197,0.8454432222334882
645,36.463,36.25,-0.25,0.7598176632851458,0.6588005423243851,0.8037784715558205,0.9686252254314877,0.4606535451405279,0.8458794130548616
646,36.525,36.31,-0.26,0.7644461253462691,0.6558376540766101,0.8106340186564441,0.9663208024255622,0.4696343718480477,0.8463402381346707
647,36.545,36.36,-0.29,0.7689922921205568,0.6528836199577562,0.8174038497192287,0.9639322701753491,0.478683135111639,0.8468240350190294
648,36.606,36.42,-0.2,0.7734553961906974,0.6499383162446633,0.8240848085969519,0.9614596649136934,0.48779352327447006,0.8473291126828727
649,36.668,36.47,-0.14,0.7778347254354397,0.6470016110672674,0.8306737990985723,0.9589030652935204,0.4969592081383236,0.8478537537241327
650,36.729,36.53,-0.14,0.7821296234541156,0.6440733650746072,0.8371677883291228,0.9562625932417995,0.5061738526436745,0.8483962165736838
651,36.811,36.58,-0.14,0.7863394899340614,0.6411534321141256,0.8435638099589242,0.9535384147821468,0.5154311184991135,0.8489547377173078
652,36.833,36.64,-0.01,0.7904637809607685,0.6382416599232433,0.8498589674167366,0.9507307408236825,0.524724673748401,0.8495275339258779
653,36.894,36.69,-0.04,0.794502009270863,0.6353378908319701,0.8560504370017754,0.9478398279136839,0.5340482002637951,0.8501128044899064
654,36.935,36.75,-0.1,0.7984537444482566,0.6324419624750756,0.86213547090985,0.9448659789514935,0.5433954011546309,0.8507087334545629
655,36.995,36.8,0.06,0.8023186130639599,0.6295537085121765,0.868111400169135,0.9418095438611304,0.5527600080804641,0.8513134918512265
656,37.076,36.86,0.03,0.806096298760125,0.6266729593539603,0.8739756374812876,0.9386709202200969,0.5621357884583769,0.8519252399215931
657,37.2,36.91,-0.04,0.8097865422788421,0.6237995428927345,0.8797256799637588,0.9354505538419471,0.5715165525542576,0.8525421293303608
658,37.219,36.97,0.07,0.8133891414361041,0.6209332852355368,0.8853591117892194,0.9321489393103221,0.5808961604480333,0.8531623053625568
659,37.239,37.02,0.11,0.8169039510412216,0.6180740114380279,0.8908736067181164,0.9287666204622032,0.5902685288630029,0.8537839091016156
660,37.282,37.08,0.09,0.8203308827619032,0.6152215462372553,0.896266930520517,0.9253041908180409,0.5996276378495363,0.8544050795844295
661,37.342,37.13,0.09,0.8236699049352239,0.6123757147812774,0.9015369432835278,0.9217622939563418,0.6089675373135286,0.8550239559297872
662,37.405,37.19,0.17,0.8269210423247956,0.6095363433536459,0.9066816016007254,0.9181416238303913,0.618282353380218,0.8556386794368237
663,37.425,37.24,0.14,0.8300843758246347,0.6067032600907756,0.9116989606402581,0.9144429250249002,0.6275662945842426,0.8562473956503395
664,37.486,37.3,0.11,0.8331600421104246,0.6038762956902298,0.9165871760885458,0.9106669929504567,0.6368136578770182,0.8568482563901583
665,37.567,37.35,0.28,0.8361482332390637,0.6010552841079679,0.9213445059667925,0.906814673973789,0.6460188344426818,0.8574394217420457
666,37.588,37.41,0.25,0.8390491961975464,0.5982400632425802,0.9259693123177913,0.9028868654819785,0.6551763153140254,0.8580190620080136
667,37.649,37.46,0.19,0.8418632324023311,0.5954304756045473,0.9304600627607489,0.8988845158789155,0.6642806967800554,0.8585853596141365
668,37.711,37.52,0.34,0.8445906971503927,0.5926263689686562,0.9348153319120501,0.8948086245125466,0.6733266855771509,0.8591365109742284
669,37.773,37.57,0.37,0.8472319990231241,0.5898275970078428,0.9390338026700589,0.8906602415317374,0.6823091038562061,0.8596707283078708
670,37.816,37.63,0.33,0.8497875992441538,0.5870340199069476,0.9431142673621874,0.8864404676718405,0.6912228939185509,0.8601862414114095
671,37.939,37.68,0.39,0.8522580109919368,0.5842455049551876,0.9470556287525149,0.8821504539684176,0.7000631227138748,0.8606812993806203
672,37.959,37.74,0.5,0.85464379866776,0.5814619271165211,0.9508569009082227,0.8777914013989635,0.7088249860939088,0.8611541722837429
673,38.0,37.79,0.5,0.8569455771196387,0.5786831695773114,0.9545172099231578,0.8733645604527844,0.7175038128161727,0.8616031527835428
674,38.042,37.85,0.47,0.8591640108225241,0.5759091242708724,0.9580357944969204,0.8688712306294466,0.7260950682926904,0.8620265577070778
675,38.103,37.9,0.64,0.8612998130152966,0.5731396923786801,0.9614120063679832,0.8643127598665791,0.7345943580792322,0.8624227295618481
676,38.165,37.96,0.61,0.8633537447951732,0.5703747848082057,0.9646453105995357,0.8596905438981732,0.7429974311013742,0.8627900379970256
677,38.226,38.01,0.54,0.8653266141703636,0.5676143226474494,0.9677352857170002,0.8550060255447612,0.7513001826143969,0.8631268812085016
678,38.307,38.07,0.71,0.8672192750720176,0.5648582375963485,0.9706816236964694,0.8502606939369991,0.7594986568947675,0.8634316872865683
679,38.327,38.12,0.7,0.8690326263267049,0.5621064723752859,0.9734841298036749,0.8454560836742339,0.7675890496616476,0.8637029155051462
680,38.369,38.18,0.65,0.8707676105908116,0.5593589811110052,0.9761427222834753,0.8405937739196317,0.7755677102275037,0.8639390575516096
681,38.451,38.23,0.71,0.8724252132483232,0.5566157297003893,0.9786574319001669,0.8356753874335282,0.7834311433774941,0.8641386386963983
682,38.491,38.29,0.77,0.8740064612734988,0.5538766961526569,0.9810284013292184,0.8307025895467758,0.7911760109779535,0.864300218901629
683,38.532,38.34,0.74,0.8755124220599617,0.5511418709104501,0.9832558844013437,0.8256770870758042,0.7987991333148808,0.8644223938679029
684,38.593,38.4,0.71,0.8769442022177013,0.5484112571501265,0.9853402452001189,0.8206006271809932,0.8062974901638564,0.8645037960185317
685,38.695,38.45,0.85,0.8783029463394053,0.5456848710614866,0.9872819570146235,0.8154749961698717,0.8136682215933273,0.8645430954204494
686,38.715,38.51,0.82,0.8795898357375009,0.5429627421071065,0.9890816011488544,0.8103020182465657,0.8209086285037103,0.8645390006411131
687,38.756,38.56,0.75,0.8808060871532705,0.540244913261407,0.990739865589975,0.8050835542088131,0.8280161729052733,0.8644902595407733
688,38.817,38.62,0.93,0.8819529514394998,0.5375314412295936,0.9922575435377722,0.7998215000938346,0.8349884779382919,0.8643956599995517
689,38.877,38.67,0.9,0.8830317122182678,0.5348223966465999,0.9936355317980352,0.7945177857743778,0.8418233276395707,0.8642540305788231
690,38.919,38.73,0.83,0.8840436845156795,0.5321178642561574,0.9948748290429618,0.7891743735063109,0.8485186664600216,0.8640642411164828
691,39.043,38.78,0.9,0.884990213375533,0.5294179430701258,0.9959765339420695,0.7837932564292472,0.8550725985386302,0.8638252032557567
692,39.064,38.84,0.93,0.885872672454091,0.5267227465081645,0.9969418431674841,0.7783764570217435,0.8614833867387922,0.8635358709072267
693,39.105,38.89,0.89,0.8866924625982971,0.5240324025176324,0.9977720492778812,0.7729260255124976,0.8677494514535532,0.863195240643808
694,39.147,38.95,0.85,0.887451010409883,0.5213470536733984,0.998468538485707,0.7674440382488497,0.8738693691867091,0.8628023520285447
695,39.208,39.0,0.94,0.8881497667978626,0.51866685725711,0.9990327883125767,0.7619325960238618,0.8798418709171311,0.8623562878752316
696,39.269,39.06,0.87,0.8887902055219047,0.5159919853153309,0.9994663651379954,0.7563938223632032,0.8856658402540429,0.8618561744419972
697,39.331,39.11,0.79,0.889373821728988,0.5133226246958352,0.9997709216467793,0.7508298617729536,0.8913403113912641,0.8613011815581446
698,39.415,39.17,0.94,0.8899021304855874,0.5106589770612696,0.9999481941807024,0.7452428779493222,0.896864466868635,0.8606905226847343
699,39.435,39.22,0.88,0.8903766653074251,0.5080012588793357,1.0,0.7396350519511737,0.902237635149026,0.8600234549095837
700,39.475,39.28,0.79,0.890798976688617,0.5053497013886287,0.9999282344604368,0.7340085803361928,0.9074592880194566,0.8592992788775716
701,39.536,39.33,0.87,0.8911706306319014,0.502704550539275,0.9997348681117084,0.728365673261567,0.912529037825024,0.8585173386573496
702,39.599,39.39,0.88,0.8914932071816205,0.5000660669074781,0.9994219437230699,0.7227085525501596,0.9174466345445442,0.8576770215457411
703,39.661,39.44,0.81,0.8917682989611968,0.49743452558298895,0.9989915732422437,0.717039449723198,0.9222119627169579,0.8567777578113284
704,39.784,39.5,0.76,0.8919975097169479,0.49481021602849634,0.9984459346937912,0.711360604000673,0.9268250382276598,0.8558190203789778
705,39.805,39.55,0.85,0.8921824528701662,0.492193441909992,0.9977872690232015,0.7056742602709462,0.9312860049640086,0.8548003244572947
706,39.825,39.61,0.79,0.892324750079479,0.4895845208971746,0.9970178768930514,0.6999826670312721,0.9355951313493472,0.8537212271112239
707,39.866,39.66,0.71,0.8924260298155522,0.48698378443294543,0.9961401154376859,0.6942880743010615,0.9397528067648125,0.8525813267823099
708,39.907,39.72,0.84,0.8924879259502044,0.48439157747111083,0.9951563949829334,0.6885927315098263,0.9437595378681551,0.8513802627594008
709,39.968,39.77,0.76,0.8925120763619312,0.4818082581815037,0.9940691757373958,0.6828988853618682,0.9476159448187547,0.8501177146027777
710,40.01,39.83,0.66,0.8925001215597135,0.47923419762188735,0.9928809644618561,0.6772087776798833,0.9513227574179866,0.8487934015248481
711,40.071,39.88,0.77,0.8924537033267881,0.47666977937619864,0.9915943111232838,0.6715246432298416,0.9548808111740673,0.8474070817306631
712,40.132,39.94,0.78,0.8923744633858326,0.47411539915886314,0.9902118055398389,0.665848707529699,0.9582910433004669,0.8459585517216206
713,40.193,39.99,0.72,0.8922640420868002,0.4715714643850784,0.9887360740231766,0.6601831846447042,0.96155448865687,0.8444476455658203
714,40.256,40.05,0.72,0.8921240771184492,0.4690383937072048,0.9871697760241728,0.6545302749724159,0.9646722756416132,0.8428742341386273
715,40.296,40.1,0.78,0.8919562022445163,0.46651661651768916,0.9855156007880049,0.6488921630210109,0.9676456220445979,0.8412382243369672
716,40.358,40.16,0.71,0.8917620460654738,0.4640065724191561,0.9837762640243916,0.6432710151848635,0.9704758308697932,0.8395395582708112
717,40.42,40.21,0.58,0.8915432308068552,0.4615087106624889,0.9819545045986603,0.6376689775217435,0.9731642861364892,0.8377782124352938
718,40.502,40.27,0.69,0.8913013711351654,0.4590234895539357,0.9800530812491849,0.6320881735363856,0.9757124486684035,0.8359541968669584
719,40.523,40.32,0.62,0.8910380730024159,0.4565513758324471,0.9780747693365666,0.6265307019755256,0.9781218518795385,0.8340675542876506
720,40.564,40.38,0.51,0.890754932520296,0.45409284401854294,0.9760223576297974,0.6209986346396619,0.9803940975653024,0.832118359239611
721,40.625,40.43,0.63,0.8904535348649117,0.4516483757360768,0.9738986451344636,0.6154940142167955,0.9825308517069166,0.8301067172152751
722,40.685,40.49,0.6,0.8901354532128547,0.4492184590083385,0.9717064379678179,0.6100188521432462,0.9845338402966813,0.8280327637852092
723,40.726,40.54,0.53,0.8898022477090693,0.4468035875301155,0.9694485462852968,0.6045751264964069,0.986404845191273,0.8258966637275292
724,40.788,40.6,0.55,0.8894554644665958,0.44440425991771315,0.9671277812626832,0.5991647799241657,0.9881456999999182,0.8236986101620842
725,40.889,40.65,0.6,0.8890966345978122,0.4420209789393745,0.9647469521377159,0.5937897176156622,0.9897582860140753,0.8214388236925176
726,40.91,40.71,0.55,0.8887272732764083,0.4396542507288323,0.9623088633145719,0.5884518053178804,0.9912445281850428,0.819117551559124
727,40.95,40.76,0.5,0.8883488788290149,0.4373045839849253,0.9598163115342879,0.5831528674024249,0.9926063911557026,0.816735066805245
728,41.012,40.82,0.62,0.887962931855237,0.4349724891603736,0.9572720831138347,0.5778946849867616,0.9938458753524271,0.8142916674597948
729,41.095,40.87,0.56,0.8875708943748045,0.4326584776428953,0.954678951256275,0.5726789941141539,0.9949650131430364,0.811787675738339
730,41.136,40.93,0.45,0.887174209000618,0.43036306093180454,0.9520396734342071,0.5675074839964118,0.995965865066543,0.8092234372650202
731,41.26,40.98,0.59,0.8867742981365743,0.4280867498131502,0.9493569888485126,0.5623817953233995,0.9968505161402677,0.8065993203174857
732,41.28,41.04,0.55,0.886372563199179,0.4258300535363147,0.946633615964293,0.557303518643031,0.9976210722497549,0.8039157150968463
733,41.301,41.09,0.47,0.8859703838620426,0.4235934789948939,0.9438722501257589,0.5522741928152222,0.9982796566266915,0.8011730330246214
734,41.341,41.15,0.49,0.8855691173223981,0.42137752991467986,0.9410755612516726,0.5472953035431177,0.9988284064197841,0.7983717060685348
735,41.424,41.2,0.52,0.885170097588775,0.41918270605159613,0.9382461916127608,0.5423682819847571,0.9992694693633594,0.7955121860988427
736,41.444,41.26,0.47,0.8847746347889294,0.4170095024023605,0.9353867536923577,0.5374945034480423,0.999605000548181,0.7925949442766613
737,41.505,41.31,0.41,0.8843840144970282,0.41485840843057115,0.9324998281313218,0.5326752861715309,0.9998371592986353,0.7896204704755841
738,41.589,41.37,0.52,0.883999497078922,0.4127299073108768,0.9295879617579724,0.5279118901933324,0.9999681061601042,0.7865892727376949
739,41.609,41.42,0.46,0.883622317054177,0.41062447519383966,0.9266536657034609,0.5232055163102005,1.0,0.7835018767648709
740,41.671,41.48,0.37,0.8832536824733904,0.4085425804939907,0.9236994136026474,0.518557305128716,0.9999349952255941,0.7803588254460652
741,41.713,41.53,0.51,0.8828947743092674,0.4064846832034256,0.9207276398802535,0.5139683362102736,0.9997752391214398,0.7771606784210607
742,41.774,41.59,0.47,0.8825467458600091,0.40445123423308516,0.9177407381218554,0.5094396273113799,0.9995228693088654,0.7739080116810039
743,41.835,41.64,0.4,0.8822107221637198,0.4024426747836274,0.9147410595291368,0.5049721337205642,0.9991800113297132,0.770601417205884
744,41.896,41.7,0.45,0.881887799422772,0.400459435747608,0.9117309114587084,0.500566747693088,0.9987487763562385,0.767241502638995
745,41.979,41.75,0.49,0.8815790444373008,0.3985019371444528,0.9087125560437151,0.4962242979845042,0.9982312590288908,0.7638288909981836
746,41.999,41.81,0.45,0.8812854940472522,0.39657058758938657,0.9056882088974494,0.49194554948380587,0.9976295354235241,0.7603642204234644
747,42.06,41.86,0.39,0.8810081545826043,0.39466578379721784,0.9026600378981527,0.4877312029465698,0.9969456611493476,0.7568481439603635
748,42.122,41.92,0.49,0.8807480013215366,0.3927879101216945,0.899630162054116,0.48358189482825714,0.9961816695787588,0.753281329378132
749,42.182,41.97,0.43,0.8805059779564242,0.3909373381309791,0.8966006504481302,0.4794981972176014,0.9953395702100031,0.7496644590217145
750,42.244,42.03,0.34,0.8802829960675915,0.3891144262196232,0.893573521260266,0.47548061786975554,0.99442134716336,0.745998229696129
751,42.346,42.08,0.48,0.8800799346047316,0.3873195192573223,0.8905507408678232,0.471529600338661,0.9934289578112482,0.7422833525816906
752,42.366,42.14,0.44,0.8798976393758022,0.3855529482746758,0.887534223021135,0.4676455242079008,0.9923643315423315,0.7385205531782933
753,42.408,42.19,0.35,0.8797369225431241,0.38381503018615853,0.8845258280937592,0.46382870541909377,0.9912293686593513,0.7347105712767966
754,42.429,42.25,0.42,0.8795985621263483,0.38210606755048543,0.881527362405451,0.4600793966967071,0.9900259394101145,0.7308541609554298
755,42.533,42.3,0.44,0.8794833015120651,0.380426348368392,0.8785405776162883,0.45639778806793363,0.9887558831508092,0.726952090599
756,42.576,42.36,0.4,0.8793918489700461,0.37877614591746767,0.8755671701903718,0.4527840074759014,0.987421007640537,0.7230051429386315
757,42.617,42.41,0.33,0.8793248771763887,0.37715571862324815,0.8726087809276118,0.44923812148408954,0.9860230884656392,0.7190141151097962
758,42.698,42.47,0.43,0.8792830227441079,0.3755653099654404,0.8696669945621658,0.445760136069522,0.984563868592111,0.7149798187264225
759,42.719,42.52,0.38,0.8792668857619694,0.3740051484178727,0.8667433394261673,0.44234999750201975,0.9830450580441382,0.7109030799688765
760,42.76,42.58,0.31,0.8792770293425705,0.37247544742054606,0.8638392871774617,0.43900759330651806,0.9814683337064356,0.7067847396836671
761,42.822,42.63,0.43,0.8793139791808215,0.37097640538200943,0.8609562525900794,0.43573275330524525,0.9798353392476833,0.7026256534927665
762,42.883,42.69,0.37,0.8793782231240632,0.36950820571016135,0.8580955934061807,0.4325252507363729,0.9781476851620272,0.6984266919104558
763,42.945,42.74,0.28,0.8794702107550643,0.3680710168695174,0.8552586102481619,0.4293848034455713,0.9764069489252855,0.6941887404655922
764,43.006,42.8,0.36,0.8795903529890515,0.3666649924630416,0.8524465465895102,0.4263110751468226,0.9746146752621995,0.6899126998271726
765,43.067,42.85,0.38,0.8797390216857769,0.36529027133669717,0.8496605887828872,0.42330367674876807,0.9727723765207523,0.6855994859310436
766,43.128,42.91,0.34,0.8799165492774293,0.36394697770487494,0.8469018661437974,0.4203621677427027,0.9708815331491724,0.6812500301056321
767,43.169,42.96,0.33,0.8801232284130285,0.3626352212948453,0.8441714510880687,0.41748605764820096,0.9689435942708355,0.6768652791946457
768,43.21,43.02,0.43,0.8803593116198615,0.361355097508367,0.8414703593212426,0.4146748075122849,0.9669599783520041,0.6724461956747085
769,43.271,43.07,0.39,0.8806250109826045,0.36010668759847553,0.8387995500779803,0.4119278314578983,0.9649320739571681,0.6679937577658926
770,43.333,43.13,0.34,0.8809204978409654,0.35889005885931236,0.8361599264096946,0.40924449827721443,0.9628612405866283,0.6635089595331521
771,43.373,43.18,0.49,0.881245902506931,0.357705264826712,0.8335523355187688,0.40662413306511824,0.9607488095908742,0.6589928109767463
772,43.457,43.24,0.44,0.881601314002953,0.3565523454871171,0.8309775691378744,0.40406601888808413,0.9585960851562932,0.6544463381097966
773,43.477,43.29,0.36,0.8819867798226397,0.3554313274922656,0.8284363639530206,0.4015693984836385,0.9564043453567266,0.6498705830211959
774,43.539,43.35,0.45,0.882402305715692,0.35434222437706436,0.8259294020690271,0.3991334759856471,0.9541748432654004,0.6452666039221564
775,43.601,43.4,0.46,0.8828478554989497,0.3532850367780944,0.8234573115161335,0.39675741867072706,0.9519088081217454,0.6406354751747088
776,43.643,43.46,0.39,0.8833233508954524,0.3522597526502837,0.8210206667965055,0.3944403587211065,0.9496074465475084,0.6359782873005387
777,43.724,43.51,0.37,0.8838286714033488,0.35126634747951124,0.8186199894693365,0.39218139499940446,0.9472719438063765,0.6312961469686206
778,43.848,43.57,0.45,0.8843636541963311,0.3503047844892181,0.8162557487731515,0.38997959483106576,0.944903465101148,0.6265901769601356
779,43.869,43.62,0.4,0.884928094057066,0.3493750148393564,0.8139283622838003,0.387833995790397,0.9425031569022777,0.6218615161091773
780,43.89,43.68,0.36,0.8855217433448831,0.3484769778162219,0.8116381966065219,0.38574360748630926,0.940072148301333,0.617111319217813
781,43.931,43.73,0.53,0.8861443119988083,0.347610601011927,0.8093855681003562,0.38370741334406505,0.9376115523826267,0.6123407569441366
782,43.992,43.79,0.49,0.8867954675769663,0.3467758004924296,0.8071707436331166,0.38172437237950313,0.9351224676061176,0.6075510156619746
783,44.055,43.84,0.43,0.8874748353334435,0.34597248095312844,0.8049939413652009,0.3797934209623262,0.9326059791946041,0.6027432972909026
784,44.096,43.9,0.56,0.8881819983338517,0.34520053586111143,0.802855331560613,0.3779134745651411,0.9300631605183488,0.5979188190952213
785,44.178,43.95,0.58,0.8889164976110276,0.3444598475831483,0.8007550374237707,0.3760834294949611,0.9274950744704797,0.5930788134505403
786,44.198,44.01,0.54,0.8896778323624743,0.3437502874984672,0.7986931359608896,0.3743021646038095,0.9249027748267538,0.5882245275767086
787,44.259,44.06,0.55,0.8904654601912565,0.34307171609536397,0.7966696588648899,0.3725685429750487,0.9222873075834984,0.5833572232359824
788,44.321,44.12,0.63,0.8912787973921065,0.34242398305074134,0.7946845934228911,0.370881413582143,0.9196497122678674,0.5784781763954342
789,44.362,44.17,0.6,0.8921172192844931,0.34180692729168666,0.7927378834454657,0.3692396129166114,0.9169910232148283,0.5735886768527227
790,44.444,44.23,0.55,0.8929800605943499,0.3412203770382561,0.7908294302169133,0.36764196658199905,0.9143122708055245,0.5686900278245194
791,44.484,44.28,0.7,0.8938666158859928,0.340664149826832,0.788959093465828,0.3660872908508888,0.9116144826618262,0.5637835454970838
792,44.546,44.34,0.66,0.8947761400455376,0.3401380525136666,0.7871266923552085,0.36457439418220605,0.9088986847920908,0.5588705585386194
793,44.586,44.39,0.58,0.8957078488168427,0.339641881258449,0.7853320064913206,0.3631020786962811,0.9061659026833461,0.5539524075731427
794,44.649,44.45,0.72,0.8966609193907444,0.3391754214878948,0.7835747769504772,0.3616691416053589,0.9034171623353654,0.5490304446156671
795,44.711,44.5,0.73,0.8976344910481534,0.338738447839406,0.781854707322897,0.3602743765974177,0.9006534912323757,0.5441060324685686
796,44.752,44.56,0.69,0.898627665857505,0.33833072408482184,0.7801714647728673,0.35891657517122877,0.8978759192484234,0.5391805440791368
797,44.815,44.61,0.72,0.8996395094270373,0.3379520030342985,0.77852468111449,0.3575945279206761,0.8950854794827146,0.5342553618585005
798,44.897,44.67,0.8,0.9006690517124197,0.3376020264203743,0.776913953902374,0.35630702576645906,0.8922832090216485,0.5293318769622412
799,44.917,44.72,0.76,0.9017152878803211,0.33728052476221876,0.7753388475367571,0.3550528611333514,0.8894701496246722,0.5244114885331144
800,44.978,44.78,0.72,0.9027771792285519,0.33698721721004843,0.773798894382656,0.3538308290712846,0.8866473483314722,0.5194956029064234
801,45.019,44.83,0.85,0.9038536541633796,0.33672181136983154,0.7722935959026901,0.3526397283188114,0.883815857988412,0.5145856327787165
802,45.081,44.89,0.81,0.9049436092345206,0.33648400310862997,0.7708224238032477,0.35147836230786134,0.8809767376925374,0.5096829963405889
803,45.143,44.94,0.72,0.9060459102281414,0.3362734763411514,0.7693848211936678,0.3503455401090399,0.8781310531518506,0.5047891163745257
804,45.184,45.0,0.84,0.9071593933179607,0.3360899027983041,0.7679802037580721,0.34924007731704954,0.8752798769609159,0.4999054193188878
805,45.265,45.05,0.84,0.9082828662742335,0.3359329417787194,0.7666079609394255,0.34816079687608037,0.8724242887911947,0.4950333342993016
806,45.305,45.11,0.78,0.9094151097300477,0.3358022398843529,0.7652674571352946,0.3471065298452311,0.8695653754957727,0.49017429212890434
807,45.366,45.16,0.81,0.9105548785039752,0.3356974307414675,0.7639580329046163,0.34607611610427025,0.8667042311283957,0.4853297242790576
808,45.408,45.22,0.88,0.9117009029778357,0.3356181347084432,0.7626790061846463,0.34506840500029884,0.8638419568770757,0.48050106182221475
809,45.469,45.27,0.85,0.9128518905281723,0.33556395857186255,0.7614296735172259,0.3440822559360247,0.8609796609128618,0.47568973434868017
810,45.53,45.33,0.79,0.9140065270100066,0.33553449523232726,0.7602093112835004,0.3431165389005277,0.8581184581547143,0.4708971688591011
811,45.572,45.38,0.92,0.9151634782914405,0.3355293233815853,0.7590171769462127,0.34217013494370346,0.8552594699517849,0.4661247886346448
812,45.654,45.44,0.87,0.9163213918376768,0.3355480071726913,0.7578525102986735,0.3412419365958952,0.8524038236848127,0.4613740120869126
813,45.735,45.49,0.76,0.9174788983430214,0.33559009588501554,0.756714534719525,0.3403308482344562,0.8495526522887166,0.4566462515897514
814,45.757,45.55,0.89,0.9186346134093699,0.33565512358597993,0.7556024584324241,0.33943578639917316,0.8467070936988036,0.4519429122952402
815,45.796,45.6,0.87,0.919787139269591,0.335742608791437,0.7545154757698243,0.33855568005858155,0.8438682902233122,0.447265390936228
816,45.857,45.66,0.79,0.9209350665540679,0.3358520541266872,0.7534527684400687,0.33768947082927075,0.8410373878452192,0.44261507461793914
817,45.898,45.71,0.81,0.9220769760984232,0.3359829459903079,0.7524135067969798,0.3368361131504336,0.8382155354564269,0.4379933396012808
818,46.0,45.77,0.86,0.9232114407901673,0.33613475422314065,0.7513968511110282,0.3359945744161253,0.8354038840276816,0.43340155008050846
819,46.042,45.82,0.81,0.9243370274517003,0.33630693178480714,0.7504019528410899,0.3351638350677877,0.8326035857177745,0.42884105695787594
820,46.063,45.88,0.76,0.9254522987567845,0.33649891444010543,0.7494279559056904,0.33434288864965117,0.8298157929257242,0.42431319661790745
821,46.126,45.93,0.88,0.9265558151773258,0.3367101204576697,0.7484739979525035,0.333530741829758,0.8270416572898118,0.41981928970394
822,46.189,45.99,0.82,0.9276461369571561,0.3369399503232895,0.747539211624789,0.33272641438949196,0.8242823286375509,0.41536063989957106
823,46.23,46.04,0.72,0.9287218261094625,0.337187786470227,0.7466227258234223,0.3319289391845863,0.8215389538909025,0.41093853271765135
824,46.312,46.1,0.84,0.9297814484345538,0.33745299302877024,0.7457236669631839,0.3311373620806597,0.8188126759312845,0.40655423429946524
825,46.395,46.15,0.81,0.9308235755547482,0.3377349155971156,0.7448411602220504,0.3303507418663496,0.8161046324291581,0.40220899022676665
826,46.416,46.21,0.73,0.9318467869632328,0.3380328810355633,0.743974330782315,0.32956815014710894,0.8134159546431244,0.39790402434940797
827,46.478,46.26,0.73,0.9328496720837763,0.3383461972860316,0.7431223050624085,0.328788671222805,0.8107477661935782,0.3936405376313765
828,46.52,46.32,0.74,0.9338308323381668,0.33867415321892635,0.7422842119382929,0.32801140195235046,0.8081011818160798,0.38941970701801487
829,46.561,46.37,0.67,0.9347888832182291,0.33901601850927054,0.7414591839533289,0.32723545160851314,0.805477306099653,0.38524268432711156
830,46.624,46.43,0.6,0.9357224563592095,0.3393710435438209,0.7406463585155195,0.3264599417258792,0.8028772322151227,0.38111059516647994
831,46.684,46.48,0.7,0.936630201611157,0.33973845936081243,0.7398448790809486,0.3256840059448359,0.8003020406384401,0.37702453788058
832,46.745,46.54,0.63,0.9375107891047236,0.34011747762394995,0.73905389632215,0.32490678985434035,0.7977527978737161,0.37298558252864134
833,46.787,46.59,0.51,0.9383629113075981,0.34050729063223156,0.7382725692800464,0.324127450836102,0.79523055518044,0.3689947698966095
834,46.849,46.65,0.63,0.9391852850676358,0.34090707136711057,0.7375000664980284,0.32334515791268265,0.7927363473091426,0.3650531105450494
835,46.891,46.7,0.59,0.939976653638733,0.3413159735783336,0.7367355671367146,0.3225590916018812,0.7902711912495781,0.3611615838949351
836,46.953,46.76,0.51,0.9407357886855585,0.34173313190960347,0.7359782620679576,0.3217684437796392,0.787836084995285,0.35732113735312543
837,46.995,46.81,0.52,0.9414614922633804,0.34215766206512316,0.7352273549466641,0.32097241755367695,0.7854320063281842,0.35353268547922784
838,47.058,46.87,0.56,0.9421525987693585,0.3425886610179984,0.7344820632590341,0.3201702271500553,0.7830599116267404,0.3497971091953878
839,47.12,46.92,0.5,0.9428079768618145,0.34302520726130004,0.733741619345903,0.31936109781470057,0.7807207347010853,0.3461152550403457
840,47.162,46.98,0.43,0.9434265313440905,0.34346636110240225,0.733005271399969,0.3185442657317151,0.7784153856583151,0.3424879344689396
841,47.225,47.03,0.52,0.944007205009649,0.34391116500112645,0.7322722844357176,0.31771897796017673,0.7761447498010231,0.33891592319806557
842,47.288,47.09,0.44,0.9445489804450549,0.3443586439521563,0.7315419412308702,0.3168844923910124,0.7739096865619397,0.33539996059992083
843,47.35,47.14,0.33,0.9450508817874262,0.344807805912111,0.7308135432381704,0.31604007772537834,0.7717110284773314,0.3319407491432038
844,47.392,47.2,0.45,0.945511976432829,0.34525764227158284,0.7300864114662654,0.3151850134758329,0.7695495802015204,0.3285389538828022
845,47.476,47.25,0.42,0.9459313766919626,0.34570712837233647,0.729359887328395,0.31431858999141776,0.7674261175645848,0.32519520199837476
846,47.497,47.31,0.36,0.9463082413893691,0.34615522406977434,0.7286333334575501,0.31344010850757553,0.7653413866749401,0.3219100823821462
847,47.559,47.36,0.38,0.94664177740233,0.3466008743407679,0.7279061344867266,0.31254888122173297,0.7632961030682147,0.31868414527613237
848,47.662,47.42,0.42,0.9469312411356654,0.3470430099369095,0.7271776977929036,0.3116442313953111,0.7612909509036617,0.31551790195882656
849,47.682,47.47,0.38,0.9471759399288254,0.3474805480830315,0.7264474542034881,0.31072549348273787,0.7593265822092459,0.31241182448118604
850,47.725,47.53,0.32,0.9473752333919011,0.3479123932206023,0.7257148586641116,0.30979201328782185,0.7574036161764083,0.3093663454516382
851,47.786,47.58,0.43,0.9475285346674113,0.3483374377954828,0.7249793908667903,0.30884314814769287,0.7555226385054237,0.306381857869725
852,47.848,47.64,0.37,0.947635311614936,0.34875456308947034,0.7242405558376106,0.30787826714429184,0.7536842008021878,0.3034587150078702
853,47.909,47.69,0.27,0.9476950879158353,0.3491626400950115,0.723497884483256,0.30689675134304734,0.7518888200271779,0.3005972303406246
854,47.97,47.75,0.38,0.9477074440954276,0.349560530432443,0.7227509340958372,0.30589799405802853,0.7501369779972225,0.29779767752060793
855,48.011,47.8,0.35,0.9476720184600973,0.34994708730906193,0.7219992888155884,0.30488140114259,0.7484291209405682,0.29506029040026177
856,48.073,47.86,0.28,0.9475885079468701,0.35032115651927237,0.7212425600510521,0.30384639130435986,0.7467656591055004,0.2923852630985043
857,48.114,47.91,0.31,0.9474566688830138,0.35068157748505885,0.7204803868563615,0.3027923964434154,0.7451469664225362,0.2897727501113978
858,48.156,47.97,0.36,0.9472763176532618,0.35102718433600294,0.7197124362652038,0.30171886201249626,0.7435733802200143,0.2872228664658903
859,48.216,48.02,0.33,0.9470473312723701,0.35135680702783784,0.7189384035811034,0.30062524739798757,0.7420452009927463,0.2847356879156389
860,48.277,48.08,0.28,0.9467696478609031,0.3516692724982539,0.7181580126237042,0.2995110263203473,0.7405626922232367,0.2823112511779069
861,48.34,48.13,0.4,0.9464432670224227,0.35196340585846636,0.7173710159307595,0.2983756872528602,0.7391260802549168,0.2799495542105096
862,48.401,48.19,0.35,0.9460682501205986,0.3522380316189002,0.7165771949155785,0.29721873385791137,0.7377355542168491,0.27765055652773735
863,48.441,48.24,0.26,0.9456447204551587,0.35249197494720647,0.7157763599797851,0.29603968544017617,0.7363912659993712,0.275414179554144
864,48.502,48.3,0.39,0.9451728633359868,0.35272406295667486,0.7149683505813985,0.2948380774161372,0.7350933302801597,0.2732403070150688
865,48.583,48.35,0.36,0.9446529260550774,0.352933126022905,0.7141530352584663,0.2936134617991565,0.7338418246001881,0.2711287853627515
866,48.604,48.41,0.29,0.9440852177564039,0.35311799912638164,0.7133303116087147,0.2923654076990403,0.7326367894889819,0.26907942423696013
867,48.665,48.46,0.31,0.9434701092040647,0.35327752321849293,0.7125001062258435,0.2910935018348476,0.731478228638484,0.2670919969591198
868,48.706,48.52,0.36,0.9428080324493082,0.3534105466084624,0.7116623745932111,0.28979734905958704,0.7303661091248186,0.2651662410589196
869,48.767,48.57,0.32,0.9420994803972444,0.35351592636852286,0.7108171009357812,0.2884765728952649,0.7293003616771715,0.2633018588323466
870,48.829,48.63,0.26,0.941345006274183,0.35359252975454686,0.7099642980312868,0.2871308160765476,0.7282808809929016,0.26149851793009515
871,48.891,48.68,0.38,0.9405452229966168,0.3536392356393507,0.709104006981573,0.2857597411012193,0.7273075260979066,0.2597558519752889
872,48.993,48.74,0.33,0.9397008024429213,0.3536549359559147,0.7082362969450622,0.284363030785578,0.7263801207512162,0.25807346120939983
873,49.014,48.79,0.24,0.9388124746289582,0.35363853714772325,0.707361264831263,0.28294038882287303,0.7254984538926927,0.2564509131652233
874,49.075,48.85,0.37,0.9378810267889578,0.3535889616233442,0.7064790349582658,0.28149154034285356,0.7246622801326718,0.2548877433657535
875,49.095,48.9,0.36,0.9369073023633603,0.3535051492122213,0.7055897586742595,0.28001623247040913,0.7238713202823124,0.253383456047817
