,Time_Host,Time_Arduino,easingdata,CH1_Oxy,CH1_Deoxy,CH2_Oxy,CH2_Deoxy,CH3_Oxy,CH3_Deoxy
0,1.114,0.04,0.0,1.0,0.0,1.0,0.0,1.0,0.3432910595114782
1,1.136,0.1,0.0,0.9926786289987293,0.017642306115228237,0.9905032054085604,0.013176653548382173,0.9927808881377456,0.3572090907873433
2,1.155,0.15,0.0,0.9853218749751657,0.035195284246023514,0.9809630450879614,0.02631725722416322,0.9855141177011758,0.3710787902220579
3,1.176,0.21,0.0,0.9779315858769678,0.05265261723063937,0.9713820375829448,0.03941744570571569,0.9782016519664855,0.3848947518728898
4,1.196,0.26,0.0,0.9705096213239872,0.07000808103874243,0.9617627180897588,0.05247290144271623,0.9708454794525174,0.3986516150179995
5,1.216,1.05,0.0,0.963057851548502,0.087255549590273,0.9521076369792192,0.06547935779430178,0.9634476126072653,0.4123440685446145
6,1.237,1.11,0.0,0.9555781563515418,0.10438899939320967,0.9424193583325904,0.07843260206239279,0.9560100864858556,0.42596685523345984
7,1.279,1.16,0.0,0.9480724240754558,0.12140251399691636,0.9327004584902691,0.09132847841885203,0.9485349574212684,0.4395147759337052
8,1.361,1.22,0.0,0.9405425505927559,0.13829028825831502,0.9229535246131102,0.10416289072551173,0.941024301689029,0.452982693622958
9,1.403,1.27,0.0,0.9329904383111491,0.15504663241868064,0.9131811532560973,0.11693180524645246,0.9334802141670773,0.4663655373471039
10,1.445,1.33,-0.12,0.9254179951945604,0.17166597598937675,0.9033859489539429,0.12963125325224478,0.9259048069920034,0.4796583060350434
11,1.505,1.38,-0.28,0.9178271337998901,0.1881428714452534,0.893570522818133,0.1422573335160935,0.9183002082128172,0.492856072183642
12,1.588,1.44,-0.07,0.9102197703292569,0.20447199772457625,0.8837374911449747,0.15480621470182354,0.9106685604433611,0.5059539854085803
13,1.608,1.49,-0.12,0.9025978236975585,0.22064816353428005,0.8738894740343491,0.1672741376434208,0.9030120195143588,0.518947275857378
14,1.671,1.55,-0.25,0.894963214615183,0.2366663104594733,0.8640290940189683,0.17965741751570244,0.8953327531259491,0.5318312574816324
15,1.753,1.6,-0.35,0.8873178646855584,0.2525215158768117,0.8541589747038631,0.19195244589593916,0.8876329395014473,0.5446013311661618
16,1.773,1.66,-0.27,0.8796636955169851,0.26820899567236667,0.8442817394156492,0.20415569271677025,0.8799147660430217,0.5572529877131492
17,1.834,1.71,-0.39,0.8720026278479929,0.2837241067654872,0.8344000098609345,0.21626370811124057,0.8721804279898965,0.5697818106797395
18,1.895,1.77,-0.5,0.8643365806852834,0.2990623494408323,0.8245164047930719,0.22827312415118675,0.8644321270795604,0.5821834790680498
19,2.019,1.82,-0.21,0.8566674704531366,0.3142193694913789,0.8146335386863458,0.2401806564805482,0.8566720702122961,0.594453769867129
20,2.04,1.88,-0.34,0.8489972101530209,0.32919096017573585,0.8047540204167049,0.2519831058453836,0.8489024681192188,0.6065885604469293
21,2.061,1.93,-0.51,0.8413277085320542,0.3439730639934799,0.7948804519482779,0.26367735952244575,0.841125534033929,0.6185838308048276
22,2.103,1.99,-0.35,0.8336608692589381,0.3585617742825297,0.7850154270250828,0.27526039264822505,0.8333434823678841,0.6304356656656426
23,2.166,2.04,-0.36,0.825998590106037,0.37295333664276814,0.7751615298675083,0.28672926945040583,0.8255585273896188,0.6421402564364921
24,2.229,2.1,-0.44,0.8183427621363527,0.387144150190279,0.7653213338733147,0.2980811443836967,0.8177728819079492,0.6536939030183397
25,2.331,2.15,-0.51,0.8106952688941665,0.4011307686468401,0.7554974003229583,0.30931326317212116,0.809988755959287,0.665093015476673
26,2.351,2.21,-0.37,0.803057985598129,0.4149099012696273,0.7456922770890612,0.3204229637600609,0.8022083554991838,0.6763341155741915
27,2.393,2.26,-0.53,0.7954327783356296,0.42847841362618566,0.735908497349856,0.33140767717448194,0.7944338810982376,0.6874138381686826
28,2.455,2.32,-0.73,0.7878215032573582,0.44183332821962007,0.7261485783064655,0.34226492830079547,0.7866675266424858,0.6983289324794889
29,2.517,2.37,-0.51,0.7802260057710337,0.45497182496878236,0.7164150199038705,0.3529923365748103,0.7789114780383759,0.7090762632261675
30,2.557,2.43,-0.66,0.772648119733332,0.46789124154803136,0.7067103035554348,0.3635876165932001,0.7711679119223536,0.7196528116431031
31,2.639,2.48,-0.78,0.7650896666390495,0.48058907359099534,0.6970368908708522,0.3740485786448706,0.7634389943750127,0.7300556763740204
32,2.701,2.54,-0.63,0.7575524548065312,0.4930629747627389,0.6873972223873638,0.38437312916561817,0.7557268796396636,0.7402820742504506
33,2.721,2.59,-0.57,0.7500382785584105,0.5053107567046317,0.6777937163041219,0.3945592711184363,0.748033708845125,0.7503293409581933
34,2.783,2.65,-0.61,0.7425489173968314,0.5173303888559171,0.6682287672196561,0.4046051043016769,0.7403616087325205,0.7601949315957728
35,2.823,2.7,-0.69,0.7350861351724624,0.5291199981556663,0.6587047448724936,0.4145088255871408,0.7327126903858854,0.7698764211289014
36,2.885,2.76,-0.49,0.7276516792467922,0.5406778686285824,0.649223992885089,0.4242687290901213,0.7250890479665014,0.7793715047448947
37,2.948,2.81,-0.61,0.7202472796474084,0.5520024408579058,0.6397888275113736,0.4338832062733357,0.7174927574510086,0.7886779981108576
38,3.008,2.87,-0.79,0.7128746482161942,0.5630923113484164,0.6304015363884391,0.4433507459865229,0.7099258753734777,0.7977938375393874
39,3.069,2.92,-0.54,0.7055354777506199,0.5739462317822328,0.6210643772930503,0.45266993444327835,0.7023904375717445,0.8067170800654888
40,3.111,2.98,-0.66,0.698231441138537,0.5845631081697387,0.6117795769038924,0.4618394551364192,0.6948884579383939,0.8154459034383628
41,3.151,3.03,-0.8,0.6909641904871131,0.5949419998975486,0.6025493295706434,0.4708580886928835,0.6874219271768601,0.8239786060317524
42,3.212,3.09,-0.78,0.6837353562467208,0.6050821186751543,0.5933757960910925,0.47972471266898425,0.6799928115631568,0.832313606676511
43,3.275,3.14,-0.79,0.6765465463307756,0.6149828273816106,0.5842611024976372,0.4884383012866846,0.6726030517138302,0.8404494444189011
44,3.336,3.2,-0.9,0.6693993452327055,0.6246436388132313,0.5752073388546092,0.4969979251113332,0.6652545613607529,0.8483847782079261
45,3.377,3.25,-1.0,0.6622953131413671,0.63406421433289,0.5662165580679335,0.5054027506710894,0.657949226133373,0.8561183865148194
46,3.439,3.31,-0.78,0.6552359850562812,0.6432443624212993,0.5572907747086185,0.5136520400181668,0.6506889023490039,0.863649166887636
47,3.521,3.36,-0.88,0.6482228699041134,0.6521840371304342,0.5484319638515593,0.5217451502319235,0.6434754158117314,0.8709761354436865
48,3.542,3.42,-1.05,0.6412574496578798,0.660883336439093,0.539642059931164,0.5296815328637016,0.6363105606205254,0.8780984263024104
49,3.604,3.47,-0.8,0.6343411784604389,0.669342500510505,0.5309229556153703,0.5374607333232123,0.6291960979872142,0.8850152909611444
50,3.666,3.53,-0.85,0.6274754817539272,0.6775619098518917,0.5222765006997337,0.5450823902061542,0.6221337550650957,0.8917260976161296
51,3.748,3.58,-0.98,0.6206617554168748,0.6855420833760827,0.5137045010233827,0.5525462345626876,0.6151252237890809,0.8982303304310864
52,3.808,3.64,-0.96,0.6139013649107611,0.6932836763657747,0.5052087174087126,0.559852089106496,0.608172159728404,0.9045275887556707
53,3.828,3.69,-0.92,0.6071956444377823,0.7007874783416124,0.4967908646267185,0.5669998673643587,0.601276180953087,0.9106175862959816
54,3.868,3.75,-1.04,0.6005458961116624,0.7080544108356676,0.48845261038994225,0.5739895727662736,0.5944388669154831,0.9165001502390776
55,3.93,3.8,-1.21,0.5939533891433745,0.7150855250722049,0.48019557437502564,0.580821297676264,0.5876617573483182,0.9221752203333272
56,4.011,3.86,-1.05,0.5874193590436048,0.7218819995580037,0.4720213272768548,0.5874952223641541,0.5809463511807202,0.9276428479262938
57,4.031,3.91,-1.23,0.5809450068437371,0.7284451375848804,0.4639313898962643,0.5940116139187347,0.5742941054737775,0.9329031949617168
58,4.092,3.97,-1.49,0.5745314983370584,0.7347763646472706,0.45592723226326365,0.6003708251028148,0.567706434377166,0.9379565329370082
59,4.174,4.02,-1.31,0.5681799633418115,0.7408772257778324,0.44801027279770733,0.6065732931507433,0.5611847081083785,0.9428032418225237
60,4.195,4.08,-1.33,0.5618914949876541,0.7467493828039977,0.4401818775092448,0.6126195385090647,0.5547302519560303,0.9474438089436872
61,4.255,4.13,-1.47,0.5556671490270031,0.7523946115283858,0.43244335923826377,0.6185101635210597,0.5483443453086458,0.951878827826949
62,4.318,4.19,-1.5,0.549507943172618,0.7578147988361876,0.4247959769393619,0.6242458510560837,0.5420282207102745,0.9561089970104982
63,4.379,4.24,-1.4,0.543414856462668,0.7630119397329407,0.41724093500870985,0.6298273630848259,0.5357830629442925,0.9601351188204958
64,4.42,4.3,-1.51,0.5373888286544807,0.7679881343163684,0.4097793826565687,0.6352555392017203,0.5296100081468006,0.9639580981134533
65,4.483,4.35,-1.64,0.5314307596481577,0.7727455846862326,0.40241241332616035,0.6405312950958324,0.5235101429510837,0.967578940985371
66,4.565,4.41,-1.43,0.5255415089412,0.7772865917965307,0.39514106416000994,0.645655620971717,0.5174845036646549,0.9709987534482603
67,4.586,4.46,-1.62,0.5197218951152762,0.7816135522546486,0.38796631551480826,0.6506295799219146,0.5115340754804784,0.9742187400746097
68,4.647,4.52,-1.83,0.5139726953562629,0.7857289550721243,0.3808890905257868,0.6554543062528558,0.5056597917240236,0.9772402026102348
69,4.708,4.57,-1.74,0.508294645008727,0.7896353783715473,0.37391025472155914,0.6601310037659991,0.4998625331378648,0.9800645385558103
70,4.749,4.63,-1.8,0.5026884371660386,0.7933354860539388,0.36703061569036805,0.6646609439960207,0.4941431272055505,0.9826932397172368
71,4.811,4.68,-1.98,0.4971547222972855,0.7968320244309098,0.36025092279863785,0.6690454644078955,0.4885023475164358,0.985127890724964
72,4.894,4.74,-2.11,0.49169410791201773,0.8001278188261118,0.35357186696259846,0.6732859665548845,0.4829409131730817,0.9873701675224111
73,4.914,4.79,-2.04,0.4863071582636737,0.8032257701507959,0.34699408047354285,0.6773839141997463,0.47745948824274687,0.9894218358235176
74,4.999,4.85,-2.16,0.4809943940923555,0.8061288514584163,0.340518136877088,0.6813408314016953,0.47205868125439154,0.9912847495393361
75,5.018,4.9,-2.28,0.4757562924074791,0.8088401044831538,0.3341445509066362,0.6851583005717325,0.46673904474247885,0.9929608491735551
76,5.08,4.96,-2.06,0.47059328631068414,0.8113626361671515,0.3278737784710793,0.6888379604990477,0.4615010748387302,0.9944521601868676
77,5.141,5.01,-2.24,0.4655057648593205,0.8136996151811378,0.32170621669667304,0.6923815043512462,0.456345210912908,0.9957607913301282
78,5.202,5.07,-2.42,0.4604940729707943,0.8158542684430129,0.31564220402291776,0.6957906776512259,0.451271835263668,0.9968889329462444
79,5.284,5.12,-2.32,0.4555585113680387,0.8178298776389982,0.30968202035218706,0.6990672762336697,0.44628127286052477,0.997838855240758
80,5.304,5.18,-2.37,0.4506993365663544,0.8196297757520361,0.30382588725277726,0.7022131441842395,0.4413737911379753,0.9986129065210863
81,5.367,5.23,-2.51,0.4459167609018253,0.8212573436022477,0.2980739682150097,0.705230171764588,0.43654959984278413,0.9992135114045323
82,5.408,5.29,-2.62,0.4412109526014084,0.8227160064044725,0.2924263689599519,0.7081202933263488,0.431808850935357,0.9996431689953537
83,5.469,5.34,-2.57,0.43658203589467476,0.8240092303481131,0.28688313780023567,0.7108854852173275,0.42715163854605814,0.9999044510312897
84,5.55,5.4,-2.74,0.4320300911670742,0.8251405192044892,0.2814442660523688,0.7135277636831178,0.4225779989872335,1.0
85,5.57,5.45,-2.94,0.4275551551544892,0.8261134109667437,0.27610968849984463,0.7160491827673278,0.4180879108215789,0.9999325272259885
86,5.632,5.51,-2.71,0.4231572211787027,0.8269314745271718,0.270879283906211,0.7184518322135964,0.413681294987333,0.9997048109287033
87,5.693,5.56,-2.85,0.4188362394232497,0.827598306396653,0.26575287557708666,0.7207378353725845,0.40935801498060675,0.9993196942525595
88,5.753,5.62,-3.02,0.41459211724897926,0.8281175274706782,0.2607302319699251,0.722909347117118,0.4051178770949895,0.9987800832696329
89,5.794,5.67,-2.89,0.4104247195485189,0.8284927798463078,0.25581106735015985,0.7249685517686478,0.40096063071844884,0.9980889449557176
90,5.854,5.73,-2.91,0.406333869138776,0.8287277236942192,0.2509950424922735,0.7269176610381004,0.3968859686874578,0.9972493051403581
91,5.916,5.78,-3.03,0.4023193471905945,0.8288260341897341,0.24628176542431035,0.7287589119839989,0.3928935276982223,0.9962642464314786
92,6.018,5.84,-3.11,0.39838089369464896,0.8287913985065397,0.24167079221431353,0.7304945649905943,0.38898288877481796,0.9951369061153134
93,6.039,5.89,-3.03,0.39451820796259596,0.8286275128767466,0.23716162779710964,0.7321269017686806,0.38515357779400305,0.9938704740323601
94,6.081,5.95,-3.18,0.39073094916245243,0.8283380797207749,0.23275372683982534,0.7336582233816576,0.3814050660664209,0.9924681904300686
95,6.142,6.0,-3.35,0.38701873688714317,0.8279268048502768,0.22844649464449096,0.7350908482992434,0.3777367709738196,0.990933343793041
96,6.185,6.06,-3.17,0.3833811517551241,0.8273973947469546,0.224239288086038,0.7364271104810651,0.37414805666180145,0.9892692686515671
97,6.247,6.11,-3.32,0.3798177360419509,0.8267535539196971,0.22013141658393645,0.737669357492171,0.3706382347874855,0.9874793433693088
98,6.288,6.17,-3.47,0.376327994341601,0.8259989823420123,0.21612214310564432,0.73881994865232,0.36720656532131907,0.985566987910872
99,6.369,6.22,-3.31,0.37291139425628145,0.8251373729713345,0.2122106851999522,0.7398812532207583,0.3638522574021349,0.983535661589901
100,6.389,6.28,-3.31,0.3695673671134018,0.8241724093513975,0.2083962160582528,0.7408556486180354,0.3605744702444238,0.9813888607981818
101,6.471,6.33,-3.41,0.3662953087083657,0.8231077632985205,0.20467786560175327,0.7417455186862282,0.3573723140966895,0.9791301167162039
102,6.512,6.39,-3.46,0.36309458007177425,0.8219470926725276,0.20105472159262922,0.7425532519888494,0.3542448512496728,0.9767629930056372
103,6.574,6.44,-3.38,0.35996450825957665,0.8206940392330677,0.19752583076709979,0.7432812401517034,0.35119109709321,0.9742910834841386
104,6.616,6.5,-3.49,0.3569043871646851,0.8193522265820131,0.19409019998842858,0.7439318762458696,0.3482100212204736,0.9717180097828525
105,6.677,6.55,-3.65,0.3539134783485947,0.8179252581923568,0.19074679741790745,0.7445075532138307,0.34530054857829867,0.9690474189870227
106,6.738,6.61,-3.46,0.3509910118915771,0.8164167155236451,0.1874945537019376,0.7450106623395713,0.34246156066221917,0.9662829812602793
107,6.8,6.66,-3.62,0.34813618726005263,0.8148301562235161,0.18433236317338994,0.7454435917632425,0.33969189675474615,0.963428387453298
108,6.842,6.72,-3.76,0.34534817418977176,0.8131691124144115,0.18125908506546445,0.7458087250407468,0.33699035520529813,0.9604873466976735
109,6.903,6.77,-3.6,0.34262611358342593,0.8114370890641094,0.1782735447362716,0.746108439748419,0.3343556947500782,0.9574635839859021
110,6.965,6.83,-3.59,0.3399691184212953,0.809637562438336,0.1753745349023633,0.746345106132793,0.3317866358700802,0.9543608377383699
111,7.028,6.88,-3.66,0.3373762746835365,0.8077739786333936,0.1725608168794655,0.7465210858052369,0.3292818621852956,0.9511828573583093
112,7.131,6.94,-3.68,0.33484664228268146,0.8058497521866488,0.16983112182866217,0.7466387304811358,0.32684002188311845,0.9479334007758491
113,7.151,6.99,-3.54,0.33237925600490514,0.8038682647627734,0.16718415200627654,0.746700380763296,0.3244597291789275,0.9446162319824065
114,7.171,7.05,-3.64,0.32997312645867605,0.8018328639135445,0.16461858201574123,0.7467083649691889,0.3221395658068392,0.9412351185567944
115,7.232,7.1,-3.76,0.32762724102950713,0.799746861908741,0.16213306005984185,0.7466649980015101,0.3198780825386385,0.9377938291845566
116,7.274,7.16,-3.55,0.32534056483962603,0.7976135346353389,0.15972620919181865,0.7465725802613767,0.3176738007289039,0.9342961311721838
117,7.336,7.21,-3.7,0.3231120417114607,0.7954361205618894,0.15739662856391853,0.7464333966032941,0.31552521388434374,0.9307457879579424
118,7.417,7.27,-3.84,0.32094059513387696,0.7932178197647162,0.1551428946720926,0.7462497153308278,0.31343078925534046,0.9271465566211171
119,7.482,7.32,-3.65,0.31882512923011086,0.7909617930124314,0.1529635625956151,0.7460237872317518,0.31138896944767097,0.9235021853915045
120,7.503,7.38,-3.62,0.3167645297263538,0.7886711609051617,0.15085716723046927,0.7457578446512997,0.3093981740523278,0.9198164111609739
121,7.546,7.43,-3.68,0.31475766491996704,0.7863490030647978,0.14882222451542862,0.7454541006020067,0.30745680129132047,0.9160929569989669
122,7.607,7.49,-3.69,0.312803386646274,0.7839983573727574,0.14685723264979753,0.745114747908636,0.3055632296773174,0.9123355296738933
123,7.67,7.54,-3.53,0.31090053124285133,0.7816222192520725,0.14496067330181642,0.744741958386812,0.3037158196850391,0.9085478171824142
124,7.752,7.6,-3.63,0.3090479205102738,0.779223540990852,0.14313101280682053,0.7443378820540563,0.3019129154323892,0.9047334862886288
125,7.772,7.65,-3.75,0.3072443626683536,0.776805231104229,0.1413667033543498,0.7439046463719086,0.30015284636938655,0.900896180075277
126,7.855,7.71,-3.53,0.3054886533070073,0.7743701537318985,0.13966618416351217,0.743444355517766,0.2984339289730222,0.8970395155091819
127,7.915,7.76,-3.67,0.3037795763309981,0.7719211280682572,0.13802788264600815,0.7429590896849882,0.29675446844621767,0.8931670810232201
128,7.935,7.82,-3.8,0.30211590489788925,0.7694609278220507,0.1364502155563172,0.742450904409741,0.29511276041908163,0.889282434117163
129,7.996,7.87,-3.61,0.30049640234861413,0.7669922807023682,0.1349315901286202,0.7419218299230251,0.2935070926506691,0.8853890989797605
130,8.057,7.93,-3.59,0.29891982313013205,0.7645178679277775,0.13347040520013126,0.7413738705263239,0.29193574672944317,0.8814905641344005
131,8.118,7.98,-3.65,0.29738491370969505,0.7620403237554229,0.13206505232061935,0.7408090039892448,0.2903969997706317,0.8775902801107008
132,8.22,8.04,-3.66,0.2958904134802612,0.7595622350271755,0.13071391684797495,0.7402291809675525,0.28888912610868767,0.8736916571444266
133,8.24,8.09,-3.54,0.2944350556566198,0.757086140730347,0.1294153790297369,0.739636324440084,0.28741039898313786,0.8697980629081203
134,8.281,8.15,-3.63,0.29301756816187996,0.7546145315708142,0.12816781507058556,0.7390323291630743,0.2859590922162014,0.8659128202748134
135,8.344,8.2,-3.73,0.2916366745041092,0.7521498495566118,0.12696959818590195,0.7384190611404468,0.2845334818806359,0.8620392051172698
136,8.405,8.26,-3.53,0.2902910946430217,0.7496944875902488,0.12581909964156526,0.7377983571086916,0.2831318479563267,0.8581804441452814
137,8.427,8.31,-3.68,0.28897954584672314,0.7472507890681258,0.12471468978024355,0.7371720240350361,0.2817524759741773,0.8543397127835491
138,8.508,8.37,-3.81,0.2877007435385986,0.7448210474855299,0.12365473903450373,0.736541838627666,0.28039365864588417,0.8505201330926446
139,8.591,8.42,-3.61,0.2864534021344813,0.7424075060458069,0.12263761892712756,0.7359095468568096,0.27905369747819525,0.8467247717354548
140,8.611,8.48,-3.6,0.2852362358702839,0.7400123572724089,0.12166170305908255,0.7352768634855241,0.2777309043702596,0.8429566379914092
141,8.652,8.53,-3.68,0.28404795962031854,0.7376377426225693,0.12072536808564037,0.7346454716090113,0.27642360319266773,0.8392186818207549
142,8.714,8.59,-3.69,0.28288728970654503,0.735285752101512,0.11982699468113636,0.73401702220138,0.2751301313468078,0.835513791981147
143,8.775,8.64,-3.58,0.2817529446989987,0.7329584238763157,0.11896496849284878,0.7333931336689523,0.2738488413032357,0.8318447941987531
144,8.837,8.7,-3.68,0.2806436462077072,0.7306577438886775,0.11813768108448304,0.732775391409377,0.2725781021178473,0.8282144493959998
145,8.899,8.75,-3.8,0.27955811966647126,0.7283856454659084,0.11734353086975378,0.7321653473759856,0.2713163009246999,0.8246254519781294
146,8.961,8.81,-3.64,0.27849509510890746,0.7261440089296853,0.1165809240365374,0.7315645196470492,0.27006184440437503,0.8210804281807995
147,8.981,8.86,-3.76,0.27745330793715917,0.723934661202282,0.11584827546204834,0.7309743919998,0.2688131602267909,0.8175819344809884
148,9.064,8.92,-3.89,0.2764314996836685,0.7217593754101743,0.11514400961946127,0.7303964134892296,0.2675686984673669,0.8141324560734898
149,9.104,8.97,-3.66,0.2754284187663767,0.7196198704850598,0.11446656147636021,0.7298319980318188,0.266326932995414,0.8107344054152977
150,9.165,9.03,-3.65,0.27444282123769376,0.717517810762443,0.1138143773853539,0.7292825239944442,0.2650863628336023,0.8073901208401488
151,9.226,9.08,-3.75,0.27347347152754703,0.7154548055780419,0.11318591596716537,0.7287493337887536,0.263845513487343,0.8041018652454729
152,9.309,9.14,-3.73,0.2725191431807709,0.7134324088624779,0.11257964898644593,0.7282337334713912,0.2626029382429732,0.8008718248539
153,9.33,9.19,-3.64,0.2715786195890673,0.7114521187349275,0.11199406222050567,0.7277369923505447,0.26135721943373397,0.797702108051262
154,9.394,9.25,-3.72,0.2706506947177934,0.7095153770964819,0.11142765632113064,0.7272603425993347,0.2601069696726422,0.7945947443028049
155,9.434,9.3,-3.82,0.26973417382784753,0.7076235692240501,0.11087894766962528,0.7268049788766202,0.25885083305143775,0.7915516831492293
156,9.495,9.36,-3.64,0.26882787419289667,0.7057780233658784,0.11034646922514733,0.7263720579559568,0.2575874863048411,0.7885747932840843
157,9.557,9.41,-3.75,0.26793062581212584,0.7039800103400642,0.10982877136632853,0.7259626983636049,0.2563156399394012,0.7856658617138924
158,9.619,9.47,-3.88,0.26704127211859874,0.7022307431377319,0.10932442272610665,0.7255779800265444,0.2550340393262454,0.7828265930021548
159,9.723,9.52,-3.63,0.2661586706832149,0.700531376532826,0.10883201101965156,0.7252189439314372,0.2537414657570577,0.7800586085981445
160,9.744,9.58,-3.66,0.26528169391415846,0.6988830067007283,0.108350143865256,0.7248865917953883,0.25243673746264256,0.7773634462511356
161,9.763,9.63,-3.76,0.26440922975165565,0.6972866708481192,0.10787744959805874,0.7245818857492952,0.251118710593465,0.7747425595105615
162,9.824,9.69,-3.72,0.26354018235777177,0.6957433468568374,0.10741257807640801,0.7243057480346837,0.249786280161633,0.7721973173124381
163,9.885,9.74,-3.65,0.2626734728009129,0.6942539529448142,0.1069542014806024,0.7240590607151103,0.24843838094390147,0.7697290036521406
164,9.925,9.8,-3.72,0.26180803973466527,0.6928193473473256,0.10650101510370517,0.7238426654033076,0.24707398834538713,0.7673388173433637
165,10.047,9.85,-3.85,0.2609428400705757,0.6914403280218863,0.10605173813408324,0.7236573630053076,0.24569211922375564,0.7650278718629376
166,10.067,9.91,-3.69,0.2600768496444014,0.6901176323802197,0.10560511442923734,0.7235039134828763,0.24429183267370227,0.7627971952810007
167,10.088,9.96,-3.78,0.2592090638752985,0.688851937050742,0.1051599132804002,0.72338303563567,0.24287223077159273,0.7606477302758236
168,10.15,10.02,-3.93,0.25833849841738815,0.6876438576747796,0.10471493016729459,0.7232954069045006,0.24143245928014004,0.7585803342323657
169,10.21,10.07,-3.68,0.25746418980311975,0.6864939487394094,0.1042689875023713,0.7232416631970233,0.23997170831299647,0.7565957794234437
170,10.252,10.13,-3.74,0.25658519607786784,0.6854027034494342,0.10382093536380282,0.7232223987370218,0.23848921295914322,0.7546947532722365
171,10.354,10.18,-3.85,0.2557005974252137,0.6843705536407357,0.10336965221649616,0.7232381659383756,0.23698425386698194,0.7528778586948027
172,10.375,10.24,-3.79,0.254809496782385,0.6833978697371654,0.10291404562037156,0.7232894753047885,0.23545615778808987,0.7511456145212665
173,10.416,10.29,-3.76,0.2539110204453689,0.6824849607530613,0.10245305292517089,0.7233767953563561,0.23390429808068317,0.7494984559941795
174,10.478,10.35,-3.85,0.2530043186633247,0.681632074343232,0.10198564195111792,0.7235005525839198,0.23232809517291314,0.7479367353423739
175,10.539,10.4,-3.98,0.2520885662220242,0.6808393969019206,0.101510811654801,0.723661131431976,0.23072701698616332,0.7464607224284513
176,10.601,10.46,-3.81,0.25116296301612706,0.6801070537119974,0.10102759277964371,0.7238588743108177,0.22910057931854116,0.745070605467898
177,10.641,10.51,-3.91,0.25022673461016076,0.6794351091453206,0.10053504849031702,0.7240940816384928,0.22744834618876025,0.7437664918176305
178,10.703,10.57,-4.07,0.24927913278810876,0.6788235669148409,0.10003227499042062,0.7243670119130377,0.22576993014058044,0.7425484088316254
179,10.804,10.62,-3.79,0.24831943609152596,0.6782723703786482,0.09951840212272739,0.7246778818153308,0.22406499250794598,0.7414163047811543
180,10.824,10.68,-3.9,0.24734695034611054,0.6777814028958742,0.09899259395126525,0.7250268663427784,0.2223332436409546,0.7403700498370681
181,10.865,10.73,-4.03,0.2463610091766186,0.6773504882344377,0.09845404932451371,0.7254140989739806,0.22057444309280255,0.7394094371116389
182,10.926,10.79,-3.95,0.24536097450989972,0.6769793910311844,0.09790200241899989,0.725839671864551,0.21878839976788983,0.7385341837575469
183,10.967,10.84,-3.96,0.24434623706571212,0.6766678173056795,0.0973357232625956,0.726303636074309,0.21697497203132982,0.7377439321215945
184,11.029,10.9,-4.05,0.24331621683492904,0.6764154150292067,0.09675451823687511,0.726806001826,0.21513406778013708,0.7370382509506742
185,11.093,10.95,-4.17,0.24227036354475004,0.6762217747503655,0.09615773055790997,0.7273467387955777,0.2132656444763662,0.7364166366474898
186,11.153,11.01,-4.0,0.24120815711055327,0.676086430278254,0.09554474073487222,0.7279257764339779,0.21136970914245082,0.7358785145734532
187,11.194,11.06,-4.09,0.2401291080740424,0.6760088594237531,0.09491496700581416,0.7285430043201538,0.20944631831895674,0.7354232403960299
188,11.235,11.12,-4.21,0.23903275802733034,0.6759884847990634,0.09426786574999763,0.7291982725449533,0.20749557798490761,0.7350501014776963
189,11.296,11.17,-3.97,0.2379186800225572,0.6760246746754464,0.0936029318761326,0.7298913921253046,0.20551764344080767,0.7347583183035556
190,11.357,11.23,-4.09,0.2367864789665959,0.6761167438990179,0.09291969918590173,0.7306221354480742,0.20351271915448674,0.7345470459445813
191,11.419,11.28,-4.25,0.23563579200037105,0.6762639548644083,0.09221774071217975,0.7313902367429165,0.20148105856991735,0.7344153755534625
192,11.502,11.34,-4.16,0.23446628886227908,0.6764655185461512,0.09149666903137306,0.7321953925834714,0.199422963879193,0.7343623358900953
193,11.523,11.39,-4.19,0.2332776722351861,0.6767205955876524,0.09075613654932307,0.7330372624163154,0.19733878575788383,0.7343868948738387
194,11.627,11.45,-4.3,0.23206967807648457,0.6770282974473574,0.08999583576023702,0.7339154691170316,0.19522892306396564,0.7344879611598263
195,11.648,11.5,-4.38,0.23084207593067904,0.6773876876014079,0.08921549947808377,0.7348295995727158,0.19309382250045273,0.7346643857368714
196,11.688,11.56,-4.23,0.22959466922393662,0.6777977828016934,0.0884149010398354,0.7357792052902069,0.19093397824179595,0.7349149635447098
197,11.75,11.61,-4.32,0.22832729554001327,0.6782575543877424,0.08759385447989204,0.7367638030292403,0.18874993152402633,0.735238435108445
198,11.811,11.67,-4.42,0.22703982687694552,0.6787659296503821,0.08675221467500562,0.7377828754595499,0.18654227019854477,0.7356334881882253
199,11.893,11.72,-4.18,0.22573216988387326,0.6793217932446307,0.08588987745900767,0.7388358718407713,0.18431162824941022,0.7360987594423356
200,11.913,11.78,-4.29,0.22440426607735406,0.6799239886488424,0.0850067797066638,0.739922208723806,0.18205868527396685,0.7366328361020411
201,11.953,11.83,-4.45,0.22305609203654347,0.6805713196667913,0.08410289938600773,0.7410412706721702,0.17978416592667557,0.7372342576566705
202,12.017,11.89,-4.34,0.22168765957662606,0.6812625519692208,0.083178255578534,0.7421924110018308,0.17748883932605397,0.7379015175475239
203,12.079,11.94,-4.37,0.22029901589988943,0.6819964146713272,0.08223290846666309,0.7433749525380675,0.175173518424664,0.7386330648692144
204,12.14,12.0,-4.48,0.21889024372382282,0.6827716019426139,0.08126695928792224,0.7445881883879173,0.172839059342071,0.739427306077118
205,12.182,12.05,-4.49,0.21746146138554448,0.6835867746455951,0.08028055025523728,0.7458313827268448,0.17048636066065243,0.7402826066997028
206,12.285,12.11,-4.36,0.21601282292175053,0.6844405619998879,0.0792738644426435,0.7471037715984294,0.168116362684083,0.7411972930545416
207,12.305,12.16,-4.44,0.21454451812328762,0.6853315632681801,0.07824712563564896,0.7484045637259522,0.16573004665826838,0.7421696539668181
208,12.346,12.22,-4.53,0.21305677256339078,0.6862583494604964,0.07720059814544583,0.7497329413348145,0.16332843395446736,0.7431979424892423
209,12.407,12.27,-4.29,0.21154984759857767,0.6872194650532137,0.07613458658615307,0.7510880609848047,0.16091258521433652,0.7442803776224792
210,12.468,12.33,-4.39,0.21002404034117075,0.6882134297194095,0.07504943561428264,0.7524690544113425,0.15848359945666415,0.7454151460354095
211,12.51,12.38,-4.55,0.20847968360240388,0.6892387400673254,0.07394552962964364,0.7538750293749551,0.15604261314560652,0.74660040378478
212,12.611,12.44,-4.35,0.20691714580504472,0.690293871384055,0.0728232924369137,0.755305070518412,0.15359079922030153,0.7478342780339954
213,12.632,12.49,-4.4,0.20533683086443624,0.6913772793818834,0.07168318686714927,0.7567582402310582,0.1511293660857982,0.7491148687709286
214,12.693,12.55,-4.48,0.20373917803681216,0.6924874019450477,0.07052571435854865,0.7582335795199733,0.1486595565652804,0.750440250524784
215,12.754,12.6,-4.4,0.20212466173363852,0.693622660875077,0.06935141449576215,0.7597301088877565,0.14618264681358914,0.7518084740821517
216,12.795,12.66,-4.29,0.20049379130064013,0.6947814636331691,0.06816086450699832,0.7612468292169313,0.14369994519209373,0.7532175682023058
217,12.917,12.71,-4.32,0.1988471107601511,0.6959622050780623,0.066954678718162,0.7627827226610693,0.14121279110502563,0.7546655413316223
218,12.937,12.77,-4.38,0.19718519851546004,0.6971632691977621,0.0657335079632812,0.7643367535428038,0.13872255379747706,0.7561503833168409
219,12.979,12.82,-4.16,0.19550866701587083,0.6983830308335031,0.06449803895050613,0.7659078692590393,0.1362306311153946,0.7576700671167692
220,13.0,12.88,-4.25,0.1938181623812632,0.6996198573944659,0.0632489935830424,0.7674950011938022,0.13373844822806458,0.759222550511908
221,13.06,12.93,-4.41,0.1921143639850186,0.7008721105619078,0.061987128234494045,0.7690970656392498,0.13124745631375187,0.7608057778113747
222,13.141,12.99,-4.18,0.19039798399426847,0.702138147981481,0.06071323297823033,0.7707129647253521,0.1287591312093158,0.7624176815563999
223,13.162,13.04,-4.28,0.18866976686653983,0.7034163249425495,0.05942813077056962,0.7723415873586754,0.12627497202476248,0.7640561842195829
224,13.223,13.1,-4.37,0.18693048880200488,0.7047049960433325,0.05813267658774122,0.7739818101705794,0.12379649972379268,0.7657191998990857
225,13.284,13.15,-4.26,0.18518095715065316,0.7060025168407873,0.05682775651671422,0.7756324984750534,0.1213252556714841,0.7674046360069305
226,13.365,13.21,-4.18,0.18342200977382325,0.7073072454842018,0.055514286800101516,0.777292507236349,0.1188628001503229,0.7691103949504547
227,13.385,13.26,-4.22,0.18165451435967703,0.7086175443313778,0.05419321283548813,0.7789606820463542,0.1164107108458929,0.770834375805815
228,13.446,13.32,-4.31,0.179879367692341,0.7099317815462004,0.052865508129686684,0.7806358601114585,0.11397058130363778,0.7725744759823233
229,13.526,13.37,-4.16,0.1780974948745692,0.711248332676428,0.05153217320858837,0.7823168712485082,0.11154401935825882,0.7743285928762595
230,13.547,13.43,-4.28,0.17630984850391518,0.7125655822105926,0.05019423448349617,0.7840025388893057,0.10913264553747547,0.7760946255126743
231,13.607,13.48,-4.44,0.17451740780253638,0.7138819251129269,0.04885274307506276,0.7856916810929357,0.10673809144200955,0.7778704761736424
232,13.668,13.54,-4.24,0.17272117770088696,0.715195768335236,0.04750877359616782,0.7873831115650597,0.10436199810374569,0.7796540520114384
233,13.73,13.59,-4.4,0.17092218787570782,0.7165055323046147,0.04616342289525657,0.7890756406831864,0.10200601432408182,0.7814432666451562
234,13.791,13.65,-4.54,0.1691214917428667,0.7178096523859533,0.04481780876179455,0.7907680765268612,0.0996717949945002,0.7832360417393575
235,13.832,13.7,-4.42,0.16732016540572694,0.71910658031834,0.04347306859557739,0.7924592259117244,0.09736099940139574,0.7850303085633866
236,13.894,13.76,-4.4,0.165519306559866,0.7203947856245346,0.04213035804171488,0.7941478954264011,0.09507528951719064,0.7868240095299479
237,13.954,13.81,-4.49,0.1637200333551553,0.7216727569925449,0.040790849593202075,0.7958328924710732,0.09281632827974394,0.7886150997115806
238,14.016,13.87,-4.55,0.16192348321641345,0.7229390036281103,0.03945573116308325,0.797513026296472,0.09058577786206812,0.7904015483337741
239,14.099,13.92,-4.45,0.16013081162404144,0.7241920565767082,0.038126204628287585,0.7991871090419943,0.08838529793441002,0.79218134024355
240,14.119,13.98,-4.57,0.15834319085630236,0.7254304700133869,0.036803484347326866,0.8008539567716002,0.08621654392081307,0.7939524773524044
241,14.182,14.03,-4.73,0.15656180869515046,0.7266528224983407,0.035488795654160306,0.8025123905060575,0.0840811652523217,0.7957129800525915
242,14.202,14.09,-4.6,0.15478786709773087,0.7278577181957624,0.03418337333061986,0.8041612372500079,0.08198080361900459,0.7974608886058318
243,14.263,14.14,-4.77,0.1530225808358422,0.7290437880532158,0.03288846005985654,0.8057993310122349,0.07991709122295927,0.7991942645035814
244,14.324,14.2,-4.91,0.15126717610577042,0.7302096909385974,0.031605304863287595,0.8074255138174646,0.07789164903441105,0.8009111917981309
245,14.386,14.25,-4.74,0.14952288911095943,0.7313541147317678,0.030335161523499164,0.8090386367080661,0.07590608505293142,0.8026097784039327
246,14.449,14.31,-4.76,0.14779096462001787,0.7324757773680799,0.029079286995539664,0.8106375607340985,0.07396199257570328,0.8042881573687591
247,14.489,14.36,-4.86,0.14607265450256823,0.7335734278312865,0.027838939809012333,0.8122211579302736,0.0720609484746681,0.8059444881145239
248,14.551,14.42,-4.91,0.14436921624541624,0.7346458470937898,0.02661537846330935,0.8137883122786151,0.07020451148434544,0.8075769576478767
249,14.592,14.47,-4.83,0.1426819114514626,0.7356918490027802,0.02540985981824478,0.8153379206558894,0.06839422050212611,0.8091837817408057
250,14.653,14.53,-4.93,0.14101200432375796,0.7367102811113104,0.024223637482289437,0.8168688937651002,0.06663159290285081,0.8107632060815777
251,14.715,14.58,-5.07,0.13936076013706145,0.7377000254537925,0.023057960200569952,0.8183801570505166,0.0649181228694688,0.812313507396478
252,14.837,14.64,-4.92,0.1377294436991932,0.7386599992658794,0.021914070244731975,0.8198706515959318,0.06325527974153737,0.8138329945429262
253,14.858,14.69,-5.01,0.13611931780440106,0.7395891556491009,0.020793201806710168,0.821339335006059,0.061644506383274074,0.8153200095745412
254,14.878,14.75,-5.17,0.13453164168088938,0.7404864841808318,0.019696579398421746,0.8227851822710757,0.06008721757281225,0.8167729287786696
255,14.92,14.8,-4.94,0.1329676694346127,0.741351011470228,0.018625416259416914,0.8242071866143164,0.05858479841425769,0.8181901636867878
256,15.0,14.86,-5.0,0.13142864849141292,0.7421818016607168,0.01758091277459492,0.825604360322997,0.057138602774098254,0.8195701620580967
257,15.041,14.91,-5.11,0.1299158180395543,0.742977956879764,0.016564254904160088,0.826975735561735,0.05574995174349151,0.8209114088366806
258,15.103,14.97,-5.07,0.12843040747465234,0.7437386176370798,0.015576612627997756,0.8283203651686767,0.05442013212796203,0.8222124270826491
259,15.207,15.02,-5.04,0.1269736348489354,0.7444629631730063,0.014619138406625539,0.8296373234341482,0.05315039496607331,0.8234717788776479
260,15.228,15.08,-5.13,0.12554670532676918,0.7451502117591626,0.013692965660885981,0.8309257068617921,0.05194195407866089,0.8246880662049964
261,15.268,15.13,-5.24,0.12415080964836975,0.7457996209535939,0.012799207272535444,0.8321846349121238,0.0507959846502093,0.8258599318046252
262,15.331,15.19,-5.06,0.12278712260359631,0.7464104878127966,0.01193895410782698,0.8334132507284724,0.049713621843936406,0.8269860600028829
263,15.373,15.24,-5.16,0.1214568015176888,0.746982149062996,0.011113273566116145,0.8346107218452669,0.04869595945211513,0.8280651775171115
264,15.454,15.3,-5.29,0.12016098475081251,0.747513981232855,0.01032320815545287,0.835776240878546,0.047744048583121756,0.8290960542347104
265,15.494,15.35,-5.05,0.11890079021331745,0.7480054007494341,0.009569774097072544,0.8369090261984492,0.046858896386668264,0.8300775039662058
266,15.555,15.41,-5.17,0.11767731389870147,0.7484558639988262,0.008853959960695806,0.8380083225832855,0.04604146481866397,0.831008385171685
267,15.576,15.46,-5.31,0.1164916284363286,0.7488648673526838,0.008176725332560352,0.8390734018546416,0.04529266944715487,0.8318876016598977
268,15.636,15.52,-5.25,0.11534478166596765,0.7492319471619387,0.007538999518101269,0.8401035634929614,0.04461337830079438,0.8327141032592669
269,15.719,15.57,-5.27,0.11423779523621277,0.7495566797191833,0.006941680281174778,0.841098135233048,0.0440044107613027,0.8334868864599063
270,15.761,15.63,-5.36,0.11317166322886167,0.7498386811911288,0.006385632621698908,0.8420564736388609,0.04346653650133399,0.8342049950256141
271,15.822,15.68,-5.43,0.11214735081132776,0.7500776075223903,0.005871687593526525,0.8429779646568963,0.04300047446908062,0.8348675205747309
272,15.926,15.74,-5.26,0.11116579291914797,0.7502731543116177,0.005400641164271924,0.8438620241473734,0.04260689192084922,0.8354736031286715
273,15.946,15.79,-5.35,0.11022789297064053,0.7504250566607288,0.004973253118736567,0.8447080983923935,0.04228640350275637,0.8360224316267896
274,15.988,15.85,-5.49,0.10933452161576614,0.75053308899767,0.004590246007516048,0.8455156645801287,0.04203957038261565,0.836513244406129
275,16.029,15.9,-5.28,0.10848651552124766,0.7505970648728417,0.004252304142305667,0.8462842312640637,0.04186689943305198,0.8369453296445363
276,16.091,15.96,-5.41,0.1076846761940037,0.7506168367290393,0.003960072639370433,0.8470133387962616,0.04176884246686073,0.8373180257655991
277,16.133,16.01,-5.59,0.10692976884495972,0.7505922956445042,0.003714156512589092,0.8477025597336222,0.04174579552559935,0.8376307218039765
278,16.195,16.07,-5.51,0.10622252129527979,0.7505233710485143,0.0035151198174233978,0.848351499216113,0.041798098222356514,0.8378828577298469
279,16.318,16.12,-5.54,0.1055636229270372,0.7504100304088291,0.0033634848471131885,0.8489597953159377,0.04192603313956182,0.8380739247313378
280,16.338,16.18,-5.6,0.10495372368029215,0.7502522788902193,0.003259731382360461,0.8495271193565541,0.042129825282582335,0.838203465454011
281,16.379,16.23,-5.62,0.10439343309841546,0.750050158983391,0.003204295995649676,0.8500531762004668,0.04240964158969244,0.8382710741967151
282,16.399,16.29,-5.49,0.10388331942332533,0.7498037501037865,0.0031975714111826194,0.8505377045048342,0.04276559049886485,0.8382763970632656
283,16.481,16.34,-5.59,0.10342390874217584,0.7495131681597782,0.0032399059212486815,0.8509804769440333,0.0431977215717251,0.8382191320695151
284,16.543,16.4,-5.7,0.10301568418696162,0.7491785650896748,0.0033316028597182466,0.851381300398381,0.04370602517493731,0.8380990292055577
285,16.585,16.45,-5.5,0.10265908518844484,0.7488001283669025,0.0034729201332315864,0.8517400161083416,0.044290432219239034,0.837915890453028
286,16.668,16.51,-5.62,0.10235450678573582,0.7483780804727505,0.0036640698105510267,0.8520564997936848,0.04495081395630633,0.8376695697576588
287,16.688,16.56,-5.81,0.10210229899276435,0.7479126783361867,0.003905217770454513,0.8523306617371932,0.0456869818335621,0.8373599729574189
288,16.729,16.62,-5.63,0.1019027662227524,0.7474042127404558,0.004196483408453981,0.8525624468326654,0.04649868740697366,0.8369870576666505
289,16.811,16.67,-5.63,0.10175616677166609,0.7468530076964044,0.004537939402539081,0.8527518345970675,0.04738562231179077,0.8365508331166772
290,16.872,16.73,-5.69,0.1016627123614665,0.7462594197827348,0.004929611538048384,0.8528988391467813,0.048347418291047495,0.8360513599534678
291,16.913,16.78,-5.63,0.10162256774376316,0.7456238374538212,0.005371478591608208,0.8530035091380476,0.049383647281530794,0.8354887499930654
292,16.976,16.84,-5.55,0.10163585036423767,0.7449466803162148,0.005863472273899325,0.8530659276718647,0.05049382155685288,0.8348631659354707
293,17.039,16.89,-5.6,0.10170263008802047,0.7442283983753221,0.006405477230880774,0.8530862121636884,0.051677393927253165,0.834174821037581
294,17.08,16.95,-5.69,0.10182292898605931,0.7434694712539863,0.006997331103010924,0.8530645141782995,0.0529337579957618,0.8334239787457219
295,17.141,17.0,-5.51,0.10199672118237182,0.7426704073849457,0.007638824641921951,0.8530010192302914,0.05426224847037444,0.8326109522882628
296,17.202,17.06,-5.64,0.10222393276193475,0.7418317431793249,0.008329701883939689,0.8528959465506631,0.05566214153188416,0.8317361042287574
297,17.242,17.11,-5.79,0.10250444173882331,0.7409540421733883,0.009069660379768476,0.8527495488200388,0.05713265525698949,0.830799845980068
298,17.304,17.17,-5.53,0.10283807808409212,0.740037894155712,0.009858351479552285,0.852562111869068,0.058672950096236645,0.8298026372799423
299,17.406,17.22,-5.57,0.10322462381279415,0.7390839142767572,0.010695380672422141,0.852333954346604,0.06028212940627035,0.8287449856285325
300,17.426,17.28,-5.67,0.10366381312943142,0.7380927421426752,0.011580307979519025,0.8520654273563056,0.06195924003577193,0.8276274456883668
301,17.446,17.33,-5.57,0.1041553326310204,0.7370650408952185,0.01251264839936864,0.8517569140625086,0.0637032729643993,0.8264506186472824
302,17.509,17.39,-5.54,0.10469882156687982,0.7360014962797253,0.013491872404390814,0.8514088292664959,0.06551316399402907,0.8252151515447113
303,17.611,17.44,-5.59,0.1052938721542337,0.7349028157030518,0.014517406487291709,0.85102161895451,0.06738779449160322,0.8239217365616219
304,17.632,17.5,-5.67,0.10594002994872587,0.7337697272831368,0.015588633756075738,0.8505957598189537,0.0693259921828564,0.8225711102743987
305,17.672,17.55,-5.54,0.10663679426893595,0.7326029788916782,0.016704894576404575,0.8501317587542163,0.07132653199617174,0.8211640528729255
306,17.773,17.61,-5.62,0.10738361867397453,0.731403337191211,0.017865487260050845,0.8496301523284727,0.07338813695576792,0.819701387343076
307,17.794,17.66,-5.72,0.10817991149320393,0.7301715866676943,0.01906966879820181,0.849091506232643,0.07550947912334895,0.8181839786137378
308,17.836,17.72,-5.47,0.10902503640706133,0.7289085286596271,0.020316655638336255,0.8485164147075704,0.07768918058725693,0.8166127326684246
309,17.896,17.77,-5.56,0.10991831307787227,0.7276149803846644,0.02160562450334716,0.847905499950392,0.07992581449808277,0.8149885956214601
310,17.958,17.83,-5.7,0.11085901782945434,0.7262917739647592,0.0229357132515309,0.8472594115010111,0.08221790614962081,0.8133125527587584
311,18.02,17.88,-5.57,0.11184638437421772,0.7249397554510328,0.024306021776028135,0.8465788256096075,0.08456393410400435,0.8115856275433146
312,18.144,17.94,-5.56,0.11287960458642353,0.7235597838497001,0.02571561294230184,0.8458644445860809,0.08696233135983153,0.8098088805856644
313,18.165,17.99,-5.66,0.11395782932026295,0.7221527301502496,0.027163513562285035,0.8451169961321964,0.08941148656202534,0.807983408579814
314,18.185,18.05,-5.72,0.11508016927140667,0.7207194763568576,0.02864871540382862,0.844337232657041,0.09190974525208297,0.8061103432054793
315,18.227,18.1,-5.56,0.11624569588062998,0.7192609145238197,0.030170176234032235,0.8435259305763199,0.09445541115727046,0.8041908499977217
316,18.308,18.16,-5.61,0.11745344227806084,0.7177779457955902,0.031726820894987025,0.8426838895959311,0.09704674751721507,0.8022261271853026
317,18.351,18.21,-5.68,0.11870240426653349,0.7162714794518318,0.033317542410400004,0.8418119319801609,0.09968197844621816,0.8002174044993239
318,18.391,18.27,-5.43,0.11999154134246495,0.7147424319576638,0.03494120312151024,0.8409109018047841,0.10235929032951242,0.7981659419539927
319,18.454,18.32,-5.52,0.12131977775264673,0.7131917260190254,0.03659663585067463,0.8399816641952664,0.10507683325161798,0.7960730286015326
320,18.496,18.38,-5.64,0.12268600358535053,0.7116202896428042,0.03828264509099031,0.8390251045502213,0.10783272245493368,0.7939399812634156
321,18.558,18.43,-5.43,0.12408907589415291,0.7100290552012921,0.039998008220309654,0.8380421277502943,0.11062503982669525,0.79176814324019
322,18.641,18.49,-5.44,0.12552781985286518,0.7084189585006154,0.04174147673799892,0.8370336573527113,0.11345183541242858,0.7895588830022433
323,18.661,18.54,-5.51,0.1270010299398976,0.7067909378530235,0.04351177752278167,0.8360006347718237,0.11631112895399637,0.7873135928639512
324,18.722,18.6,-5.43,0.1285074711502386,0.7051459331533778,0.04530761410991935,0.8349440184462048,0.11920091145029525,0.7850336876437665
325,18.785,18.65,-5.28,0.13004588023304903,0.703484884960701,0.04712766798583805,0.8338647829932135,0.12211914673863675,0.7827206033127703
326,18.887,18.71,-5.28,0.13161496695272032,0.7018087335860429,0.04897059989817024,0.8327639183523011,0.1250637730948392,0.7803757956341018
327,18.908,18.76,-5.34,0.13321341537113165,0.7001184181882135,0.05083505117904798,0.8316424289186938,0.12803270485007096,0.7780007387956084
328,18.97,18.82,-5.1,0.1348398851487427,0.6984148758792602,0.05271964507937791,0.8305013326694182,0.13102383402254067,0.7755969240379652
329,18.991,18.87,-5.15,0.13649301286209503,0.6966990408418076,0.054622988111778625,0.8293416602838467,0.13403503196221994,0.7731658582803913
330,19.073,18.93,-5.29,0.13817141333526956,0.6949718434605043,0.05654367139985376,0.828164454261006,0.13706415100687158,0.7707090627459656
331,19.155,18.98,-5.05,0.13987368098283173,0.6932342094698609,0.05848027203149031,0.8269707680359092,0.14010902614773918,0.7682280715884181
332,19.176,19.04,-5.1,0.14159839116180914,0.6914870591207393,0.060431354413922486,0.8257616650971025,0.14316747670330604,0.7657244305221359
333,19.237,19.09,-5.15,0.1433441015302477,0.6897313063677915,0.06239547162838356,0.8245382181075135,0.14623730799955748,0.7631996954570501
334,19.279,19.15,-5.02,0.14510935340986447,0.6879678580803241,0.06437116678226651,0.8233015080305839,0.14931631305518875,0.760655431139987
335,19.34,19.2,-4.93,0.14689267315031593,0.6861976132792088,0.06635697435683749,0.8220526232635488,0.15240227427022116,0.7580932098039306
336,19.383,19.26,-4.93,0.14869257349268264,0.6844214624023067,0.06835142154871163,0.8207926587795247,0.15549296511652796,0.7555146098264922
337,19.444,19.31,-4.96,0.15050755492990314,0.6826402866005639,0.07035302960344243,0.8195227152798862,0.15858615182883098,0.7529212143988053
338,19.506,19.37,-4.76,0.15233610706205195,0.6808549570665785,0.0723603151397068,0.8182438983582837,0.1616795950948189,0.7503146102059345
339,19.588,19.42,-4.84,0.15417670994455357,0.6790663343970306,0.07437179146271562,0.8169573176774799,0.16477105174314458,0.7476963861196861
340,19.609,19.48,-4.99,0.15602783542762547,0.6772752679899205,0.07638596986562289,0.8156640861599396,0.1678582764281507,0.7450681319044561
341,19.671,19.53,-4.71,0.15788794848541038,0.6754825954771531,0.078401360917816,0.8143653191928992,0.17093902331024924,0.7424314369364499
342,19.731,19.59,-4.78,0.1597555085333983,0.6736891421926038,0.08041647573904943,0.8130621338484386,0.17401104773092166,0.7397878889363292
343,19.792,19.64,-4.88,0.16162897073283078,0.6718957206755026,0.08242982725844998,0.8117556481189034,0.177072107881319,0.7371390727151832
344,19.812,19.7,-4.73,0.163506787280849,0.6701031302088258,0.08443993145748295,0.8104469801679003,0.18011996646345188,0.7344865689336633
345,19.874,19.75,-4.69,0.16538740868523313,0.6683121563922839,0.0864453085960906,0.8091372475969304,0.18315239234299102,0.731831952874095
346,19.976,19.81,-4.79,0.16726928502271932,0.6665235707492561,0.08844448442138035,0.807827566727449,0.18616716219272494,0.7291767932254628
347,19.997,19.86,-4.82,0.16915086718000522,0.6647381303667772,0.09043599135838086,0.8065190518979221,0.18916206212574296,0.7265226508813573
348,20.037,19.92,-4.7,0.17103060807665563,0.66295657756751,0.09241836968243856,0.8052128147753963,0.1921348893174295,0.7238710777511954
349,20.1,19.97,-4.8,0.17290696386921625,0.6611796396124711,0.09439016867285756,0.8039099636811092,0.19508345361534934,0.7212236155853107
350,20.18,20.03,-4.86,0.1747783951359193,0.6594080284331434,0.09634994774737994,0.8026116029297187,0.19800557913605932,0.718581794814878
351,20.201,20.08,-4.59,0.17664336804139757,0.6576424403915428,0.09829627757706974,0.8013188321818377,0.20089910584781764,0.7159471334079736
352,20.261,20.14,-4.66,0.1785003554808465,0.6558835560667481,0.10022774118111172,0.8000327458096596,0.20376189113810872,0.7133211357432663
353,20.362,20.19,-4.77,0.18034783820310046,0.6541320400663416,0.10214293500100367,0.7987544322755307,0.20659181136486846,0.7107052915029535
354,20.383,20.25,-4.53,0.18218430591214602,0.6523885408611897,0.10404046995362341,0.797484973523376,0.20938676339031453,0.7081010745865901
355,20.424,20.3,-4.52,0.18400825834667245,0.6506536906420636,0.10591897246272244,0.7962254443828697,0.21214466609634033,0.705509942047465
356,20.485,20.36,-4.6,0.18581820633731566,0.6489281051968159,0.10777708546848415,0.7949769119862743,0.21486346188049094,0.7029333330532175
357,20.569,20.41,-4.55,0.1876126728412308,0.6472123838072923,0.10961346941480304,0.7937404351980233,0.21754111813159963,0.7003726678723813
358,20.589,20.47,-4.48,0.18939019395358084,0.6455071091656686,0.11142680321391776,0.7925170640573521,0.22017562868423776,0.6978293468883905
359,20.712,20.52,-4.5,0.1911493198955044,0.6438128473102388,0.1132157851880168,0.7913078392344218,0.222765015251196,0.6953047496423349
360,20.734,20.58,-4.55,0.19288861597810333,0.6421301475809066,0.11497913398740346,0.7901137915004628,0.22530732883324522,0.6928002339055873
361,20.754,20.63,-4.3,0.19460666354196957,0.6404595425948623,0.11671558948475876,0.7889359412125808,0.22780065110544498,0.6903171347832688
362,20.815,20.69,-4.38,0.1963020608717744,0.638801548243117,0.11842391364501421,0.7877752978139383,0.2302430957792922,0.6878567638493671
363,20.876,20.74,-4.49,0.19797342408549912,0.6371566637086082,0.12010289137037745,0.7866328593499814,0.23263280994005187,0.6854204083141991
364,20.939,20.8,-4.22,0.1996193879979763,0.6355253715065138,0.12175133132013863,0.7855096120012633,0.2349679753586872,0.6830093302248097
365,20.979,20.85,-4.3,0.20123860695855225,0.6339081375471979,0.12336806670502676,0.7844065296332194,0.23724680977789428,0.6806247656988135
366,21.083,20.91,-4.42,0.2028297556628231,0.6323054112220046,0.12495195605602859,0.7833245733630725,0.23946756817181108,0.6782679241921747
367,21.102,20.96,-4.33,0.20439152993851012,0.6307176255119842,0.12650188396769474,0.7822646911439283,0.24162854397902425,0.6759399878013732
368,21.205,21.02,-4.29,0.2059226475056522,0.629145197119476,0.12801676181605495,0.7812278173660022,0.24372807030854254,0.6736421106002503
369,21.225,21.07,-4.3,0.2074218487114105,0.6275885266221608,0.12949552845137086,0.7802148724746908,0.24576452111840966,0.6713754180116337
370,21.246,21.13,-4.33,0.208887897239865,0.6260479986488932,0.13093715086601668,0.7792267626049865,0.24773631236660779,0.6691410062136711
371,21.307,21.18,-4.14,0.21031958079723878,0.6245239820764201,0.13234062483781217,0.7782643792315993,0.249641903133898,0.6669399415805924
372,21.368,21.24,-4.23,0.21171571177307383,0.6230168302458798,0.13370497554919258,0.7773285988339934,0.25147979671826937,0.6647732601573756
373,21.45,21.29,-4.35,0.213075127877985,0.6215268811977208,0.13502925818269082,0.7764202825753523,0.2532485417007175,0.6626419671675813
374,21.51,21.35,-4.12,0.21439669275871237,0.6200544579234687,0.13631255849328336,0.7755402759943343,0.2549467329821288,0.66054703655347
375,21.531,21.4,-4.25,0.21567929659125673,0.6185998686325976,0.13755399335819268,0.7746894087083642,0.2565730127910858,0.6584894105474353
376,21.592,21.46,-4.41,0.21692185665290642,0.6171634070327047,0.13875271130474456,0.7738684941271655,0.25812607166241924,0.6564699992738124
377,21.653,21.51,-4.27,0.21812331787394526,0.6157453526212384,0.13990789301684312,0.7730783291752665,0.2596046493863099,0.654489680380203
378,21.693,21.57,-4.26,0.2192826533698078,0.6143459709871106,0.1410187518205918,0.772319694022268,0.26100753592769793,0.6525492986975113
379,21.755,21.62,-4.32,0.22039886495441183,0.6129655141205606,0.14208453414951056,0.7715933518196824,0.2623335723156692,0.6506496659280057
380,21.835,21.68,-4.33,0.22147098363531062,0.6116042207298188,0.14310451998963764,0.7709000484433506,0.2635816515023864,0.6487915603608803
381,21.855,21.73,-4.2,0.22249807009119324,0.6102623165633908,0.14407802330458214,0.7702405122407197,0.26475071919107085,0.6469757266149166
382,21.917,21.79,-4.28,0.22347921513219915,0.6089400147369705,0.14500439244042762,0.7696154537825247,0.2658397746325112,0.6452028754079743
383,21.96,21.84,-4.38,0.22441354014347706,0.6076375160641241,0.145883010510294,0.7690255656185797,0.2668478713895538,0.6434736833532422
384,22.022,21.9,-4.17,0.22530019751238364,0.6063550093900798,0.14671329575830164,0.7684715220375199,0.2677741180690172,0.6417887927823852
385,22.084,21.95,-4.28,0.2261383710396543,0.6050926719282205,0.14749470190264274,0.7679539788304601,0.2686176790204484,0.64014881159587
386,22.188,22.01,-4.43,0.22692727633479184,0.6038506695992027,0.1482267184574281,0.7674735730586401,0.2693777750011027,0.6385543131408778
387,22.208,22.06,-4.16,0.22766616119579475,0.6026291573730075,0.14890887103292347,0.7670309228252334,0.27005368380648437,0.6370058361172914
388,22.249,22.12,-4.17,0.22835430597322212,0.6014282796145471,0.1495407216137347,0.7666266270515931,0.2706447408657418,0.6355038845122617
389,22.31,22.17,-4.22,0.22899102391846674,0.6002481704337203,0.15012186881444084,0.766261265258301,0.27115033980116965,0.6340489275638771
390,22.373,22.23,-4.12,0.22957566151597447,0.5990889540410965,0.15065194811209273,0.7659353973515601,0.27156993295106524,0.6326413997543934
391,22.415,22.28,-4.03,0.23010759879905646,0.5979507451106727,0.1511306320549556,0.7656495634156187,0.27190303185524833,0.6312817008332677
392,22.475,22.34,-4.07,0.2305862496489305,0.5968336491511526,0.15155763044692358,0.7654042835118676,0.27214920770264595,0.6299701958699548
393,22.537,22.39,-4.16,0.23101106207664657,0.5957377628870749,0.1519326905071164,0.7652000574851235,0.27230809174043613,0.6287072153362033
394,22.579,22.45,-3.99,0.23138151848757524,0.5946631746509826,0.1522555970042192,0.7650373647774964,0.2723793756443334,0.6274930552173816
395,22.62,22.5,-4.11,0.23169713592817,0.5936099647876236,0.15252617236518462,0.7649166642501681,0.2723628118496705,0.6263279771521708
396,22.682,22.56,-4.24,0.23195746631475953,0.5925782060709011,0.1527442767579551,0.7648383940133273,0.27225821384295584,0.6252122085998167
397,22.742,22.61,-3.93,0.23216209664416076,0.5915679641339281,0.1529098081478791,0.7648029712644434,0.27206545641357316,0.6241459430340257
398,22.803,22.67,-3.99,0.23231064918592997,0.5905792979122008,0.153022702327521,0.7648107921349933,0.2717844758652592,0.6231293401625145
399,22.865,22.72,-4.1,0.23240278165607076,0.589612260099684,0.1530829329195926,0.76486223154566,0.271415270186966,0.6221625261712146
400,22.927,22.78,-3.97,0.2324381873720131,0.5886668976175592,0.15309051135277382,0.7649576430699827,0.27095789918273866,0.621245593992087
401,22.989,22.83,-3.94,0.23241659538871953,0.5877432520952982,0.15304548681028732,0.765097358806341,0.27041248456031164,0.620378603593365
402,23.009,22.89,-4.0,0.23233777061588445,0.5868413603633728,0.1529479461512354,0.7652816892579452,0.2697792099782057,0.6195615822909221
403,23.071,22.94,-4.06,0.23220151391631635,0.585961254956422,0.1527980138048023,0.7655109232202887,0.2690583210511521,0.6187945250794465
404,23.112,23.0,-3.94,0.23200766218568858,0.5851029646252448,0.15259585163744144,0.765785327675434,0.2682501253137167,0.618077394982094
405,23.175,23.05,-4.06,0.23175608841393702,0.5842665148555898,0.15234165879314795,0.7661051476924755,0.26735499214201686,0.6174101234172596
406,23.297,23.11,-4.16,0.2314467017286344,0.5834519283913878,0.15203567150688213,0.7664706063335117,0.26637335263341677,0.6167926105811316
407,23.318,23.16,-3.89,0.23107944742067366,0.5826592257598204,0.1516781628911583,0.7668819045644703,0.2653056994440494,0.6162247258447401
408,23.359,23.22,-3.98,0.23065430695256825,0.5818884257953748,0.15126944269577416,0.767339221170105,0.26415258658396995,0.6157063081642836
409,23.401,23.27,-4.12,0.2301712979496476,0.581139546159863,0.15080985704064628,0.7678427126724146,0.26291462916972236,0.6152371665036528
410,23.462,23.33,-3.94,0.22963047417440596,0.5804126038553692,0.15029978812174347,0.7683925132516938,0.2615925031341099,0.6148170802682208
411,23.524,23.38,-3.94,0.2290319254842731,0.5797076157271676,0.14973965389019023,0.7689887346693605,0.2601869448930063,0.6144457997491279
412,23.585,23.44,-4.04,0.22837577777309662,0.5790245989537512,0.14912990770471915,0.769631466191602,0.25869875096908196,0.6141230465775434
413,23.647,23.49,-4.05,0.22766219289659093,0.5783635715213268,0.14847103795770694,0.7703207745128426,0.25712877757233266,0.6138485141886936
414,23.667,23.55,-3.97,0.22689136858191508,0.5777245526804468,0.14776356767503876,0.7710567036780559,0.2554779401373361,0.6136218682956316
415,23.727,23.6,-4.04,0.2260635383214407,0.5771075633827671,0.14700805409004264,0.7718392750029939,0.2537472128171709,0.6134427473728291
416,23.788,23.66,-4.11,0.22517897125063344,0.576512626696297,0.14620508819169545,0.7726684869915103,0.251937627933922,0.6133107631497615
417,23.83,23.71,-3.84,0.22423797200979748,0.575939768197995,0.14535529424720514,0.7735443152494246,0.2500502753856742,0.6132255011147102
418,23.891,23.77,-3.91,0.2232408805892515,0.575389016343037,0.14445932929895192,0.7744667123946914,0.2480863020098918,0.6131865210289377
419,23.953,23.82,-4.04,0.22218807215735753,0.5748604028104356,0.14351788263566878,0.775435607963945,0.24604691090311448,0.613193357451304
420,24.014,23.88,-3.76,0.2210799568707375,0.5743539628249884,0.14253167523767787,0.7764509083157252,0.24393336069699095,0.6132455202732631
421,24.097,23.93,-3.84,0.2199169796659967,0.5738697354557774,0.14150145919601745,0.7775124965308706,0.24174696479079708,0.6133424952640869
422,24.116,23.99,-3.95,0.21869962003228427,0.5734077638917657,0.14042801710535915,0.7786202323106628,0.2394890905407097,0.6134837446261545
423,24.179,24.04,-3.88,0.2174283917639978,0.572968095695544,0.13931216143066857,0.7797739518734675,0.23716115840622182,0.6136687075601331
424,24.259,24.1,-3.86,0.2161038426929189,0.572550783036743,0.13815473384763075,0.7809734678507303,0.2347646410541934,0.6138968008397603
425,24.28,24.15,-3.93,0.21472655439911917,0.5721558829067325,0.13695660455696174,0.7822185691831344,0.23230106242110513,0.6141674193957743
426,24.36,24.21,-3.99,0.21329714190007645,0.5717834573158781,0.13571867157281253,0.7835090210175775,0.22977199673411655,0.6144799369084254
427,24.401,24.26,-3.77,0.21181625331759565,0.5714335734739556,0.13444185998551794,0.7848445646054907,0.2271790674915507,0.6148337064078465
428,24.441,24.32,-3.86,0.210284569522311,0.5711063039534918,0.13312712119898837,0.786224917202903,0.22452394640345724,0.6152280608813685
429,24.503,24.37,-4.0,0.20870280375571226,0.5708017268351726,0.1317754321430911,0.7876497719725438,0.22180835229294965,0.6156623138866769
430,24.563,24.43,-3.75,0.20707170122974947,0.5705199258342104,0.13038779446142404,0.7891187978882447,0.2190340499590891,0.6161357601695509
431,24.626,24.48,-3.88,0.20539203870416464,0.5702609904065745,0.1289652336749699,0.7906316396418901,0.21620284900218226,0.6166476762847953
432,24.668,24.54,-4.04,0.203664624041758,0.5700250158341376,0.12750879832221254,0.7921879175532023,0.21331660261244248,0.6171973212190002
433,24.75,24.59,-3.97,0.20189029574183917,0.5698121032880382,0.12601955907638704,0.7937872274827191,0.2103772063230313,0.6177839370138294
434,24.77,24.65,-3.99,0.2000699224521805,0.5696223598696981,0.1244986078406393,0.7954291407483904,0.20738659672854218,0.6184067493886342
435,24.832,24.7,-4.11,0.198204402459886,0.5694558986288035,0.12294705682200116,0.7971132040461031,0.20434675016997597,0.6190649683613387
436,24.892,24.76,-4.14,0.19629466316165498,0.5693128385573077,0.12136603758515367,0.7988389393743442,0.20125968138720887,0.6197577888667803
437,24.953,24.81,-3.98,0.19434166051394286,0.569193304558275,0.11975670008695916,0.8006058439631425,0.19812744213988517,0.6204843913718462
438,24.995,24.87,-4.08,0.19234637846352848,0.5690974273881992,0.11812021169272566,0.80241339020741,0.19495211979762048,0.6212439424868499
439,25.037,24.92,-4.19,0.19030982835902294,0.5690253435712672,0.11645775617515666,0.8042610256047928,0.19173583590037438,0.6220355955727013
440,25.12,24.98,-3.97,0.188233048343903,0.5689771952839245,0.11477053269695017,0.8061481726981562,0.18848074468986456,0.6228584913435514
441,25.161,25.03,-4.11,0.1861171027317278,0.5689531302079579,0.1130597547780722,0.8080742290227829,0.1851890316129439,0.6237117584647165
442,25.222,25.09,-4.29,0.18396308136427192,0.5689533013502248,0.11132664924881756,0.8100385670582461,0.18186291179791192,0.624594514145822
443,25.264,25.14,-4.14,0.18177209895333327,0.568977866827271,0.109572455189859,0.8120405341847454,0.1785046285047663,0.6255058647292335
444,25.326,25.2,-4.2,0.17954529440696765,0.569026989613338,0.10779842286057481,0.8140794526435462,0.17511645155041444,0.6264449062739516
445,25.388,25.25,-4.32,0.17728383014084387,0.5691008372506365,0.10600581261698744,0.8161546195010804,0.17170067570983474,0.6274107251353168
446,25.49,25.31,-4.29,0.17498889137528076,0.5691995815213178,0.10419589382059143,0.8182653066164063,0.16825961909412307,0.6284023985410464
447,25.511,25.36,-4.18,0.17266168541833996,0.5693233980811954,0.10236994373922217,0.8204107606119934,0.16479562150632435,0.6294189951641519
448,25.552,25.42,-4.23,0.17030344093520053,0.5694724660557703,0.10052924644098962,0.8225902028480356,0.16131104277592556,0.6304595756932632
449,25.615,25.47,-4.32,0.16791540720392628,0.5696469675995056,0.09867509168219633,0.8248028294007109,0.15780826107289078,0.6315231934008994
450,25.676,25.53,-4.13,0.16549885335765094,0.5698470874197209,0.09680877379006732,0.8270478110450858,0.1542896712021634,0.632608894710268
451,25.696,25.58,-4.23,0.16305506761317803,0.5700730122667513,0.09493159054108333,0.8293242932436102,0.150757682879647,0.6337157197611888
452,25.759,25.64,-4.4,0.16058535648601927,0.5703249303920584,0.09304484203571232,0.831631396141345,0.14721471899076372,0.6348427029757431
453,25.881,25.69,-4.2,0.15809104399194812,0.5706030309758635,0.09114982957034846,0.8339682145692107,0.1436632138327717,0.6359888736242342
454,25.902,25.75,-4.32,0.15557347083519996,0.5709075035257913,0.08924785450729396,0.8363338180566625,0.14010561134208235,0.6371532563919852
455,25.922,25.8,-4.43,0.1530339935834557,0.5712385372481236,0.08734021714364781,0.8387272508552859,0.1365443633078437,0.6383348719474875
456,25.984,25.86,-4.33,0.15047398382971527,0.5715963203935733,0.08542821557995976,0.8411475319749196,0.1329819275730586,0.6395327375123706
457,26.026,25.91,-4.27,0.14789482734113565,0.5719810395797489,0.08351314458951853,0.8435936552339927,0.12942076622451532,0.640745867433505
458,26.088,25.97,-4.32,0.14529792319495138,0.5723928790924844,0.08159629448919682,0.8460645893256672,0.12586334377282005,0.6419732737573571
459,26.149,26.02,-4.39,0.14268468290166672,0.5728320201681392,0.07967895001283952,0.8485592779012697,0.12231212532385596,0.643213966806563
460,26.209,26.08,-4.23,0.1400565295158005,0.5732986402589613,0.07776238918824808,0.8510766396724413,0.11876957474308072,0.6444669557585154
461,26.27,26.13,-4.36,0.1374148967345953,0.5737929122835866,0.07584788221890691,0.8536155685334241,0.11523815281418527,0.6457312492255813
462,26.312,26.19,-4.52,0.13476122798525916,0.5743150038646472,0.07393669037169728,0.8561749337048622,0.11172031539374028,0.647005855836425
463,26.373,26.24,-4.32,0.13209697550142904,0.5748650765553349,0.07203006487192082,0.8587535799004702,0.10821851156353354,0.6482897848177982
464,26.434,26.3,-4.48,0.12942359938964731,0.5754432850566175,0.07012924580700221,0.8613503275178781,0.10473518178235328,0.649582046576061
465,26.496,26.35,-4.68,0.12674256668669268,0.576049776426668,0.06823546104026258,0.8639639728548825,0.10127275603897638,0.6508816532776903
466,26.537,26.41,-4.57,0.12405535040863196,0.5766846892840336,0.06634992513614213,0.8665932883522951,0.097833652008099,0.652187619428044
467,26.598,26.46,-4.55,0.12136342859247679,0.577348153006006,0.06447383829826515,0.8692370228644112,0.09442027321090443,0.6534989624476439
468,26.661,26.52,-4.62,0.11866828333136456,0.578040286923489,0.06260838532179164,0.871893901957807,0.09103500718188168,0.6548147032453012
469,26.702,26.57,-4.68,0.11597139980419797,0.5787611995135239,0.06075473456154726,0.8745626282388432,0.08768022364343994,0.656133866787558
470,26.763,26.63,-4.55,0.11327426530069672,0.5795109875906034,0.0589140369174511,0.8772418817100668,0.08435827268984353,0.6574554826640528
471,26.845,26.68,-4.67,0.11057836824287445,0.5802897354978541,0.057087424838803066,0.87993032015559,0.0810714829820235,0.6587785856485437
472,26.866,26.74,-4.8,0.1078851972040405,0.5810975142990261,0.05527601134905251,0.8826265795553963,0.0778221599548555,0.6601022162555013
473,26.987,26.79,-4.63,0.1051962399265113,0.581934380971991,0.053480889092724984,0.8853292745283668,0.07461258403852765,0.6614254212923587
474,27.007,26.85,-4.78,0.10251298233930571,0.5828003776041457,0.05170312940622189,0.8880369988036251,0.07144500889564184,0.6627472544076247
475,27.028,26.9,-4.99,0.09983690757715011,0.5836955305898754,0.0499437814142231,0.8907483257196199,0.06832165967568615,0.6640667766351556
476,27.089,26.96,-4.88,0.09716949500212252,0.5846198498302113,0.04820387115337904,0.8934618087502965,0.06524473128848648,0.6653830569349317
477,27.15,27.01,-4.9,0.09451221922922656,0.5855733279349528,0.04648440072492873,0.8961759820577222,0.06221638669817956,0.6666951727306903
478,27.191,27.07,-4.98,0.09186654915710872,0.5865559394277131,0.04478634747779988,0.8988893610705575,0.059238755239145686,0.6680022104448167
479,27.253,27.12,-4.96,0.08923394700499361,0.5875676399546549,0.043110663223614724,0.9016004430879033,0.056313930955222795,0.6693032660309851
480,27.336,27.18,-4.88,0.08661586735676727,0.5886083654979978,0.04145827348485447,0.9043077079082168,0.05344397096346195,0.670597445505058
481,27.356,27.23,-4.95,0.08401375621305765,0.5896780315955898,0.03983007677732442,0.9070096184830851,0.050630893843672566,0.6718838654747599
482,27.419,27.29,-5.04,0.08142905005211916,0.5907765325680102,0.03822694392796032,0.9097046215957488,0.04787667805502278,0.6731616536687219
483,27.461,27.34,-4.84,0.07886317490027683,0.5919037407549778,0.03664971742890852,0.9123911485644711,0.045183260381014355,0.6744299494655529
484,27.524,27.4,-4.97,0.07631754541262575,0.5930595057632073,0.03509921082869574,0.9150676159711125,0.04255253440419448,0.6756879044235804
485,27.606,27.45,-5.16,0.07379356396459175,0.5942436537282295,0.03357620816118316,0.9177324264154975,0.03998634901202437,0.676934682811813
486,27.627,27.51,-5.0,0.0712926197548625,0.595455986593051,0.03208146341286751,0.9203839692963962,0.03748650693535968,0.6781694621425001
487,27.69,27.56,-5.13,0.06881608792010258,0.5966962814068183,0.03061570002899062,0.9230206216201213,0.03505476332101892,0.679391433705451
488,27.752,27.62,-5.23,0.06636532866175678,0.5979642896469141,0.029179610458806914,0.9256407488378764,0.03269282433988069,0.6805998031041517
489,27.813,27.67,-5.14,0.06394168638510724,0.5992597365682403,0.027773855740228302,0.9282427057131253,0.030402345831870636,0.6817937907936247
490,27.875,27.73,-5.08,0.06154648885063317,0.6005823205836809,0.026399065123941,0.9308248372203125,0.028184931989128463,0.682972632619808
491,27.916,27.78,-5.13,0.05918104633769731,0.6019317126796278,0.025055835737021786,0.933385479476111,0.02604213407858503,0.6841355803600357
492,27.997,27.84,-5.22,0.05684665082064004,0.6033075558701222,0.023744732286071515,0.9359229607041049,0.023975449205160038,0.6852819022640609
493,28.059,27.89,-5.06,0.05454457515745524,0.6047094646928233,0.02246628679990771,0.9384356022335522,0.02198631911683645,0.6864108835949517
494,28.08,27.95,-5.18,0.05227607229135184,0.6061370247497276,0.021220998411918827,0.9409217195326302,0.020076129052932795,0.6875218271690979
495,28.141,28.0,-5.35,0.0500423744656226,0.6075897922953791,0.02000933318224803,0.9433796232763971,0.01824620663694942,0.6886140538945149
496,28.182,28.06,-5.16,0.04784469245231197,0.6090672938752165,0.018831723959984458,0.9458076204496038,0.016497820815390543,0.6896869033065562
497,28.244,28.11,-5.3,0.04568421479523326,0.6105690260166559,0.01768857028549991,0.948204015484452,0.014832180843960882,0.690739734100057
498,28.306,28.17,-5.5,0.04356210706789056,0.6120944549755103,0.016580238332989553,0.9505671114333969,0.01325043532249644,0.6917719246568603
499,28.367,28.22,-5.41,0.041479511146823696,0.6136430165404628,0.015507060893139578,0.9528952111771457,0.011753671279923347,0.6927828735675966
500,28.428,28.28,-5.39,0.03943754450084944,0.6152141158983336,0.01446933739572043,0.9551866186680175,0.01034291331044777,0.6937720001464193
501,28.47,28.33,-5.45,0.037437299496667825,0.6168071275626319,0.01346733397180664,0.9574396402086527,0.009019122762068794,0.6947387449372926
502,28.51,28.39,-5.5,0.0354798427213138,0.6184213953674322,0.012501283555232678,0.9596525857657997,0.00778319697837891,0.6956825702104055
503,28.57,28.44,-5.36,0.03356621432197272,0.6200562325281329,0.01157138602282291,0.9618237703186444,0.006635968594548466,0.6966029604473114
504,28.632,28.5,-5.47,0.031697427363758246,0.6217109217701965,0.01067780837290665,0.9639515152408921,0.005578204888372177,0.6974994228134332
505,28.693,28.55,-5.62,0.029874467206132536,0.6233847155266272,0.009820684941631694,0.966034149715572,0.004610607187253182,0.6983714876166813
506,28.774,28.61,-5.44,0.02809829089871177,0.6250768362046897,0.009000117656589243,0.9680700121813266,0.00373381033199788,0.6992187087510543
507,28.794,28.66,-5.61,0.026369826597269337,0.6267864765220872,0.008216176327267953,0.970057451808712,0.0029483821982808868,0.7000406641242245
508,28.875,28.72,-5.81,0.024689973000808545,0.6285127999124769,0.007468898971849593,0.9719948300047633,0.0022548232765687453,0.7008369560683124
509,28.895,28.77,-5.71,0.0230595988106109,0.6302549409998827,0.006758292179826457,0.9738805219438601,0.001653566311201361,0.7016072117332911
510,28.958,28.83,-5.72,0.02147954221218913,0.6320120061412343,0.006084331509861781,0.975712918122723,0.0011449759991777827,0.7023510834626625
511,29.019,28.88,-5.78,0.019950610381065218,0.633783074035903,0.005446961922229236,0.9774904259371496,0.0007293487490188157,0.7030682491512491
512,29.079,28.94,-5.78,0.018473579013218423,0.6355671964008722,0.004846098245007906,0.9792114712779973,0.0004069124998866508,0.7037584125850879
513,29.163,28.99,-5.67,0.01704919188093342,0.6373633987101264,0.004281625673018196,0.9808745001438833,0.0001778266010155055,0.7044213037634337
514,29.183,29.05,-5.72,0.01567816041468168,0.6391706809968709,0.0037534002983381984,0.9824779802680438,4.2181751442773337e-05,0.7050566792028694
515,29.244,29.1,-5.82,0.014361163311588328,0.6409880187172918,0.0032612496711405706,0.9840204027567531,0.0,0.7056643222236092
516,29.285,29.16,-5.63,0.013098846170963137,0.6428143636747131,0.0028049733895066436,0.9855002837367204,5.123480551546024e-05,0.7062440432181813
517,29.346,29.21,-5.76,0.01189182115730974,0.6446486450031117,0.002384343716795477,0.9869161660089064,0.0001957711571883941,0.7067956799027174
518,29.407,29.27,-5.93,0.010740666691165971,0.6464897702089771,0.001999106225056309,0.988266620706202,0.0004334257550810548,0.7073190975510498
519,29.448,29.32,-5.77,0.00964592716806972,0.6483366262704842,0.0016489804628706225,0.9895502489523847,0.0007639472506492766,0.7078141892117471
520,29.55,29.38,-5.8,0.008608112705893038,0.6501880807928512,0.0013336606459014204,0.9907656835196881,0.001187016547174725,0.70828087590811
521,29.57,29.43,-5.86,0.007627698920708259,0.6520429832187251,0.0010528163683079755,0.9919115904822554,0.0017022471598630256,0.7087191068210829
522,29.632,29.49,-5.77,0.006705126731213933,0.653900166092607,0.0008060933330222929,0.9929866708628012,0.00230918563526723,0.7091288594549495
523,29.674,29.54,-5.72,0.00584080219160505,0.6557584463785793,0.0005931140987742008,0.9939896622698811,0.003007312029625664,0.7095101397854775
524,29.735,29.6,-5.78,0.005035096352711291,0.6576166268306212,0.0004134788417493912,0.9949193405231357,0.0037960404456906273,0.7098629823899506
525,29.776,29.65,-5.88,0.004288345151217112,0.6594734974146055,0.00026676612986100036,0.9957745212638093,0.004674719627628256,0.7101874505583727
526,29.839,29.71,-5.73,0.003600849326775529,0.6613278367807456,0.0001525337077372283,0.9965540615478522,0.005642633613581559,0.7104836363850159
527,29.9,29.76,-5.86,0.0029728743668427787,0.6631784137848529,7.031929067806792e-05,0.9972568614189777,0.006699002445493215,0.710751660839374
528,29.962,29.82,-6.03,0.002404650479060207,0.6650239890563381,1.9641365965095973e-05,0.9978818654591575,0.007842982935729522,0.7109916738155285
529,30.024,29.87,-5.81,0.0018963725909814492,0.6668633166105719,0.0,0.9984280643142184,0.009073669489966168,0.7112038541588483
530,30.065,29.93,-5.88,0.0014482003768929465,0.6686951455029403,1.0877649822231871e-05,0.9988944961923772,0.010390094985686524,0.7113884096688783
531,30.126,29.98,-5.98,0.0010602583114032783,0.6705182215216794,5.173997762904057e-05,0.9992802483335949,0.01179123170550118,0.7115455770772331
532,30.168,30.04,-5.86,0.0007326357493953071,0.6723312889163588,0.00012203666700646843,0.9995844584475594,0.013275992324377003,0.7116756219992776
533,30.271,30.09,-5.83,0.0004653870318961474,0.6741330921585726,0.00022120223972582493,0.9998063161179097,0.014843230949778977,0.7117788388582688
534,30.292,30.15,-5.87,0.000258531617446877,0.6759223777309551,0.00034865687214390357,0.999945064170073,0.01649174421367624,0.7118555507805863
535,30.332,30.2,-5.93,0.0001120542385959776,0.6776978959402457,0.000503807210400722,1.0,0.01822027241531928,0.7119061094607007
536,30.393,30.26,-5.81,2.590508316962129e-05,0.6794584027498892,0.0006860471837135805,0.9999704768611384,0.02002750071367894,0.7119308949945257
537,30.455,30.31,-5.94,0.0,0.6812026616274166,0.0008947588151766101,0.9998559051070097,0.021912060368418317,0.7119303156797411
538,30.516,30.37,-6.06,3.422072883887714e-05,0.6829294454015233,0.0011293130295957625,0.9996557533866544,0.023872530028217574,0.7119048077816428
539,30.618,30.42,-5.8,0.00012841515420663628,0.6846375381233455,0.0013890704579669045,0.9993695497900225,0.025907437065195202,0.7118548352630993
540,30.639,30.48,-5.85,0.0002823975829424658,0.6863257369259573,0.001673382238242699,0.9989968829401759,0.02801525895405756,0.7117808894772695
541,30.659,30.53,-5.97,0.0004959490452129477,0.6879928538757499,0.0019815908120430375,0.9985374030289762,0.03019442469449422,0.7116834888218743
542,30.762,30.59,-5.81,0.0007688176187133278,0.6896377178091946,0.002313030716959959,0.9979908227928815,0.03244331627526659,0.7115631783539523
543,30.805,30.64,-5.8,0.0011007187758015722,0.6912591761484773,0.0026670293741608746,0.9973569184254446,0.034760270178412406,0.7114205293641398
544,30.825,30.7,-5.87,0.001491335753336251,0.6928560966895373,0.0030429078710747025,0.9966355304230919,0.037143578921973175,0.7112561389096904
545,30.866,30.75,-5.91,0.0019403199449614275,0.6944273693562842,0.0034399817389788134,0.9958265643608476,0.03959149263962954,0.711070629305692
546,30.927,30.81,-5.82,0.0024472913155229267,0.6959719079151389,0.0038575617252779902,0.9949299915949047,0.042102220695596076,0.7108646475741291
547,31.009,30.86,-5.9,0.0030118388372335045,0.6974886516443733,0.004294954560231671,0.9939458498891596,0.04467393333308559,0.7106388648506327
548,31.071,30.92,-5.96,0.0036335209471396986,0.6989765669529848,0.0047514637178417375,0.9928742439630212,0.04730476335456023,0.7103939757490084
549,31.091,30.97,-5.69,0.004311866025357971,0.7004346489441617,0.0052263901705244835,0.9917153459580282,0.04999280783188486,0.7101306976839069
550,31.152,31.03,-5.76,0.005046372893449833,0.7018619229187552,0.0057190331370829085,0.9904693958210673,0.05273612984440248,0.709849770152192
551,31.214,31.08,-5.87,0.005836511332240184,0.7032574458145608,0.006228690823392622,0.9891367016022785,0.05553276024288368,0.7095519539737573
552,31.256,31.14,-5.64,0.006681722618347398,0.704620307577635,0.0067546611551380946,0.9877176396660802,0.05838069943729768,0.7092380304926995
553,31.358,31.19,-5.65,0.007581420078702651,0.7059496324622978,0.007296242501931938,0.9862126548140638,0.06127791920638006,0.7089088007399307
554,31.378,31.25,-5.73,0.008534989662334682,0.707244580256974,0.007852734392162506,0.9846222603187758,0.06422236452699555,0.7085650845585494
555,31.441,31.3,-5.75,0.009541790528611123,0.7085043474337293,0.008423438217880655,0.9829470378677759,0.0672119554213071,0.7082077196935274
556,31.505,31.36,-5.64,0.010601155651016568,0.7097281682200952,0.009007657928939452,0.9811876374178178,0.07024458881977319,0.7078375608473566
557,31.544,31.41,-5.64,0.011712392435456083,0.7109153155923226,0.009604700715489183,0.9793447769594029,0.07331814043797848,0.7074554787033756
558,31.606,31.47,-5.68,0.012874783351989993,0.7120651021896152,0.010213877677810599,0.9774192421923704,0.07643046666525258,0.7070623589186752
559,31.668,31.52,-5.44,0.01408758657879839,0.7131768811493677,0.010834504482349969,0.9754118861135856,0.0795794064629733,0.7066591010887125
560,31.729,31.58,-5.5,0.015350036657094198,0.7142500468639101,0.011465902002744612,0.9733236285181995,0.08276278327044688,0.7062466176858965
561,31.749,31.63,-5.62,0.01666134515566201,0.7152840356596853,0.012107396944618293,0.9711554554162677,0.08597840691628772,0.7058258329744886
562,31.81,31.69,-5.36,0.018020701343694105,0.7162783264001389,0.012758322452969232,0.9689084183668131,0.08922407553328722,0.7053976819041846
563,31.893,31.74,-5.41,0.019427272870624113,0.7172324410138294,0.013418018701069493,0.9665836337316368,0.0924975774748201,0.7049631089847452
564,31.934,31.8,-5.52,0.020880206451694222,0.7181459449494499,0.014085833459909217,0.9641822818513548,0.09579669323088487,0.7045230671440914
565,31.975,31.85,-5.4,0.02237862855800941,0.7190184475596673,0.014761122647296671,0.9617056061463625,0.09911919734189552,0.7040785165722544
566,32.038,31.91,-5.28,0.02392164610986813,0.7198496024158468,0.015443250855783349,0.9591549121456443,0.10246286030836818,0.7036304235534201
567,32.141,31.96,-5.27,0.025508347172236986,0.7206391075556817,0.016131591858667447,0.9565315664464151,0.10582545049464853,0.7031797592881017
568,32.162,32.02,-5.31,0.027137801651331506,0.721386705665623,0.01682552909342279,0.9538369956075606,0.10920473602483989,0.7027274987073305
569,32.204,32.07,-5.11,0.028809061991378865,0.7220921841998684,0.017524456121999224,0.9510726849797989,0.11259848666914486,0.7022746192805794
570,32.266,32.13,-5.17,0.030521163870805598,0.7227553754374612,0.018227777067592574,0.9482401774753649,0.11600447571893906,0.7018220998189285
571,32.326,32.18,-5.3,0.03227312689727914,0.7233761564787614,0.018934907027646636,0.9453410722798451,0.11942048184899673,0.7013709192747938
572,32.367,32.24,-5.06,0.03406395530119,0.7239544491823275,0.019645272462976992,0.942377023508653,0.1228442909653778,0.7009220555393838
573,32.409,32.29,-5.14,0.035892638627277616,0.7244902200430968,0.020358311563008123,0.9393497388105672,0.126273698037541,0.700476484238896
574,32.472,32.35,-5.22,0.03775815242415395,0.7249834800127664,0.02107347458717226,0.9362609779207108,0.1297065089132637,0.7000351775303768
575,32.535,32.4,-5.07,0.03965945893147379,0.7254342842634525,0.021790224182538807,0.933112551165408,0.1331405421149538,0.6995991028980916
576,32.596,32.46,-5.0,0.041595507764499225,0.7258427318958971,0.02250803567778851,0.9299063179213279,0.13657363061594582,0.6991692219511288
577,32.638,32.51,-5.01,0.04356523659587302,0.726208965593459,0.02322639735374891,0.9266441850311349,0.14000362359538104,0.6987464892229323
578,32.718,32.57,-5.05,0.045567571834513446,0.7265331712229826,0.02394481069083194,0.923328105177503,0.14342838817029424,0.6983318509735141
579,32.739,32.62,-4.88,0.04760142930168804,0.7268155773834176,0.02466279059384316,0.9199600752169492,0.1468458111035974,0.6979262439951476
580,32.841,32.68,-4.96,0.049665714904505325,0.7270564549027452,0.025379865594769922,0.9165421344745499,0.15025380048672862,0.6975305944223511
581,32.861,32.73,-5.09,0.05175932530724671,0.7272561162834243,0.026095578034253046,0.9130763630003078,0.15365028739579836,0.6971458165470454
582,32.922,32.79,-4.82,0.053881148601078614,0.7274149150963591,0.026809484222489008,0.9095648797877898,0.1570332275201021,0.6967728116398976
583,32.963,32.84,-4.85,0.05603006497274471,0.7275332453232948,0.02752115458031249,0.9060098409555786,0.1604006027618827,0.6964124667790262
584,33.025,32.9,-4.94,0.05820494737283521,0.7276115406475907,0.02823017376119287,0.9024134378920408,0.1637504228062231,0.6960656536874156
585,33.089,32.95,-4.76,0.0604046621842064,0.727650273693493,0.028936140754851698,0.8987778953639095,0.16708072665997256,0.6957332275804851
586,33.129,33.01,-4.72,0.0626280698911222,0.7276499552142314,0.029638668973235464,0.895105469589143,0.17038958415867533,0.69541602602524
587,33.212,33.06,-4.78,0.06487402574971422,0.7276111332294587,0.03033738631963063,0.8913984462744237,0.17367509744053902,0.6951148678123925
588,33.254,33.12,-4.8,0.06714138046035178,0.7275343921128742,0.03103193524171655,0.8876591386176571,0.17693540238656771,0.6948305518428718
589,33.295,33.17,-4.68,0.06942898084251731,0.7274203516312299,0.03172197276931316,0.8838898852759088,0.18016867002606005,0.6945638560301629
590,33.358,33.23,-4.77,0.07173567051280741,0.7272696659361029,0.032407170537533905,0.8800930482992287,0.1833731079067336,0.6943155362199738
591,33.419,33.28,-4.82,0.07406029056673709,0.7270830225098203,0.033087214795995475,0.8762710110308032,0.18654696142875687,0.6940863251289087
592,33.48,33.34,-4.54,0.07640168026503437,0.7268611410669484,0.03376180640464686,0.8724261759738762,0.18968851514195847,0.6938769313040248
593,33.563,33.39,-4.61,0.07875867772511003,0.7266047724128121,0.03443066081668911,0.8685609626258887,0.19279609400547285,0.6936880381053088
594,33.583,33.45,-4.71,0.08113012061837487,0.7263146972605437,0.035093508049011554,0.8646778052802537,0.19586806460909653,0.6935203027132185
595,33.624,33.5,-4.5,0.08351484687408611,0.7259917250082356,0.03575009264057703,0.8607791507961596,0.19890283635568887,0.6933743551635076
596,33.685,33.56,-4.49,0.08591169539042635,0.7256366924778628,0.036400173599256506,0.8568674563368083,0.20189886260404302,0.6932507974115718
597,33.747,33.61,-4.58,0.08831950675352364,0.725250462617816,0.03704352433770079,0.8529451870765821,0.20485464177173288,0.6931502024286339
598,33.808,33.67,-4.59,0.09073712396504252,0.7248339231712492,0.03767993259886047,0.8490148138779177,0.20776871839751188,0.6930731133321287
599,33.869,33.72,-4.51,0.09316339317884567,0.7243879853128645,0.038309200371753345,0.8450788109390708,0.21063968416290804,0.6930200425525609
600,33.931,33.78,-4.55,0.0955971644470907,0.7239135822570736,0.038931143798072256,0.8411396534143486,0.21346617887269687,0.6929914710389662
601,33.952,33.83,-4.61,0.09803729247597485,0.7234116678406891,0.03954559307022125,0.8371998150087496,0.2162468913939169,0.6929878475050335
602,34.013,33.89,-4.38,0.10048263739116695,0.72288321508348,0.040152392321332726,0.8332617655493358,0.21898056055305873,0.6930095877178792
603,34.075,33.94,-4.46,0.1029320655128177,0.7223292147300037,0.04075139950780407,0.829327968536028,0.221665975991038,0.6930570738313878
604,34.116,34.0,-4.6,0.10538445013990907,0.7217506737761281,0.041342486284888076,0.8254008786748643,0.22430197897556475,0.693130653765939
605,34.178,34.05,-4.39,0.1078386723435929,0.7211486139836817,0.04192553787588462,0.821482939397148,0.2268874631705569,0.6932306406362498
606,34.239,34.11,-4.46,0.11029362176905996,0.7205240703867617,0.042500452935529155,0.8175765803682807,0.2294213753622787,0.6933573122289275
607,34.302,34.16,-4.58,0.11274819744535132,0.7198780897934196,0.043067143408223714,0.8136842149904245,0.23190271614189104,0.6935109105312358
608,34.363,34.22,-4.5,0.1152013086023397,0.7192117292867957,0.04362553438177319,0.8098082379035233,0.2343305405440743,0.6936916413124791
609,34.425,34.27,-4.4,0.11765187549393712,0.7185260547300827,0.044175563937289615,0.8059510224896005,0.2367039586413539,0.6938996737591787
610,34.488,34.33,-4.42,0.12009883022646811,0.717822139279723,0.04471718299595495,0.8021149183854701,0.23902213609371342,0.6941351401649434
611,34.509,34.38,-4.5,0.12254111759106298,0.7171010619110508,0.04525035516337072,0.7983022490091367,0.24128429465303555,0.694398135675692
612,34.571,34.44,-4.32,0.12497769589886235,0.716363905960361,0.04577505657225696,0.7945153091053078,0.24348971262191246,0.6946887180906426
613,34.712,34.49,-4.4,0.12740753781776595,0.7156117576871817,0.04629127572432083,0.7907563623156142,0.2456377252663921,0.6950069077192282
614,34.733,34.55,-4.54,0.12982963120941637,0.714845704860337,0.04679901333220555,0.7870276387792943,0.24772772518225245,0.6953526872938872
615,34.754,34.6,-4.29,0.13224297996504972,0.7140668353711843,0.04729828216250307,0.7833313327702464,0.2497591626144049,0.6957260019384838
616,34.796,34.66,-4.35,0.13464660483879548,0.7132762358771019,0.047789106880864685,0.7796696003764306,0.25173154572900847,0.6961267591919207
617,34.859,34.71,-4.41,0.13703954427697226,0.7124749904780003,0.0482715239002246,0.7760445572275683,0.2536444408378494,0.6965548290863521
618,34.92,34.77,-4.28,0.1394208552418779,0.711664179428453,0.048745581233010864,0.7724582762769678,0.2554974725745257,0.6970100442792239
619,34.94,34.82,-4.19,0.1417896140285325,0.7108448778879024,0.04921133834801946,0.7689127856430497,0.2572903240219936,0.6974922002380853
620,35.044,34.88,-4.21,0.14414491707285093,0.7100181547111043,0.0496688660324547,0.765410066515675,0.25902273679107796,0.6980010554768229
621,35.064,34.93,-4.26,0.1464858817497456,0.7091850712806441,0.050118246259493036,0.7619520511318842,0.26069451104960767,0.6985363318417482
622,35.125,34.99,-4.08,0.1488116471596859,0.7083466803831686,0.050559572061620206,0.7585406208252253,0.2623055055019295,0.6990977148457815
623,35.167,35.04,-4.17,0.1511213749022825,0.7075040251308343,0.050992947409915355,0.7551776041524977,0.26385563731864914,0.6996848540487861
624,35.228,35.1,-4.31,0.15341424983550278,0.7066581379293426,0.051418487099378456,0.7518647751014078,0.2653448820165203,0.7002973634819725
625,35.29,35.15,-4.01,0.1556894808191482,0.7058100394937908,0.05183631664028237,0.7486038513823685,0.26677327328843803,0.7009348221141634
626,35.352,35.21,-4.07,0.15794630144124006,0.7049607379133883,0.0522465721554022,0.7453964928074039,0.26814090278351993,0.7015967743575644
627,35.413,35.26,-4.17,0.16018397072594748,0.7041112277659188,0.052649400282849416,0.7422442997588156,0.26944791983726213,0.702282730610591
628,35.433,35.32,-4.03,0.1624017738216732,0.7032624892827304,0.053044958084127194,0.7391488117499039,0.27069453115179537,0.7029921678351896
629,35.495,35.37,-4.0,0.16459902266794993,0.7024154875648402,0.05343341295698506,0.7361115060795936,0.27188100042633584,0.7037245301659532
630,35.557,35.43,-4.05,0.16677505663990122,0.7015711718503423,0.05381494255268266,0.733133796582259,0.27300764793799753,0.7044792295482851
631,35.62,35.48,-4.12,0.1689292431691198,0.7007304748328959,0.05418973469727366,0.7302170324735539,0.27407485007317756,0.7052556464029706
632,35.66,35.54,-3.99,0.17106097833987072,0.6998943120308123,0.054557987316487734,0.727362497292725,0.27508303880977475,0.7060531303146258
633,35.785,35.59,-4.08,0.17316968745956376,0.6990635812060523,0.05491990836374152,0.7245714079415931,0.27603270115052997,0.7068710007415855
634,35.806,35.65,-4.17,0.17525482560246558,0.6982391618322022,0.055275715750764266,0.721844913820097,0.2769243785077712,0.7077085477449139
635,35.846,35.7,-3.89,0.1773158781256419,0.6974219146101786,0.05562563728026399,0.7191840960579766,0.27775866603982163,0.7085650327343762
636,35.927,35.76,-3.97,0.17935236115615352,0.6966126810299763,0.05596991058000633,0.7165899668418411,0.27853621193930234,0.7094396892293482
637,35.947,35.81,-4.1,0.18136382204857598,0.695812282976347,0.056308783037635916,0.7140634688365303,0.2792577166735539,0.7103317236328057
638,35.988,35.87,-3.95,0.18334983981197736,0.6950215223759797,0.05664251173554291,0.7116054746994499,0.27992393217744527,0.7112403160166889
639,36.049,35.92,-3.94,0.18531002550558615,0.6942411808835354,0.056971363385095786,0.7092167866863317,0.2805356609988939,0.7121646209170582
640,36.134,35.98,-4.03,0.18724402260247788,0.6934720196037177,0.057295614259594216,0.706898136346647,0.2810937553974605,0.71310376813767
641,36.154,36.03,-4.08,0.18915150732063188,0.6927147788465885,0.057615550125274084,0.7046501843067653,0.28159911639638147,0.7140568635608454
642,36.235,36.09,-3.95,0.19103218892068213,0.6919701779134378,0.05793146616962843,0.7024735201388862,0.2820526927884084,0.7150229899646773
643,36.255,36.14,-4.02,0.192885809969679,0.6912389149104688,0.058243666926258084,0.7003686623136469,0.28245548009581234,0.7160012078457341
644,36.317,36.2,-4.08,0.19471214657019206,0.6905216665873455,0.05855246619543359,0.6983360582341139,0.2828085194848757,0.7169905562466116
645,36.379,36.25,-3.82,0.19651100855409828,0.6898190881974964,0.05885818695952946,0.6963760843487372,0.28311289663516076,0.7179900535879135
646,36.44,36.31,-3.92,0.19828223964042543,0.6891318133770181,0.05916116129249762,0.6944890463407573,0.28336974056384423,0.7189986985044814
647,36.522,36.36,-4.06,0.2000257175566595,0.688460454039094,0.05946173026257257,0.6926751793915175,0.2835802224054338,0.7200154706859101
648,36.564,36.42,-3.89,0.20174135412296473,0.6878056002810156,0.05976024382739987,0.6909346485151789,0.2837455541472521,0.7210393317215416
649,36.585,36.47,-3.92,0.20342909529882935,0.6871678203010605,0.06005706072075815,0.689267548962413,0.28386698732113463,0.7220692259502359
650,36.647,36.53,-3.98,0.20508892119167946,0.6865476603226232,0.06035254832999063,0.6876739066907046,0.283945811651811,0.7231040813153836
651,36.709,36.58,-3.96,0.20672084602696747,0.6859456445233074,0.060647082563166206,0.6861536788990266,0.2839833536624336,0.7241428102258157
652,36.772,36.64,-3.81,0.20832491807914225,0.6853622749671179,0.060941047704880555,0.6847067546248267,0.2839809752377164,0.7251843104233717
653,36.875,36.69,-3.86,0.20990121956283783,0.6847980315382753,0.06123483625953549,0.6833329554014386,0.2839400721451632,0.726227465857961
654,36.895,36.75,-3.92,0.2114498664835781,0.684253371875542,0.06152884878089212,0.6820320359741865,0.2838620725148965,0.7272711475710969
655,36.936,36.8,-3.68,0.21297100844727787,0.6837287313063807,0.06182349368667426,0.6808036850736385,0.2837484352786608,0.7283142145890412
656,36.997,36.86,-3.78,0.21446482842784118,0.6832245227806713,0.06211918705702488,0.6796475262445854,0.2836006485686621,0.7293555148268013
657,37.079,36.91,-3.93,0.21593154249221186,0.682741136803973,0.06241635241567155,0.6785631187293625,0.2834202280769982,0.7303938860042819
658,37.099,36.97,-3.7,0.21737139948231318,0.6822789413704192,0.06271542049271832,0.6775499584041262,0.2832087153765372,0.7314281565758959
659,37.14,37.02,-3.68,0.21878468065342063,0.6818382818952509,0.06301682896806482,0.6766074787666067,0.28296767620418106,0.7324571466748998
660,37.265,37.08,-3.73,0.2201716992685982,0.6814194811468703,0.06332102219452708,0.6757350519737406,0.282698698707508,0.733479669073713
661,37.285,37.13,-3.66,0.2215328001488413,0.6810228391783706,0.06362845089973919,0.6749319899275863,0.2824033916558473,0.7344945301614059
662,37.326,37.19,-3.53,0.22286835917855208,0.6806486332587027,0.0639395718658908,0.674197545408056,0.28208338261695615,0.7355005309393075
663,37.388,37.24,-3.59,0.22417878276599057,0.6802971178038498,0.06425484758636447,0.6735309132511336,0.28174031610061456,0.7364964680353946
664,37.429,37.3,-3.69,0.22546450725838346,0.6799685243085888,0.06457474589836464,0.6729312315713757,0.28137585167060886,0.7374811347379294
665,37.491,37.35,-3.49,0.22672599831140341,0.679663061279704,0.06489973959065891,0.6723975830276461,0.2809916620267279,0.7384533220486666
666,37.532,37.41,-3.62,0.22796375021278584,0.6793809141716952,0.06523030598560065,0.6719289961311193,0.28058943105853096,0.7394118197558136
667,37.613,37.46,-3.76,0.22917828515991268,0.6791222453260402,0.06556692649465935,0.671524446594582,0.2801708518727396,0.7403554175268736
668,37.634,37.52,-3.49,0.23037015249126072,0.6788871939150506,0.06591008614673956,0.671182858722032,0.27973762479616227,0.7412829060214567
669,37.695,37.57,-3.53,0.2315399278716838,0.6786758758913527,0.06626027308864083,0.6709031068375497,0.2792914553561049,0.7421930780241148
670,37.756,37.63,-3.62,0.23268821243155655,0.6784883839441614,0.06661797805709321,0.6706840167524177,0.27883405224025026,0.7430847295972489
671,37.84,37.68,-3.54,0.23381563185984167,0.6783247874638828,0.06698369382187534,0.6705243672695799,0.2783671252380556,0.7439566612541145
672,37.86,37.74,-3.48,0.23492283545121503,0.6781851325169787,0.06735791459961586,0.6704228917246738,0.27789238316583403,0.7448076791518208
673,37.922,37.79,-3.54,0.23601049510752115,0.6780694418332366,0.06774113543803773,0.6703782795629087,0.2774115317778015,0.7456365963040688
674,37.984,37.85,-3.66,0.2370793042939784,0.6779777148076902,0.0681338515705596,0.6703891779510419,0.27692627166547906,0.746442233813281
675,38.046,37.9,-3.51,0.23812997695067928,0.6779099275195647,0.06853655774129114,0.6704541934237628,0.2764382961479345,0.7472234221216772
676,38.108,37.96,-3.59,0.23916324636004177,0.6778660327707033,0.06894974750057647,0.6705718935638136,0.27594928915542366,0.747979002280729
677,38.148,38.01,-3.72,0.24017986397098348,0.6778459601458758,0.06937391247135904,0.6707408087151208,0.27546092310903175,0.7487078272383368
678,38.209,38.07,-3.45,0.2411805981807114,0.6778496160971946,0.06980954158676471,0.6709594337280911,0.2749748567989294,0.7494087631429925
679,38.25,38.12,-3.53,0.24216623307516535,0.6778768840546017,0.07025712029946478,0.6712262297360428,0.27449273326388335,0.750080690664102
680,38.374,38.18,-3.63,0.24313756712930215,0.6779276245642073,0.07071712976356562,0.6715396259615833,0.2740161776747072,0.7507225063276035
681,38.395,38.23,-3.56,0.24409541186852166,0.6780016754563516,0.07119004598994819,0.6718980215517087,0.27354679522441966,0.7513331238659526
682,38.416,38.29,-3.55,0.24504059049264365,0.6780988520454662,0.07167633897616393,0.6722997874404087,0.27308616902799265,0.7519114755813406
683,38.477,38.34,-3.65,0.2459739364639614,0.6782189473639438,0.0721764718121855,0.672743268237499,0.2726358580346569,0.7524565137207979
684,38.539,38.4,-3.75,0.24689629206098754,0.678361732432316,0.07269089976344531,0.6732267841423413,0.2721973949557746,0.7529672118616719
685,38.6,38.45,-3.57,0.2478085068995733,0.6785269565681377,0.07322006933267772,0.6737486328811142,0.27177228421130994,0.7534425663058258
686,38.621,38.51,-3.67,0.2487114364231597,0.6787143477359682,0.07376441730216377,0.6743070916662967,0.2713619998979185,0.7538815974807468
687,38.724,38.56,-3.83,0.24960594036402864,0.6789236129406989,0.07432436975806289,0.6749004191769911,0.27096798378165826,0.7542833513456375
688,38.744,38.62,-3.59,0.25049288117753715,0.6791544386663246,0.0749003410986055,0.6755268575587056,0.27059164331831603,0.7546469008004564
689,38.786,38.67,-3.7,0.2513731224514486,0.679406491362143,0.07549273302802142,0.6761846344411948,0.27023434970434357,0.7549713470958241
690,38.848,38.73,-3.85,0.25224752729260796,0.6796794179783295,0.07610193353819132,0.676871964972912,0.2698974359614097,0.7552558212417237
691,38.91,38.78,-3.78,0.2531169566933329,0.6799728465528436,0.07672831588009754,0.6775870538705833,0.2695821950575774,0.7554994854129166
692,38.974,38.84,-3.8,0.25398226788005895,0.680286386851524,0.07737223752724147,0.6783280974823491,0.2692898780681292,0.7557015343488453
693,39.079,38.89,-3.84,0.2548443126469535,0.6806196310629485,0.0780340391332858,0.6790932858627975,0.269021692379037,0.7558611967456115
694,39.1,38.95,-3.91,0.25570393567733135,0.6809721545493586,0.0787140434862297,0.6798808048581502,0.26877879993601844,0.7559777366374718
695,39.121,39.0,-3.72,0.25656197285576204,0.6813435166546868,0.07941255446143922,0.6806888381998516,0.268562315542066,0.756050454765131
696,39.182,39.06,-3.83,0.2574192495738495,0.6817332615703036,0.08012985597591989,0.6815155696046936,0.2683733052063097,0.7560786899278877
697,39.244,39.11,-3.98,0.2582765790327925,0.6821409192585078,0.0808662109463255,0.6823591848793819,0.26821278454707126,0.7560618203165073
698,39.306,39.17,-3.76,0.25913476054597956,0.682566006433215,0.08162186025329368,0.6832178740272213,0.268081717251993,0.7559992648235242
699,39.368,39.22,-3.91,0.2599945778449894,0.6830080275968317,0.08239702171478254,0.6840898333544406,0.2679810135981469,0.7558904843275199
700,39.452,39.28,-4.11,0.2608567973924433,0.6834664761320136,0.08319188907111334,0.6849732675736004,0.26791152903502213,0.7557349829478545
701,39.472,39.33,-4.03,0.2617221667051981,0.683940835446816,0.08400663098442868,0.685866391901529,0.26787406283324877,0.7555323092663008
702,39.514,39.39,-4.02,0.2625914126914296,0.6844305801714372,0.08484139005530263,0.6867674341491722,0.26786935680184387,0.7552820575120105
703,39.574,39.44,-4.09,0.26346524000524435,0.6849351774042457,0.08569628185927616,0.6876746368005456,0.26789809407663245,0.754983868706301
704,39.657,39.5,-4.15,0.2643443294225008,0.6854540880042829,0.08657139400609587,0.6885862590778125,0.26796089798234607,0.7546374317639175
705,39.677,39.55,-4.03,0.2652293362415414,0.6859867679270418,0.08746678522440038,0.6895005789894199,0.26805833097078446,0.7542424845475445
706,39.759,39.61,-4.15,0.26612088871258816,0.6865326695998799,0.08838248447460412,0.6904158953581173,0.2681908936373444,0.7537988148724301
707,39.819,39.66,-4.3,0.2670195864996456,0.6870912433328719,0.08931849009277107,0.6913305298254864,0.2683590238181598,0.7533062614581056
708,39.839,39.72,-4.11,0.26792599917883053,0.6876619387603368,0.0902747689683137,0.6922428288294264,0.2685630957700266,0.7527647148243174
709,39.9,39.77,-4.28,0.26884066477710666,0.6882442063077502,0.09125125575836662,0.6931511655508832,0.26880341943519626,0.7521741181283959
710,39.96,39.83,-4.44,0.269764088355397,0.6888374986783435,0.0922478521416629,0.6940539418260302,0.26908023979300566,0.7515344679414198
711,40.0,39.88,-4.3,0.27069674064000043,0.6894412723534765,0.093264426114679,0.6949495900201555,0.2693937363001735,0.750845814960633
712,40.06,39.94,-4.31,0.27163905670617094,0.6900549891007263,0.09430081133274264,0.6958365748595751,0.26974402242143297,0.7501082646556447
713,40.182,39.99,-4.42,0.27259143471764075,0.69067811748359,0.09535680649874011,0.6967133952179664,0.27013114525200044,0.7493219778460967
714,40.203,40.05,-4.48,0.273554234725733,0.691310134366891,0.09643217480195289,0.6975785858536904,0.2705550852332097,0.7484871712086899
715,40.224,40.1,-4.36,0.2745277775315459,0.6919505264123392,0.09752664340943142,0.6984307190949437,0.27101575596252153,0.7476041177116479
716,40.285,40.16,-4.49,0.275512343614562,0.6925987915589563,0.09863990301221585,0.6992684064698177,0.27151300409899526,0.7466731469748584
717,40.348,40.21,-4.65,0.2765081721309331,0.6932544404831457,0.0997716074286288,0.7000903002785369,0.27204660936517205,0.7456946455541751
718,40.409,40.27,-4.44,0.2775154599845746,0.6939169980332114,0.10092137326674995,0.7008950951053482,0.2726162846461581,0.744669057148571
719,40.47,40.32,-4.56,0.2785343609740663,0.6945860046331546,0.10208877964805228,0.7016815292677264,0.27322167618652926,0.7435968827289685
720,40.552,40.38,-4.7,0.27956498501818083,0.6952610176506878,0.1032733679940441,0.7024483862007354,0.27386236388549123,0.7424786805876767
721,40.572,40.43,-4.55,0.28060739746268,0.6959416127245941,0.10447464187761765,0.7031944957745548,0.2745378616905502,0.7413150663074566
722,40.613,40.49,-4.57,0.28166161847086496,0.6966273850466882,0.1056920669407116,0.7039187355432625,0.2752476180897886,0.7401067126493196
723,40.675,40.54,-4.68,0.28272762250024636,0.6973179505937114,0.1069250708798357,0.7046200319229681,0.27599101670268045,0.7388543493583584
724,40.738,40.6,-4.74,0.2838053378675381,0.6980129473047185,0.10817304350090849,0.7052973612974769,0.2767673769692254,0.7375587628871445
725,40.779,40.65,-4.7,0.2848946464039546,0.6987120361999447,0.10943533684470713,0.7059497510498668,0.27757595493703624,0.7362207960364001
726,40.84,40.71,-4.81,0.28599538320256923,0.6994149024375635,0.11071126538407886,0.70657628051855,0.27841594414585713,0.7348413475127938
727,40.921,40.76,-4.91,0.2871073364592404,0.7001212563050928,0.11200010629390231,0.7071760818765239,0.2792864766087677,0.7334213714039542
728,40.962,40.82,-4.68,0.2882302474083559,0.7008308341424914,0.11330109979460631,0.7077483409326242,0.28018662388908794,0.7319618765710577
729,41.003,40.87,-4.77,0.28936381035438696,0.701543399194155,0.11461344956985198,0.7082922978536762,0.28111539827174453,0.7304639259595446
730,41.044,40.93,-4.91,0.29050767280002104,0.7022587423871143,0.11593632325878821,0.7088072478065096,0.2820717540276318,0.7289286358286744
731,41.106,40.98,-4.73,0.2916614356714429,0.7029766830328993,0.11726885302310396,0.7092925415189105,0.283054588769335,0.7273571749007384
732,41.168,41.04,-4.75,0.2928246536411727,0.703697069450751,0.118610136188961,0.7097475857586792,0.284062744896449,0.7257507634308501
733,41.231,41.09,-4.87,0.29399683554868294,0.7044197795102007,0.11995923596377017,0.7101718437300228,0.28509501112858476,0.7241106721984083
734,41.293,41.15,-4.89,0.2951774449187404,0.7051447210916079,0.12131518222759768,0.710564835386647,0.2861501241240181,0.7224382214214984
735,41.334,41.2,-4.79,0.2963659005771039,0.7058718324638258,0.1226769723987797,0.710926137661075,0.2872267701817905,0.7207347795955598
736,41.396,41.26,-4.84,0.2975615773629362,0.7066010825784472,0.12404357237311923,0.7112553846097893,0.2883235870249106,0.7190017622576601
737,41.457,41.31,-4.91,0.29876380693705645,0.7073324712801105,0.12541391753583425,0.7115522674737945,0.2894391656621123,0.7172406306778186
738,41.499,41.37,-4.67,0.29997187868493574,0.7080660294323695,0.12678691384520177,0.7118165346542688,0.29057205232543776,0.7154528904789677
739,41.54,41.42,-4.76,0.30118504071312285,0.7088018189587474,0.1281614389866485,0.7120479916030751,0.29172075048075974,0.7136400901873187
740,41.623,41.48,-4.9,0.3024025009375844,0.7095399327987943,0.12953634359587107,0.7122465006280181,0.2928837229082425,0.7118038197150869
741,41.684,41.53,-4.69,0.30362342826224076,0.7102804947793074,0.13091045254942876,0.71241198061287,0.2940593938496504,0.7099457087777035
742,41.705,41.59,-4.74,0.30484695384578264,0.7110236594011962,0.13228256632112678,0.7125444066523152,0.29524615121933095,0.7080674252477679
743,41.765,41.64,-4.8,0.30607217245463736,0.7117696115428584,0.13365146240237022,0.7126438096021022,0.2964423488755853,0.7061706734481553
744,41.826,41.7,-4.71,0.30729814389967997,0.7125185660814344,0.13501589678446793,0.7127102755449503,0.2976463089490127,0.7042571923868354
745,41.887,41.75,-4.58,0.3085238945540161,0.7132707674338036,0.13637460550064284,0.7127439451730654,0.2988563242243045,0.7023287539359909
746,41.949,41.81,-4.6,0.30974841894894006,0.7140264890195269,0.13772630622531054,0.7127450130883609,0.3000706605718685,0.700387160958003
747,42.033,41.86,-4.65,0.31097068144497814,0.7147860326481899,0.13906969992801946,0.7127137270217043,0.3012875594255953,0.698434245380914
748,42.053,41.92,-4.47,0.31218961797474004,0.7155497278339221,0.14040347257927907,0.712650386972802,0.3025052403030626,0.6964718662260241
749,42.095,41.97,-4.54,0.3134041378541471,0.7163179310400851,0.14172629690536526,0.7125553442726145,0.3037219033644681,0.6945019075902977
750,42.158,42.03,-4.7,0.3146131256584957,0.7170910248571812,0.14303683418907506,0.712429000570414,0.30493573200657975,0.6925262765863276
751,42.219,42.08,-4.43,0.31581544315971183,0.7178694171170078,0.1443337361132922,0.7122718067477647,0.3061448954879442,0.6905469012427099
752,42.281,42.14,-4.43,0.31700993132108035,0.7186535399460053,0.14561564664415225,0.7120842617618126,0.30734755158153193,0.6885657283678214
753,42.321,42.19,-4.48,0.3181954123456383,0.7194438487607419,0.1468812039505278,0.7118669114203774,0.3085418492509056,0.6865847213801533
754,42.403,42.25,-4.35,0.31937069177430244,0.720240821208597,0.14812904235649013,0.7116203470914753,0.30972593134593257,0.6846058581084526
755,42.424,42.3,-4.24,0.3205345606297103,0.7210449560568171,0.14935779432338575,0.7113452043500236,0.31089793731405285,0.6826311285648642
756,42.484,42.36,-4.28,0.3216857976017269,0.7218567720330263,0.1505660924582284,0.7110421615644285,0.31205600592315014,0.6806625326941564
757,42.546,42.41,-4.34,0.32282317127055815,0.7226768066201898,0.15175257154518526,0.7107119384256517,0.31319827799211775,0.6787020781020735
758,42.608,42.47,-4.14,0.32394544236337924,0.7235056148090601,0.15291587059697936,0.7103552944212947,0.31432289912527545,0.6767517777658205
759,42.649,42.52,-4.22,0.32505136604036056,0.7243437678112107,0.15405463492304716,0.7099730272572254,0.31542802244684337,0.6748136477296675
760,42.774,42.58,-4.39,0.3261396942059469,0.7251918517357993,0.1551675182112589,0.7095659712293289,0.3165118113316944,0.6728897047886592
761,42.796,42.63,-4.07,0.3272091778412193,0.7260504662331903,0.15625318461994164,0.7091349955481063,0.31757244212859476,0.6709819641634476
762,42.815,42.69,-4.08,0.32825856935314873,0.7269202231084784,0.15731031087687666,0.7086810026190081,0.3186081068721076,0.66909243716934
763,42.875,42.74,-4.12,0.32928662493653493,0.7278017449078811,0.158337588381899,0.7082049262815496,0.3196170159792935,0.6672231288828658
764,42.916,42.8,-3.99,0.3302921069443898,0.7286956634810894,0.15933372530967596,0.7077077300105213,0.32059740092733247,0.6653760358093815
765,42.979,42.85,-3.91,0.3312737862625205,0.729602618522855,0.16029744870920976,0.7071904050828702,0.32154751690826494,0.6635531435552757
766,43.04,42.91,-3.96,0.33223044468411783,0.7305232560971356,0.16122750659657914,0.7066539687139821,0.3224656454571488,0.661756424508242
767,43.141,42.96,-4.04,0.3331608772802083,0.7314582271470748,0.1621226700373614,0.7060994621672207,0.3233500970500319,0.6599878355289525
768,43.162,43.02,-3.8,0.3340638947618637,0.7324081859941052,0.162981735215096,0.7055279488407102,0.32419921366822996,0.6582493156573271
769,43.204,43.07,-3.85,0.33493832583008476,0.7333737888294787,0.16380352548212207,0.7049405123354087,0.32501137132545477,0.6565427838364689
770,43.265,43.13,-3.93,0.3357830195092993,0.7343556922015674,0.16458689338914684,0.7043382545084956,0.3257849825543758,0.6548701366572872
771,43.327,43.18,-3.62,0.3365968474604312,0.7353545515023574,0.16533072268994745,0.7037222935160414,0.32651849884923634,0.6532332461268031
772,43.368,43.24,-3.67,0.33737870626954847,0.7363710194566211,0.16603393031769478,0.7030937618488639,0.32721041306122334,0.6516339574630997
773,43.429,43.29,-3.76,0.3381275197081759,0.7374057446172977,0.16669546832950435,0.7024538043654238,0.32785926174339497,0.650074086919909
774,43.491,43.35,-3.65,0.33884224096144056,0.7384593698706864,0.1673143258159151,0.7018035763256568,0.32846362744210506,0.6485554196438466
775,43.533,43.4,-3.58,0.33952185482032715,0.739532530954995,0.1678895307720983,0.7011442414296548,0.32902214093200305,0.647079707567237
776,43.595,43.46,-3.62,0.34016537983445616,0.7406258549955111,0.16842015192771653,0.7004769698650011,0.3295334833918024,0.6456486673393822
777,43.636,43.51,-3.65,0.3407718704218987,0.7417399590593681,0.1689053005324463,0.6998029363663821,0.32999638851808527,0.6442639782990545
778,43.698,43.57,-3.4,0.3413404189325947,0.7428754487327269,0.16934413209425156,0.6991233182909701,0.3304096445744874,0.642927280490835
779,43.76,43.62,-3.45,0.34187015766200296,0.7440329167231022,0.16973584806758285,0.6984392937129192,0.3307720963736949,0.6416401727276837
780,43.863,43.68,-3.55,0.342360260811691,0.7452129414894701,0.17007969748878293,0.6977520395401569,0.3310826471897881,0.6404042107019213
781,43.883,43.73,-3.26,0.34280994639367407,0.7464160859027612,0.17037497855609637,0.6970627296565307,0.3313402605986066,0.6392209051466373
782,43.924,43.79,-3.34,0.34321847807543754,0.7476428959393135,0.17062104015182267,0.6963725330922895,0.3315439622439696,0.6380917200494123
783,43.986,43.84,-3.43,0.3435851669627016,0.7488938994099147,0.17081728330430104,0.6956826122258342,0.3316928415277466,0.6370180709201636
784,44.047,43.9,-3.35,0.3439093733170862,0.750169604727192,0.1709631625875352,0.694994121019723,0.3317860532219285,0.63600132311483
785,44.068,43.95,-3.33,0.34419050820595254,0.7514704997141326,0.17105818745638454,0.6943082032939284,0.33182281900099797,0.6350427902164256
786,44.131,44.01,-3.35,0.34442803508183645,0.7527970504562542,0.17110192351538794,0.6936259910392043,0.3318024288930027,0.6341437324748339
787,44.253,44.06,-3.38,0.3446214712890028,0.7541497001996125,0.17109399371938466,0.6929486027732454,0.3317242426477956,0.6333053553066418
788,44.274,44.12,-3.16,0.3447703894947216,0.7555288682965865,0.17103407950416988,0.6922771419422006,0.3315876910209614,0.6325288078562301
789,44.294,44.17,-3.23,0.3448744190429515,0.7569349492011775,0.17092192184551608,0.6916126953699927,0.33139227697203016,0.6318151816192585
790,44.355,44.23,-3.36,0.3449332472282398,0.7583683115153436,0.17075732224501874,0.6909563317577716,0.3311375767756817,0.6311655091296284
791,44.416,44.28,-3.09,0.3449466204877961,0.759829297087716,0.17054014364136058,0.6903091002357417,0.33082324104479094,0.6305807627109533
792,44.479,44.34,-3.17,0.34491434550985295,0.7613182201659082,0.17027031124573053,0.6896720289695415,0.33044899566432046,0.6300618532935053
793,44.602,44.39,-3.31,0.3448362902565539,0.7628353666036037,0.16994781330025968,0.6890461238233117,0.330014642635198,0.6296096292975858
794,44.622,44.45,-3.23,0.34471238489969036,0.7643809931237395,0.169572701758434,0.6884323670816036,0.3295200608274461,0.6292248755842027
795,44.643,44.5,-3.18,0.34454262266770674,0.7659553266391058,0.16914509288655502,0.6878317162322134,0.32896520664194356,0.6289083124737411
796,44.684,44.56,-3.2,0.3443270606025336,0.767558563631394,0.1686651677854646,0.6872451028117641,0.3283501145802762,0.6286605948331018
797,44.745,44.61,-3.24,0.34406582022494436,0.7691908695892955,0.16813317283186155,0.6866734313155636,0.3276748977221772,0.6284823112316552
798,44.807,44.67,-3.05,0.34375908810725125,0.7708523785059411,0.1675494200386097,0.6861175781730463,0.32693974811012,0.6283739831662514
799,44.889,44.72,-3.15,0.34340711635231297,0.7725431924357069,0.16691428733353317,0.6855783907899209,0.3261449370407281,0.6283360643554238
800,44.91,44.78,-3.28,0.3430102229780137,0.7742633811101962,0.16622821875631952,0.6850566866579647,0.32529081526279585,0.6283689401028834
801,44.952,44.83,-3.02,0.3425687922065671,0.7760129816130099,0.16549172457328012,0.6845532525332781,0.32437781308185354,0.6284729267303736
802,45.014,44.89,-3.18,0.3420832746581787,0.7777919981127343,0.1647053813098438,0.6840688436836823,0.3234064403713346,0.6286482710799315
803,45.077,44.94,-3.32,0.34155418744874083,0.7796004016534923,0.16386983170077524,0.6836041832058315,0.32237728649050107,0.6288951500856395
804,45.137,45.0,-3.24,0.34098211419130736,0.781438130002573,0.16298578455818366,0.6831599614125512,0.32129102010935734,0.6292136704150169
805,45.177,45.05,-3.18,0.34036770490116797,0.7833050875548352,0.16205401455745658,0.6827368352908206,0.3201483889408319,0.6296038681802871
806,45.237,45.11,-3.21,0.33971167580444395,0.7852011452935304,0.16107536194135313,0.6823354280305515,0.3189502193805125,0.6300657087198818
807,45.36,45.16,-3.26,0.3390148090502424,0.7871261408069361,0.16005073214257814,0.6819563286239421,0.31769741605421203,0.6305990864506744
808,45.381,45.22,-3.05,0.33827795232654095,0.7890798783598729,0.15898109532524338,0.6816000915348374,0.31639096127369504,0.6312038247914332
809,45.401,45.27,-3.15,0.3375020183801801,0.7910621290187675,0.15786748584574212,0.6812672364371645,0.315031914400997,0.6318796761578829
810,45.462,45.33,-3.3,0.3366879844415898,0.7930726308284984,0.15671100163370075,0.6809582480212178,0.31362141112191017,0.6326263220296795
811,45.522,45.38,-3.06,0.33583689155511387,0.7951110890389327,0.15551280349379443,0.6806735758663895,0.3121606626293494,0.6334433730895277
812,45.583,45.44,-3.18,0.33494984381598364,0.797177176378898,0.15427411432932236,0.6804136343788256,0.31065095471744497,0.634330369434609
813,45.645,45.49,-3.33,0.3340280075151057,0.7992705333754317,0.1529962182885306,0.6801788027924339,0.309093646787299,0.6352867808604884
814,45.686,45.55,-3.23,0.3330726101928647,0.8013907687164971,0.15168045983471562,0.6799694252316837,0.30749017076541696,0.6363120072176394
815,45.728,45.6,-3.15,0.3320849396031743,0.8035374596557107,0.15032824274118894,0.6797858108346518,0.30584202993588994,0.6374053788405473
816,45.789,45.66,-3.19,0.33106634258908835,0.8057101524576895,0.14894102901224454,0.679628233934638,0.30415079768744024,0.6385661570491505
817,45.85,45.71,-3.26,0.3300182238713917,0.8079083628824864,0.14752033773131248,0.6794969342985009,0.3024181161764826,0.6397935347222214
818,45.912,45.77,-3.04,0.3289420447517298,0.8101315767074211,0.14606774383752746,0.6793921174197186,0.300645694907443,0.6410866369421742
819,45.974,45.82,-3.15,0.3278393217320366,0.8123792502844269,0.1445848768320317,0.6793139548639938,0.29883530923170765,0.6424445217106689
820,46.056,45.88,-3.32,0.3267116250522565,0.8146508111307915,0.14307341941547613,0.6792625846649532,0.29698879876672496,0.6438661807343304
821,46.077,45.93,-3.1,0.32556057714858533,0.8169456585509287,0.14153510605833317,0.6792381117671756,0.2951080657369221,0.6453505402798404
822,46.158,45.99,-3.21,0.3243878510346707,0.8192631642865682,0.13997172150577197,0.6792406085134873,0.29319507323822974,0.6468964620976192
823,46.178,46.04,-3.33,0.32319516860835107,0.8216026731926455,0.1383850992189443,0.6792701151732976,0.29125184342808563,0.6485027444133267
824,46.239,46.1,-3.23,0.3219842988865702,0.8239635039363238,0.13677711975455417,0.6793266405087931,0.289280455642851,0.6501681229863842
825,46.299,46.15,-3.15,0.3207570561711341,0.8263449497167457,0.13514970908460872,0.6794101623758891,0.2872830444446338,0.6518912722345209
826,46.341,46.21,-3.2,0.31951529814804414,0.8287462790030727,0.13350483685832484,0.6795206283567611,0.2852617975995668,0.6536708064230946
827,46.442,46.26,-3.27,0.3182609239232331,0.8311667362882211,0.13184451460826233,0.6796579564206126,0.2832189539896627,0.6555052809177412
828,46.462,46.32,-3.07,0.3169958719976429,0.8336055428555733,0.1301707939028541,0.6798220356092413,0.28115680146049254,0.6573931934987399
829,46.502,46.37,-3.2,0.3157221181847417,0.8360618975558228,0.1284857644476203,0.6800127267439102,0.27907767460709665,0.6593329857353346
830,46.543,46.43,-3.38,0.31444167347373975,0.8385349775909867,0.12679155213746834,0.6802298631500411,0.2769839525006858,0.6613230444181496
831,46.626,46.48,-3.19,0.31315658184190476,0.8410239393025758,0.12509031706257034,0.680473251396336,0.27487805635883256,0.6633617030477577
832,46.665,46.54,-3.3,0.3118689180194929,0.8435279189608846,0.12338425147039041,0.6807426720450475,0.2727624471619434,0.6654472433773719
833,46.726,46.59,-3.42,0.31058078521088667,0.8460460335523999,0.12167557768650654,0.6810378804102339,0.27063962321885326,0.6675778970076078
834,46.828,46.65,-3.35,0.3092943127755208,0.8485773815625658,0.11996654599688905,0.6813586073210354,0.2685121176843986,0.6697518470312083
835,46.848,46.7,-3.26,0.30801165387215357,0.8511210437514224,0.1182594324943138,0.6817045598872193,0.2663824960318521,0.6719672297254405
836,46.89,46.76,-3.33,0.30673498307004343,0.8536760839197974,0.11655653689164128,0.6820754222643542,0.2642533534831278,0.6742221362896852
837,46.951,46.81,-3.43,0.3054664939306028,0.8562415496638753,0.114860180304733,0.6824708564160937,0.2621273123997178,0.6765146146256407
838,47.012,46.87,-3.24,0.304208396563109,0.8588164731162294,0.11317270300779048,0.6828905028712927,0.26000701963741774,0.6788426711575196
839,47.053,46.92,-3.37,0.30296291515806056,0.8613998716716847,0.11149646216391908,0.6833339814739448,0.25789514386801826,0.6812042726895522
840,47.135,46.98,-3.57,0.3017322855017736,0.8639907486966021,0.10983382953375806,0.683800892124115,0.25579437287124934,0.683597348298068
841,47.156,47.03,-3.43,0.30051875247577803,0.8665880942204458,0.10818718916506141,0.6842908155081846,0.25370741080034603,0.6860197912553507
842,47.217,47.09,-3.51,0.2993245675445263,0.8691908856087565,0.10655893506616619,0.684803313816782,0.2516369754246541,0.6884694609823624
843,47.278,47.14,-3.61,0.2981519862348369,0.8717980882169575,0.10495146886630667,0.6853379314488744,0.24958579535268527,0.6909441850274359
844,47.339,47.2,-3.63,0.29700326561034424,0.8744086560248413,0.10336719746564807,0.6858941957007386,0.24755660723899645,0.6934417610680624
845,47.402,47.25,-3.53,0.29588066174405814,0.8770215322520365,0.10180853067778971,0.6864716174388831,0.2455521529782336,0.695959958932876
846,47.465,47.31,-3.65,0.29478642719203946,0.8796356499549949,0.10027787886740404,0.6870696917562201,0.24357517688966668,0.6984965226409316
847,47.527,47.36,-3.79,0.2937228084711549,0.8822499326061527,0.09877765058564839,0.6876878986109373,0.24162842289552966,0.7010491724555308
848,47.548,47.42,-3.61,0.29269204354385,0.8848632946560865,0.0973102502059617,0.6883257034477311,0.23971463169648513,0.7036156069500537
849,47.59,47.47,-3.78,0.29169635931287224,0.8874746420796709,0.09587807556285301,0.6889825578013332,0.23783653794753656,0.7061935050834623
850,47.65,47.53,-3.99,0.29073796912884803,0.8900828729074579,0.09448351559627752,0.6896578998825413,0.23599686743769405,0.7087805282833151
851,47.713,47.58,-3.92,0.2898190703135531,0.8926868777437653,0.09312894800417011,0.6903511551472548,0.2341983342766536,0.7113743225342777
852,47.775,47.64,-3.93,0.288941841701638,0.8952855402732174,0.09181673690568491,0.6910617368492382,0.2324436380916759,0.7139725204702284
853,47.835,47.69,-4.01,0.2881084412034443,0.8978777377577501,0.09054923051763895,0.691789046577504,0.23073546123772082,0.716572743468216
854,47.897,47.75,-4.04,0.2873210033913468,0.90046234152649,0.08932875884652725,0.6925324747794432,0.22907646602374498,0.7191726037427038
855,47.958,47.8,-3.92,0.2865816371118431,0.9030382174613476,0.08815763139831094,0.6932914012711062,0.22746929195796484,0.721769706438568
856,47.979,47.86,-4.03,0.28589242312548646,0.9056042264813519,0.08703813490806213,0.694065195736164,0.22591655301483335,0.7243616517213186
857,48.042,47.91,-4.17,0.2852554117767356,0.9081592250286555,0.08597253109149934,0.6948532182150644,0.22442083492645892,0.7269460368630886
858,48.084,47.97,-3.97,0.28467262069581495,0.9107020655589106,0.0849630544204003,0.695654819585868,0.22298469250118982,0.7295204583230797
859,48.145,48.02,-4.11,0.28414603253471976,0.913231597038394,0.0840119099238422,0.6964693420382301,0.22161064697207766,0.7320825138212902
860,48.206,48.08,-4.3,0.28367759273951104,0.9157466654499683,0.08312127101717179,0.6972961195420139,0.22030118337789834,0.7346298044045158
861,48.268,48.13,-4.21,0.283269207361017,0.9182461143098223,0.08229327736052963,0.6981344783120673,0.21905874797936414,0.737159936503743
862,48.31,48.19,-4.19,0.282922740906031,0.9207287851967478,0.08153003274868668,0.6989837372707219,0.2178857457130944,0.7396705239820927
863,48.37,48.24,-4.23,0.2826400142310839,0.9231935182954141,0.08083360303388912,0.6998432085094702,0.21678453768580722,0.742159190172531
864,48.432,48.3,-4.3,0.2824228024808343,0.9256391529547404,0.08020601408331285,0.7007121977511811,0.2157574387110799,0.7446235699046695
865,48.493,48.35,-4.1,0.282272833073098,0.9280645282621911,0.07964924977263074,0.7015900048141589,0.21480671489095915,0.747061311520004
866,48.535,48.41,-4.2,0.2821917837325729,0.9304684836344943,0.07916525001717371,0.7024759240792526,0.21393458124468342,0.7494700788748728
867,48.639,48.46,-4.37,0.28218128057537223,0.9328498594250081,0.07875590884220059,0.7033692449610861,0.21314319938680482,0.7518475533303187
