,Time_Host,Time_Arduino,easingdata,CH1_Oxy,CH1_Deoxy,CH2_Oxy,CH2_Deoxy,CH3_Oxy,CH3_Deoxy
0,1.443,0.04,0.0,0.0,0.12146474412916648,0.0,0.856877455684946,0.08652248976144505,0.5451269817773247
1,1.504,0.1,0.0,0.003047193747390993,0.12425735211388783,0.003790698030074397,0.8496023418477898,0.08691700441704571,0.5474785236777819
2,1.525,0.15,0.0,0.006113666894376707,0.1270792304006397,0.0075929984050938275,0.8423668829878288,0.08735493925504582,0.5498354875157242
3,1.545,0.21,0.0,0.00919856449860525,0.12992952306610125,0.011405807662122333,0.8351737408904509,0.08783621913228024,0.5521973667583722
4,1.566,0.26,0.0,0.012301021499066981,0.132807353378949,0.015228028815023366,0.828025543851312,0.0883607261320156,0.5545636631800673
5,1.587,0.32,0.0,0.015420163346026826,0.13571182452725458,0.01905856204295638,0.8209248850080139,0.08892829936237502,0.5569338874149315
6,1.607,1.1,0.0,0.018555106638109102,0.1386420203720694,0.022896305370521137,0.8138743207441409,0.08953873481336767,0.5593075594941557
7,1.628,1.16,0.0,0.021704959765969707,0.14159700622610208,0.026740155339231828,0.8068763691657578,0.09019178527297689,0.5616842093671689
8,1.67,1.21,0.0,0.024868823561982077,0.14457582965632312,0.030589007670047474,0.7999335086502214,0.0908871603026323,0.5640633774059729
9,1.733,1.27,0.0,0.028045791955351916,0.14757752130925889,0.03444175791672507,0.7930481764669055,0.09162452627226277,0.566444614891943
10,1.794,1.32,0.04,0.03123495263206151,0.15060109575765915,0.03829730210979831,0.7862227674691973,0.09240350645499844,0.5688274844844248
11,1.919,1.38,0.05,0.03443538769902908,0.1536455523671494,0.04215453739101061,0.779459632856915,0.09322368118146485,0.571211560670468
12,1.939,1.43,-0.01,0.03764617435185646,0.15670987618141288,0.04601236263804004,0.7727610790081779,0.09408458805349737,0.5735964301950525
13,1.96,1.49,-0.03,0.040866385545532284,0.15979303882440718,0.04986967907934831,0.766129366379727,0.09498572221700255,0.5759816924711718
14,2.022,1.54,0.01,0.04409509066745394,0.16289399941811636,0.05372539089898425,0.7595667084747068,0.09592653669358321,0.5783669599691678
15,2.064,1.6,-0.04,0.04733135621211902,0.1660117055143662,0.05757840583117845,0.7530752708768997,0.09690644277040475,0.580751858584781
16,2.127,1.65,-0.05,0.050574246456811495,0.1691450940392724,0.0614276357445569,0.7466571703503431,0.09792481044760636,0.5831360279854706
17,2.19,1.71,0.03,0.05382282413757959,0.17229309224892372,0.06527199721576481,0.7403144740032104,0.0989809689423793,0.585519121934613
18,2.25,1.76,0.05,0.05707615112478318,0.17545461869491824,0.06911041209224776,0.7340491985147762,0.10007420724866274,0.5879008085932008
19,2.311,1.82,0.03,0.060333289097481056,0.1786285841983787,0.07294180804390216,0.727863309424174,0.10120377475126044,0.5902807707986791
20,2.373,1.87,0.1,0.06359330021593491,0.18181389283108024,0.07676511910328997,0.721758720479592,0.10236888189307662,0.5926587063205664
21,2.393,1.93,0.16,0.06685524779153072,0.18500944290233107,0.0805792861941276,0.7157372930465072,0.10356870089410687,0.5950343280925525
22,2.455,1.99,0.15,0.07011819695345982,0.1882141279502478,0.08438325764781202,0.7098008355735349,0.10480236652078233,0.5974073644208303
23,2.497,2.04,0.16,0.07338121531154758,0.19142683773607239,0.08817598970781529,0.7039511031144849,0.10606897690424306,0.599777559168507
24,2.6,2.1,0.24,0.07664337361465637,0.1946464592401941,0.09195644702184759,0.6981897969052451,0.10736759440610957,0.6021446719160062
25,2.621,2.15,0.21,0.07990374640411782,0.1978718776585673,0.09572360312176173,0.6925185639941087,0.10869724653031593,0.6045084780974169
26,2.661,2.2,0.19,0.08316141266166867,0.20110197739824026,0.09947644089123985,0.6869389969241095,0.11005692687955126,0.606868769112755
27,2.724,2.26,0.24,0.08641545645137602,0.2043356430707305,0.103213953021351,0.6814526334658478,0.11144559615482544,0.6092253524161092
28,2.786,2.31,0.24,0.08966496755504588,0.207571760481995,0.1069351424540913,0.6760609563992122,0.11286218319662986,0.611578051579623
29,2.828,2.37,0.19,0.09290904210061228,0.2108092176177439,0.11063902281401312,0.6707653933423504,0.11430558606609635,0.6139267063332705
30,2.889,2.42,0.23,0.09614678318300177,0.21404690562284678,0.11432461882801268,0.6655673166262719,0.11577467316447075,0.6162711725804139
31,3.01,2.48,0.29,0.09937730147695517,0.21728371977357838,0.1179909667332945,0.6604680432135557,0.11726828438912361,0.618611322389169
32,3.031,2.54,0.29,0.10259971584126895,0.22051856044145426,0.12163711467348952,0.655468834659738,0.11878523232422006,0.6209470439596663
33,3.072,2.59,0.31,0.10581315391389305,0.22375033404741546,0.1252621230828751,0.6505708971160373,0.12032430346408524,0.6232782415673533
34,3.112,2.64,0.4,0.10901675269730238,0.22697795400514217,0.12886506505863654,0.6457753813721314,0.12188425946725312,0.6256048354825313
35,3.173,2.7,0.4,0.11220965913354936,0.23020034165230177,0.13244502672112857,0.6410833829377164,0.12346383843917365,0.6279267618663346
36,3.234,2.75,0.4,0.11539103066840732,0.23341642716856473,0.1360011075621268,0.6364959421615485,0.12506175624156318,0.6302439726433682
37,3.336,2.81,0.48,0.11856003580402312,0.23662515047925414,0.13953242078109473,0.632014044386649,0.12667670782640325,0.6325564353512092
38,3.357,2.87,0.51,0.12171585463951078,0.23982546214352557,0.1430380936095272,0.627638620140328,0.1283073685926188,0.6348641329669638
39,3.399,2.92,0.47,0.12485767939893494,0.2430163242260075,0.14651726762347103,0.6233705453576621,0.1299523957634893,0.6371670637110763
40,3.462,2.98,0.5,0.1279847149461507,0.246196711150871,0.14996909904435307,0.6192106416370673,0.13161042978286855,0.63946524082861
41,3.503,3.03,0.52,0.1310961792859816,0.24936561053733639,0.15339275902827046,0.6151596765266585,0.13328009572831062,0.6417586923482432
42,3.584,3.08,0.47,0.13419130405122573,0.25252202401566887,0.1567874339439193,0.6112183638401424,0.13496000473920391,0.6440474608192831
43,3.646,3.14,0.47,0.1372693349749783,0.2556649680227534,0.16015232563934068,0.6073873640010641,0.13664875545798388,0.6463316030270644
44,3.666,3.19,0.57,0.14032953234775028,0.25879347457637514,0.1634866516976317,0.603667284414315,0.13834493548243856,0.6486111896871907
45,3.707,3.25,0.57,0.1433711714588533,0.2619065920273583,0.16678964568171395,0.6000586798638851,0.14004712282704881,0.6508863051191361
46,3.768,3.31,0.57,0.14639354302151483,0.265003385788742,0.1700605573681782,0.5965620529358765,0.14175388739124017,0.6531570468997691
47,3.832,3.36,0.65,0.14939595358118532,0.26808293904119995,0.17329865297015856,0.5931778544658205,0.14346379243239465,0.6554235254973602
48,3.873,3.41,0.7,0.1523777259065099,0.27114435341394755,0.17650321534915003,0.5899064840093099,0.14517539604148588,0.657685863886631
49,3.934,3.47,0.68,0.15533819936246276,0.27418674964042244,0.1796735442156949,0.5867482903349082,0.14688725261923943,0.6599441971453954
50,3.996,3.52,0.72,0.15827673026518133,0.2772092681880687,0.18280895631889346,0.5837035719382516,0.14859791435077338,0.6621986720334054
51,4.078,3.58,0.78,0.16119269221807977,0.28021106986160066,0.18590878562474572,0.5807725775762498,0.1503059326767381,0.6644494465540696
52,4.098,3.63,0.75,0.16408547642886667,0.2831913363791772,0.18897238348338383,0.5779555068202871,0.15200985975903628,0.6666966894998015
53,4.16,3.69,0.75,0.16695449200712695,0.28614927092096665,0.1919991187853039,0.5752525106273475,0.153708249939256,0.6689405799818311
54,4.202,3.75,0.82,0.16979916624215946,0.2890840986496426,0.1949883781067245,0.5726636919280145,0.1553996611879937,0.6711813069453718
55,4.286,3.8,0.81,0.1726189448607897,0.29199506720240004,0.19793956584419534,0.57018910623034,0.15708265654327092,0.6734190686710397
56,4.346,3.85,0.77,0.1754132922649025,0.2948814471541249,0.20085210433855194,0.5678287622385957,0.1587558055362654,0.6756540722634174
57,4.386,3.91,0.84,0.17818169174846224,0.2977425324513886,0.20372543398826545,0.5655826224859438,0.16041768560258104,0.6778865331276372
58,4.468,3.96,0.88,0.18092364569380698,0.30057764081697613,0.2065590133522002,0.5634506039800864,0.16206688347728695,0.6801166744348458
59,4.489,4.02,0.87,0.1836386757470165,0.30338611412469874,0.2093523192417808,0.5614325788609573,0.16370199657195286,0.6823447265774368
60,4.551,4.08,0.91,0.18632632297217633,0.3061673187442918,0.2121048468025736,0.559528375069566,0.16532163433191865,0.6845709266149729
61,4.612,4.13,1.0,0.18898614798438787,0.3089206458562583,0.2148161095853064,0.5577377770271617,0.16692441957207121,0.6867955177117679
62,4.674,4.18,1.0,0.19161773106142113,0.3116455117365817,0.21748563960639375,0.5560605263239095,0.16850898978946582,0.6890187485671261
63,4.715,4.24,1.0,0.19422067223396328,0.31434135801129415,0.22011298739808977,0.5544963224162354,0.1700739984512123,0.6912408728392366
64,4.817,4.29,1.08,0.19679459135447522,0.3170076518809465,0.22269772204843263,0.5530448233319666,0.17161811625614665,0.6934621485636899
65,4.837,4.35,1.11,0.19933912814473004,0.31964388631508756,0.22523943123118423,0.5517056463823434,0.17314003236891587,0.6956828375674983
66,4.878,4.41,1.08,0.20185394222216466,0.3222495802169148,0.22773772122598807,0.5504783688799516,0.17463845562520575,0.6979032048794281
67,4.94,4.46,1.13,0.2043387131052376,0.3248242785583029,0.23019221692897274,0.5493625288616418,0.1761121157069389,0.7001235181373923
68,4.98,4.51,1.15,0.2067931401980538,0.32736755248544513,0.23260256185402628,0.5483576258155707,0.1775597642863661,0.7023440469936049
69,5.022,4.57,1.1,0.20921694275459007,0.32987899939535803,0.2349684181249744,0.5474631214115534,0.17898017613805853,0.7045650625182048
70,5.085,4.62,1.09,0.21160985982291655,0.3323582429835165,0.2372894664589107,0.5466784402339787,0.18037215021786834,0.7067868366020709
71,5.19,4.68,1.18,0.21397165016985492,0.3348049332629097,0.23956540614093613,0.5460029705165829,0.18173451070796814,0.7090096413595867
72,5.211,4.74,1.16,0.21630209218653793,0.33721874655484,0.2417959549905701,0.5454360648783935,0.18306610802709686,0.7112337485321268
73,5.252,4.79,1.16,0.21860098377534998,0.33959938545181084,0.24398084932008196,0.5449770410601286,0.18436581980514513,0.7134594288930493
74,5.313,4.84,1.26,0.2208681422187406,0.3419465787528733,0.24611984388496436,0.5446251826602987,0.18563255182124191,0.7156869516549376
75,5.355,4.9,1.28,0.22310340403042603,0.34426008137183006,0.2482127118267536,0.5443797398701934,0.18686523890456325,0.7179165838797865
76,5.415,4.95,1.25,0.22530662478952881,0.34653967421871595,0.2502592446084028,0.5442399302068813,0.18806284579717222,0.7201485898927767
77,5.477,5.01,1.3,0.22747767895824506,0.3487851640550158,0.2522592519424273,0.544204939243357,0.18922436797830505,0.7223832307002724
78,5.579,5.07,1.35,0.22961645968366884,0.3509963833231173,0.2542125617120677,0.5442739213350409,0.19034883244964093,0.7246207634126771
79,5.599,5.12,1.34,0.2317228785844414,0.3531731899505488,0.2561190198857502,0.5444460003419347,0.1914352984812053,0.7268614406728091
80,5.64,5.17,1.33,0.2337968655229257,0.35531546712960055,0.25797849042514415,0.5447202703458499,0.19248285831765907,0.7291055100905105
81,5.701,5.23,1.39,0.2358383683636384,0.35742312307297414,0.2597908551871294,0.5450957963622385,0.19349063784482537,0.7313532136842232
82,5.743,5.29,1.35,0.2378473527186971,0.359496090746149,0.26155601382000043,0.5455716150462027,0.19445779721640116,0.7336047873302507
83,5.806,5.34,1.3,0.23982380168106013,0.36153432757718307,0.2632738836542527,0.546146735392239,0.1953835314408838,0.7358604602203711
84,5.846,5.39,1.32,0.24176771554634124,0.36353781514468925,0.2649443995883022,0.546820139427199,0.19626707092879983,0.738120454328393
85,5.931,5.45,1.31,0.24367911152398106,0.3655065588447414,0.26656751396948203,0.5475907828958559,0.19710768200035805,0.7403849838861832
86,5.972,5.5,1.28,0.2455580234385382,0.36744058753746894,0.2681431964706453,0.5484575959383794,0.1979046673536434,0.7426542548696738
87,6.032,5.56,1.31,0.24740450142183223,0.3693399531741032,0.2696714339626652,0.5494194837589994,0.19865736649344312,0.7449284644953953
88,6.095,5.62,1.36,0.24921861159662517,0.37120473040525354,0.27115223038307434,0.5504753272852155,0.19936515612076638,0.7472078007281354
89,6.157,5.67,1.33,0.25100043575247494,0.37303501617121393,0.27258560660102144,0.5516239838171104,0.20002745048310683,0.7494924418003944
90,6.219,5.72,1.33,0.2527500710143496,0.374830929275133,0.2739716002786504,0.5528642876666581,0.20064370168551385,0.7517825557443577
91,6.281,5.78,1.41,0.254467629504557,0.37659260993991495,0.2753102657289346,0.5541950507873162,0.20121339996258433,0.7540782999371386
92,6.303,5.83,1.39,0.2561532379985363,0.37832021934973753,0.27660167376995853,0.5556150633944621,0.20173607391155104,0.7563798206600397
93,6.362,5.89,1.41,0.2578070375750647,0.38001393917708565,0.27784591157564204,0.557123094577323,0.20221129068670965,0.758687252672557
94,6.403,5.95,1.46,0.2594291832614438,0.3816739710962059,0.27904308252291693,0.5587178929030399,0.20263865615550328,0.7610007188017949
95,6.465,6.0,1.48,0.26101984367425013,0.3833005362838909,0.28019330603539877,0.5603981870134562,0.20301781501667873,0.7633203295478577
96,6.527,6.05,1.42,0.26257920065624557,0.38489387490850013,0.28129671742363654,0.5621626862151954,0.20334845088103234,0.7656461827056551
97,6.57,6.11,1.43,0.2641074489100572,0.38645424560812086,0.28235346772204944,0.5640100810635857,0.20363028631537003,0.7679783630034507
98,6.652,6.16,1.45,0.2656047956292384,0.38798192495876516,0.2833637235226853,0.5659390439410318,0.2038630828503971,0.7703169417583979
99,6.672,6.22,1.37,0.26707146012732097,0.38947720693348287,0.28432766680593347,0.567948229630466,0.2040466409533128,0.7726619765492798
100,6.734,6.28,1.32,0.268507673465453,0.3909404023532606,0.28524549476829636,0.5700362758845844,0.20418079996590258,0.7750135109066618
101,6.795,6.33,1.4,0.2699136780791823,0.3923718383305587,0.28611741964725873,0.5722018039916548,0.20426543800890593,0.7773715740206746
102,6.837,6.38,1.39,0.2712897274048993,0.39377185770632517,0.2869436685432162,0.5744434193387208,0.20430047185339897,0.7797361804666236
103,6.898,6.44,1.34,0.27263608550640445,0.39514081848129856,0.28772448323836514,0.576759711972991,0.2042858567598798,0.7821073299486087
104,6.959,6.5,1.38,0.27395302670201227,0.39647909324238684,0.2884601200124084,0.5791492571621201,0.20422158628571954,0.784485007061288
105,7.04,6.55,1.41,0.2752408351925691,0.39778706858488205,0.2891508494549286,0.581610615954009,0.20410769206165064,0.786869181069864
106,7.061,6.61,1.37,0.27649980469073326,0.3990651445312525,0.28979695627430657,0.584142335736669,0.2039442435379902,0.7892598057083341
107,7.123,6.66,1.36,0.27773023805185865,0.40031373394723746,0.2903987391031035,0.5867429507986824,0.20373134770132187,0.7916568189960785
108,7.185,6.71,1.44,0.2789324469068112,0.40153326195596134,0.2909565102998591,0.5894109828908355,0.20346914876239477,0.7940601430728984
109,7.248,6.77,1.39,0.2801067512970462,0.40272416535077465,0.29147059574730005,0.59214494178953,0.20315782781603461,0.7964696840526352
110,7.308,6.83,1.36,0.28125347931226935,0.40388689200751643,0.2919413346469966,0.594943325862545,0.20279760247389586,0.7988853318955179
111,7.391,6.88,1.41,0.2823729667310022,0.405021900296879,0.29236907931055245,0.5978046226376161,0.20238872647092382,0.8013069602993309
112,7.412,6.93,1.39,0.28346555666436885,0.4061296584975342,0.2927541949474781,0.6007273093741486,0.20193148924643275,0.8037344266094237
113,7.474,6.99,1.31,0.28453159920340987,0.4072106442106534,0.293097059449955,0.6037098536382008,0.20142621550072987,0.8061675717475258
114,7.515,7.04,1.31,0.28557145107021553,0.40826534377642776,0.29339806317473066,0.6067507138807732,0.20087326472822029,0.8086062201592923
115,7.576,7.1,1.33,0.28658547527314693,0.4092942516931685,0.29365760872238844,0.6098483400193929,0.20027303072792169,0.8110501797804832
116,7.618,7.16,1.28,0.28757404076638104,0.41029787003954404,0.29387611071422903,0.6130011740229871,0.19962594109227902,0.813499242021687
117,7.68,7.21,1.27,0.28853752211397743,0.41127670790048787,0.294053995566982,0.6162076505000552,0.19893245667511464,0.8159531817715248
118,7.74,7.26,1.34,0.28947629915862005,0.4122312807972953,0.2941917012655382,0.6194661972901881,0.19819307103949652,0.8184117574182938
119,7.781,7.32,1.3,0.2903907566951456,0.41316211012240844,0.2942896771338754,0.6227752360589716,0.19740830988627422,0.8208747108899959
120,7.842,7.37,1.27,0.29128128414894006,0.4140697225793802,0.29434838360433385,0.6261331828962667,0.19657873046401744,0.8233417677126732
121,7.883,7.43,1.32,0.29214827525926806,0.41495464962849204,0.2943682919853914,0.6295384489177899,0.19570492096109957,0.8258126370869218
122,7.945,7.49,1.34,0.2929921277675987,0.4158174269384856,0.29434988422809055,0.6329894408698038,0.19478749988068747,0.8282870119824031
123,8.006,7.54,1.26,0.2938132431110015,0.41665859384484555,0.294293652691277,0.6364845617366327,0.19382711539941516,0.8307645692501356
124,8.047,7.59,1.28,0.2946120261206895,0.41747869281505856,0.29420009990580276,0.6400222113506605,0.19282444471053584,0.8332449697523484
125,8.152,7.65,1.3,0.29538888472578506,0.41827826892126463,0.2940697383378305,0.6436007870045154,0.19178019335236385,0.8357278585096853
126,8.172,7.7,1.24,0.2961442296623782,0.4190578693207131,0.29390309015136323,0.6472186840652155,0.19069509452282174,0.8382128648656043
127,8.233,7.76,1.2,0.29687847418793484,0.419818042744431,0.29370068697010515,0.6508742965901577,0.18956990838088966,0.8406996026678769
128,8.275,7.82,1.23,0.29759203380109667,0.42055933899450076,0.29346306963873753,0.6545660179449266,0.18840542133572294,0.8431876704671282
129,8.336,7.87,1.18,0.298285325966891,0.4212823084503247,0.293190787983661,0.6582922414229424,0.18720244532416214,0.8456766517323375
130,8.376,7.92,1.15,0.29895876984734726,0.4219875015842284,0.29288440057321724,0.6620513608669377,0.1859618170773008,0.8481661150831501
131,8.479,7.98,1.19,0.29961278603748964,0.4226754684867212,0.2925444744773411,0.6658417712921783,0.1846843973767104,0.8506556145387755
132,8.499,8.04,1.22,0.3002477963066526,0.4233467584017058,0.2921715850265512,0.6696618695112236,0.18337107030086025,0.8531446897831787
133,8.561,8.09,1.18,0.3008642233450531,0.42400191927189174,0.2917663155701821,0.6735100547598671,0.18202274246221825,0.8556328664462554
134,8.621,8.15,1.2,0.30146249051555757,0.4246414972946538,0.2913292572337792,0.6773847293237883,0.18064034223549874,0.8581196564006941
135,8.661,8.2,1.26,0.302043021610595,0.4252660364885563,0.29086100867561976,0.6812842991654269,0.17922481897753703,0.8606045580742676
136,8.722,8.26,1.21,0.30260624061419233,0.4258760782707598,0.29036217584236745,0.6852071745505988,0.1777771422393073,0.8630870567773142
137,8.762,8.31,1.19,0.30315257146913427,0.42647216104551666,0.2898333717239095,0.689151770674409,0.1762983009706384,0.8655666250452105
138,8.864,8.37,1.24,0.3036824378492681,0.4270548198039606,0.2892752161074308,0.6931165082860525,0.17478930271822252,0.8680427229956292
139,8.884,8.42,1.23,0.30419626293699426,0.4276245857353842,0.28868833533078486,0.6970998143120909,0.17325117281754226,0.8705147987003533
140,8.946,8.48,1.16,0.30469446920599536,0.42818198585018835,0.2880733620352217,0.7011001224777527,0.17168495357936134,0.8729822885713694
141,8.988,8.53,1.18,0.3051774782092703,0.4287275426146715,0.2874309349175423,0.7051158739257374,0.17009170347143648,0.8754446177608962
142,9.051,8.59,1.16,0.30564571037254423,0.4292617735978094,0.28676169848177285,0.7091455178319359,0.16847249629611666,0.8779012005749388
143,9.111,8.64,1.06,0.3060995847931198,0.429785191130158,0.28606630279047646,0.7131875120174107,0.16682842036448206,0.8803514408999229
144,9.152,8.7,1.02,0.30653951904421994,0.4302983019750001,0.2853454032158181,0.717240323556,0.16516057766762837,0.8827947326419665
145,9.214,8.75,1.07,0.3069659289848431,0.4308016070118393,0.28459966019045935,0.7213024293769948,0.16347008304562408,0.8852304601783704
146,9.275,8.81,1.02,0.30737922857511984,0.4312956009323242,0.2838297389583025,0.7253723168624363,0.1617580633545555,0.887657998820939
147,9.335,8.86,1.0,0.3077798296971291,0.4317807719486551,0.28303630932504736,0.7294484844386094,0.16002565663194576,0.8900767152907604
148,9.398,8.91,1.08,0.3081681419811083,0.43225760151448417,0.2822200454084617,0.7335294421613048,0.15827401126072105,0.8924859682040562
149,9.439,8.97,1.1,0.3085445726369852,0.4327265640582808,0.2813816253882372,0.7376137122943459,0.156504285131836,0.8948851085686702
150,9.48,9.03,1.05,0.3089095262911602,0.433188126729103,0.280521731255289,0.741699829880814,0.15471764480564346,0.8972734802907312
151,9.582,9.08,1.1,0.30926340482847325,0.433642749154703,0.27964104856036176,0.7457863433063637,0.15291526467211583,0.8996504206910106
152,9.622,9.14,1.13,0.3096066072392894,0.43409088321189787,0.27874026616181974,0.7498718148540708,0.15109832611007734,0.9020152610305202
153,9.683,9.19,1.11,0.3099395294716488,0.43453297280914355,0.27782007597252883,0.7539548212503248,0.1492680166456665,0.904367327044946
154,9.703,9.25,1.09,0.31026256428843163,0.434969453681262,0.2768811727057676,0.7580339542014102,0.14742552911030682,0.9067059394875866
155,9.766,9.3,1.14,0.3105761011295043,0.4354007531962724,0.27592425362012446,0.7621078209205305,0.14557206079852456,0.9090304146805064
156,9.827,9.36,1.08,0.310880525978829,0.4358272901742782,0.27495001826335747,0.7661750446451101,0.1437088126260089,0.9113400650735765
157,9.867,9.41,1.15,0.31117622123652716,0.43624947471834336,0.27395916821519145,0.7702342651442206,0.14183698828835153,0.9136341998110111
158,9.969,9.47,1.17,0.31146356559589694,0.43666770805727345,0.27295240682901406,0.7742841392159613,0.1399577934209348,0.9159121253048822
159,9.991,9.52,1.12,0.3117429339253772,0.4370823824001831,0.2719304389724094,0.778323341174575,0.13807243476047815,0.9181731458149591
160,10.032,9.58,1.05,0.31201469715543845,0.4374938808027033,0.2708939707664456,0.7823505633270132,0.13618211930881338,0.9204165640340729
161,10.094,9.63,1.06,0.31227922217034837,0.4379025770446492,0.269843709323594,0.7863645164386488,0.13428805349951792,0.9226416816780847
162,10.155,9.69,1.09,0.3125368717047263,0.4383088355189465,0.26878036248411535,0.7903639301878802,0.1323914423680578,0.9248478000794595
163,10.216,9.74,1.05,0.3127880042447552,0.43871301113159217,0.2677046385507168,0.7943475536094385,0.1304934887260616,0.9270342207834261
164,10.258,9.8,1.04,0.31303297393388835,0.4391154492124072,0.26661724602127496,0.7983141555262872,0.12859539234029743,0.929200246145709
165,10.319,9.85,1.1,0.31327213048287084,0.4395164854363295,0.2655188933194158,0.8022625249700689,0.12669834911690325,0.9313451799308387
166,10.38,9.91,1.07,0.3135058190838919,0.4399164457549853,0.26441028852277926,0.8061914715900378,0.12480355029142762,0.9334683279100493
167,10.441,9.96,1.03,0.31373438032869144,0.44031564633827636,0.2632921390888532,0.8100998260502369,0.12291218162526305,0.9355689984577686
168,10.482,10.02,1.06,0.31395815013046047,0.4407143935257213,0.2621651515783611,0.8139864404143708,0.12102542260908733,0.937646503145713
169,10.545,10.07,1.08,0.31417745964939847,0.4411129837872868,0.2610300313762969,0.8178501885174837,0.11914444567396608,0.9397001573336017
170,10.606,10.13,0.99,0.3143926352218345,0.44151170369344145,0.25988748241079057,0.8216899663233971,0.11727041541079765,0.9417292807555692
171,10.728,10.18,0.98,0.3146039982928625,0.44191082989415964,0.2587382068700245,0.8255046922669936,0.11540448779880008,0.9437331981014375
172,10.748,10.24,1.0,0.3148118653524826,0.44231062910661345,0.25758290491741215,0.8292933075806852,0.11354780944375273,0.9457112395921169
173,10.768,10.29,0.93,0.3150165478752546,0.4427113581112997,0.25642227440525145,0.8330547766046377,0.11170151682669836,0.9476627415484856
174,10.808,10.35,0.86,0.3152183522634656,0.4431132637563704,0.25525701058703515,0.8367880870804918,0.10986673556377512,0.9495870469531956
175,10.87,10.4,0.9,0.3154175797937964,0.4435165829699427,0.25408780582855356,0.8404922504284394,0.10804457967779406,0.9514835060048803
176,10.912,10.46,0.88,0.3156145265674557,0.4439215427801583,0.25291534931786624,0.8441663020075707,0.10623615088210744,0.9533514766642321
177,10.974,10.51,0.82,0.31580948346372767,0.4443283603427468,0.25174032677416097,0.8478093013593623,0.10444253787722835,0.9551903251913655
178,11.057,10.57,0.87,0.3160027360968526,0.44473724297582623,0.2505634201554649,0.8514203324341109,0.10266481566058508,0.9569994266737979
179,11.077,10.62,0.9,0.31619456477612656,0.44514838820165853,0.249385307365146,0.8549985038000307,0.10090404484974318,0.958778165544307
180,11.139,10.68,0.84,0.3163852444690854,0.44556198379507383,0.24820666195715071,0.8585429488346581,0.09916127101940007,0.9605259360878822
181,11.182,10.73,0.84,0.31657504476762577,0.44597820783828146,0.24702815283995705,0.8620528258981912,0.09743752405245287,0.9622421429370344
182,11.264,10.79,0.92,0.31676422985691804,0.4463972287818063,0.24585044397927272,0.8655273184884267,0.09573381750545773,0.9639262015547916
183,11.325,10.84,0.88,0.3169530584869762,0.4468192055113069,0.2446741940996,0.8689656353769748,0.09405114798882734,0.9655775387048003
184,11.365,10.9,0.83,0.31714178394676745,0.44724428742005246,0.24350005638492897,0.8723670107264029,0.09239049456214433,0.9671955929080268
185,11.428,10.95,0.89,0.3173306540407616,0.4476726144868545,0.24232867817897635,0.8757307041878698,0.09075281814500528,0.9687798148855973
186,11.49,11.01,0.87,0.31751991106784044,0.4481043173592601,0.24116070068551126,0.879056000978717,0.08913906094384898,0.970329667987324
187,11.532,11.06,0.79,0.31770979180250397,0.448539517441829,0.23999675866937836,0.8823422119393841,0.08755014589524446,0.9718446286055034
188,11.592,11.12,0.79,0.31790052747832215,0.44897832698933127,0.23883748015883854,0.8855886735690262,0.08598697612612057,0.9733241865736018
189,11.655,11.17,0.78,0.3180923437735787,0.44942084920472564,0.2376834861498241,0.8887947480393414,0.08445043443141266,0.9747678455495028
190,11.716,11.23,0.71,0.31828546079904535,0.44986717834180845,0.23653539031266863,0.8919598231863433,0.0829413827695746,0.9761751233830449
191,11.8,11.28,0.66,0.3184800930878073,0.45031739981244046,0.2353937987018131,0.8950833124800769,0.0814606617763464,0.9775455524676528
192,11.82,11.34,0.73,0.3186764495870427,0.45077159029827046,0.23425930946891213,0.8981646549725439,0.08000909029709279,0.9788786800759125
193,11.861,11.39,0.7,0.3188747336516416,0.4512298178668667,0.2331325125796806,0.901203315224272,0.07858746493793889,0.9801740686789421
194,11.902,11.45,0.67,0.31907514303953016,0.4516921420921512,0.23201398953473912,0.9041987832100643,0.07719655963584154,0.9814312962493773
195,11.963,11.5,0.73,0.3192778699085536,0.45215861417901615,0.23090431309465104,0.9071505742045092,0.07583712524767845,0.9826499565477399
196,12.024,11.56,0.74,0.31948310081476833,0.4526292770919845,0.22980404700931717,0.9100582286478437,0.07450988915842127,0.9838296593918865
197,12.086,11.61,0.69,0.31969101671200045,0.453104165687771,0.2287137457519012,0.9129213119927813,0.07321555490847274,0.9849700309092264
198,12.168,11.66,0.73,0.3199017929525491,0.4535833068515998,0.22763395425747743,0.9157394145329563,0.07195480184027815,0.9860707137714281
199,12.208,11.72,0.77,0.3201155992889286,0.45406671963714373,0.2265652076666158,0.918512151213734,0.07072828476436425,0.9871313674113821
200,12.249,11.78,0.72,0.3203325998765675,0.45455441540995284,0.2255080310741452,0.9212391614261995,0.06953663364499912,0.9881516682222574
201,12.31,11.83,0.69,0.3205529532773973,0.4550463979942528,0.22446293928334413,0.9239201087852483,0.06838045330570532,0.9891313097385321
202,12.37,11.89,0.74,0.32077681246427525,0.4555426638229993,0.2234304365657865,0.9265546808928098,0.06726032315490053,0.9900700027988819
203,12.391,11.94,0.68,0.32100432482620267,0.4560432020910792,0.22241101642702893,0.929142589087337,0.0661767969319744,0.9909674756907635
204,12.453,12.0,0.61,0.321235632174322,0.45654799491154197,0.2214051613782734,0.9316835681807486,0.06513040247412029,0.9918234742764472
205,12.534,12.05,0.62,0.3214708707487019,0.45705701747473715,0.2204133427140694,0.9341773761840777,0.06412164150422951,0.9926377621001741
206,12.616,12.11,0.64,0.3217101712259373,0.4575702382102142,0.21943602029604667,0.9366237940231111,0.06315098944011732,0.993410120476031
207,12.638,12.16,0.51,0.3219536587275954,0.4580876189512255,0.21847364234261352,0.9390226252453191,0.06221889522528311,0.9941403485561139
208,12.701,12.22,0.51,0.322201452829531,0.4586091151016649,0.21752664522451423,0.9413736957193557,0.06132578118132372,0.9948282633785753
209,12.742,12.27,0.58,0.3224536675720774,0.4591346758052755,0.21659545326612473,0.9436768533284232,0.060472042882031236,0.995473699895279
210,12.825,12.33,0.55,0.3227104114711076,0.45966424411697376,0.21568047855236977,0.9459319676588022,0.059658049049112385,0.9960765109790153
211,12.886,12.38,0.52,0.3229717875299564,0.46019775717615524,0.21478212074115316,0.9481389296849053,0.058884141469372646,0.99663656741053
212,12.906,12.44,0.6,0.3232378932522034,0.46073514638187096,0.21390076688119064,0.9502976514522714,0.058150634933152846,0.997153757845854
213,12.947,12.49,0.61,0.3235088206553417,0.4612763375697796,0.21303679123514987,0.9524080657599007,0.05745781719379823,0.9976279887645427
214,13.008,12.55,0.54,0.32378465628538483,0.4618212511907942,0.21219055510805146,0.9544701258431325,0.05680594894796072,0.9980591843994746
215,13.07,12.6,0.57,0.3240654812324953,0.46236980249135784,0.2113624066809674,0.956483805057933,0.05619526383657336,0.9984472866488794
216,13.131,12.66,0.59,0.32435137114774176,0.4629219016952939,0.21055268085016268,0.9584490965670556,0.055625968466381924,0.9987922549712744
217,13.172,12.71,0.52,0.32464239626111163,0.46347745418719355,0.20976169907192624,0.9603660130282693,0.055098242451948186,0.9990940662639971
218,13.296,12.77,0.48,0.3249386214009203,0.46403636069731563,0.20898976921339632,0.9622345862847556,0.05461223847803903,0.9993527147260695
219,13.316,12.82,0.5,0.3252401060147626,0.4645985174879801,0.20823718540970382,0.9640548670578262,0.05416808238229454,0.9995682117061547
220,13.357,12.88,0.43,0.3255469041921488,0.46516381654144207,0.2075042279277557,0.9658269246421408,0.05376587325802504,0.9997405855363327
221,13.399,12.93,0.39,0.3258590646889545,0.46573214574922245,0.20679116303696113,0.9675508466035673,0.05340568357691379,0.9998698813523897
222,13.46,12.99,0.45,0.3261766309537899,0.46630338910285474,0.20609824288716144,0.9692267384797385,0.05308755933130403,0.9999561609012526
223,13.502,13.04,0.48,0.32649964115636493,0.4668774268859839,0.20542570539397037,0.9708547234832582,0.0528115201956408,0.999999502336144
224,13.563,13.1,0.45,0.32682812821789414,0.4674541358677288,0.20477377413168002,0.9724349422074041,0.05257755970654316,1.0
225,13.626,13.15,0.5,0.32716211984356675,0.4680333894972055,0.20414265823384328,0.9739675523341359,0.05238564546093309,0.9999577641976916
226,13.688,13.21,0.55,0.3275016385570963,0.4686150580990987,0.2035325523016189,0.975452728344258,0.05223571933165692,0.9998729209575801
227,13.73,13.26,0.53,0.3278467017373706,0.46919900907018103,0.20294363631997392,0.9768906612296403,0.05212769770008267,0.9997456117829739
228,13.792,13.32,0.53,0.3281973216572344,0.4697851070766842,0.20237607558186796,0.9782815582074675,0.05206147170522043,0.9995759933940817
229,13.876,13.37,0.59,0.3285535055244574,0.47037321425244466,0.20183002062057784,0.9796256424365581,0.05203690750898648,0.999364237461079
230,13.897,13.43,0.57,0.32891525552496226,0.47096319039775086,0.2013056071503561,0.980923152735843,0.05205384657730741,0.9991105303288865
231,14.0,13.48,0.54,0.32928256886841695,0.4715548931788239,0.20080295601562803,0.982174343305117,0.05211210597682242,0.9988150727342131
232,14.02,13.54,0.54,0.329655437836316,0.4721481783278652,0.2003221731489251,0.9833794834482086,0.05221147868699886,0.9984780795153505
233,14.061,13.59,0.52,0.33003384983269585,0.4727428998436056,0.19986334953774693,0.9845388572986883,0.05235173392751646,0.9980997793151445
234,14.123,13.65,0.43,0.3304177874376363,0.4733389101922873,0.19942656120055943,0.985652763548177,0.05253261750078817,0.9976804142775514
235,14.185,13.7,0.4,0.33080722846369354,0.4739360605090175,0.19901186917215322,0.986721515177251,0.05275385214945478,0.9972202397382437
236,14.225,13.76,0.43,0.3312021460153874,0.474534200799434,0.19861931949859493,0.9877454391889045,0.05301513792862039,0.9967195239098142
237,14.267,13.81,0.4,0.3316025085518262,0.4751331801416338,0.1982489432419991,0.9887248763445196,0.05331615259248383,0.9961785475622331
238,14.369,13.87,0.37,0.33200827995250937,0.4757328468883152,0.19790075649531907,0.9896601809022584,0.05365655199489131,0.9955976036992542
239,14.39,13.92,0.47,0.3324194195862985,0.4763330488690809,0.19757476040730818,0.9905517203577098,0.054035970503221786,0.994976997231491
240,14.431,13.98,0.49,0.33283588238351147,0.476933633592841,0.19727094121776886,0.9913998751864147,0.05445402142494148,0.9943170446468402
241,14.514,14.03,0.45,0.3332576189110704,0.47753444845024295,0.19698927030320373,0.9922050385876254,0.05491029744613024,0.9936180736789367
242,14.554,14.09,0.5,0.3336845754506292,0.47813534091605586,0.19672970423299085,0.9929676162284503,0.055404371081300065,0.9928804229743259
243,14.595,14.14,0.54,0.33411669407961453,0.4787361587514321,0.19649218483622874,0.9936880259874693,0.05593579513388402,0.9921044417590585
244,14.656,14.2,0.51,0.3345539127551361,0.4793367502059807,0.1962766392794349,0.9943666976969379,0.05650410316684377,0.9912904895054656
245,14.739,14.25,0.51,0.33499616540074456,0.47993696421959764,0.19608298015531272,0.9950040728828083,0.05710880998290725,0.9904389355999493
246,14.76,14.31,0.58,0.3354433819960434,0.4805366506240146,0.19591110558281782,0.995600604501936,0.05774941211400635,0.9895501590127036
247,14.823,14.36,0.53,0.3358954886691834,0.48113566034404165,0.19576089931875784,0.9961567566759683,0.05842538831953453,0.9886245479702972
248,14.885,14.41,0.55,0.33635240779230274,0.4817338455984763,0.19563223088115425,0.9966730044214817,0.059136200093082965,0.9876624996320315
249,14.925,14.47,0.58,0.3368140580800024,0.48233106010063675,0.19552495568457837,0.9971498333759563,0.05988129217734597,0.9866644197708823
250,14.987,14.53,0.55,0.3372803546909696,0.48292715925844854,0.19543891518765122,0.9975877395191239,0.0606600930869176,0.9856307224596655
251,15.049,14.58,0.46,0.3377512093328716,0.48352200037398807,0.19537393705286057,0.9979872288891818,0.061472015638725994,0.9845618297628395
252,15.09,14.64,0.47,0.33822653037062345,0.48411544284236596,0.19532983531878503,0.9983488172933749,0.06231645748986217,0.983458171434146
253,15.152,14.69,0.52,0.3387062229380978,0.4847073483498269,0.19530641058473802,0.9986730300125464,0.0631928016825399,0.9823201846201357
254,15.213,14.75,0.49,0.33919018905330234,0.4852975810709326,0.19530345020776863,0.9989604014993684,0.06410041719586133,0.9811483135695788
255,15.276,14.8,0.49,0.3396783277370097,0.48588600786469094,0.19532072851188076,0.9992114750701092,0.0650386595039884,0.9799430093487729
256,15.357,14.86,0.58,0.3401705351347937,0.4864724984694888,0.19535800700926872,0.9994268025899086,0.06600687114027114,0.9787047295627521
257,15.378,14.91,0.56,0.34066670464240795,0.4870569256966857,0.19541503463332766,0.9996069441516191,0.06700438226687642,0.9774339380823553
258,15.48,14.97,0.52,0.341166727034444,0.48763916562272036,0.19549154798317261,0.999752467748308,0.06803051124948033,0.9761311047770442
259,15.521,15.02,0.59,0.34167049059621796,0.4882190977795828,0.19558727157937608,0.9998639489395661,0.06908456523663171,0.9747967052533021
260,15.542,15.08,0.61,0.34217788125885507,0.48879660534349845,0.19570191813062668,0.9999419705118002,0.07016584074344791,0.9734312205983985
261,15.583,15.13,0.55,0.3426887827375631,0.489371575321668,0.19583518881103473,0.9999871221326876,0.07127362423934522,0.9720351371293323
262,15.644,15.19,0.54,0.343203076673104,0.4899438987369081,0.19598677354784655,1.0,0.07240719273954169,0.9706089461468146
263,15.706,15.24,0.59,0.343720642776482,0.4905134708100407,0.19615635131936177,0.999981206485062,0.07356581440009824,0.9691531436941991
264,15.746,15.3,0.52,0.3442413589768743,0.4910801911398756,0.19634359046286717,0.9999313497711831,0.07474874911627481,0.9676682303213073
265,15.847,15.35,0.46,0.3447651015728282,0.4916439638806246,0.19654814899239076,0.9998510434874773,0.07595524912395704,0.9661547108531148
266,15.868,15.41,0.52,0.34529174538673324,0.49220469791657445,0.19676967492604505,0.999740906338488,0.07718455960386592,0.9646130941632625
267,15.911,15.46,0.54,0.3458211639225563,0.49276230703382917,0.19700780662268438,0.9996015617300128,0.07843591928820268,0.9630438929523238
268,15.972,15.52,0.49,0.3463532295267889,0.49331671008891287,0.19726217312754785,0.9994336373914287,0.07970856106930875,0.9614476235307041
269,16.035,15.57,0.53,0.34688781355251125,0.4938678311740093,0.19753239452648516,0.9992377649948199,0.08100171260985999,0.9598248056060088
270,16.118,15.63,0.59,0.3474247865264299,0.49441559977861216,0.197818082308299,0.999014579771268,0.08231459695408656,0.9581759620746788
271,16.138,15.68,0.58,0.34796401831870766,0.49495995094735984,0.19811883973470798,0.9987647201247296,0.08364643313950887,0.956501618817725
272,16.2,15.74,0.59,0.3485053783153859,0.495500825433844,0.19843426221744806,0.998488827244005,0.08499643680869418,0.9548023045004786
273,16.262,15.79,0.66,0.3490487355931908,0.49603816985018434,0.19876393770206774,0.9981875447133514,0.08636382082057924,0.9530785503763607
274,16.326,15.85,0.64,0.34959395909652,0.49657193681216166,0.19910744705802766,0.9978615181223328,0.0877477958609649,0.9513308900946978
275,16.365,15.9,0.59,0.3501409178164232,0.4971020850796969,0.19946436447475982,0.9975113946754814,0.08914757105185639,0.9495598595126092
276,16.446,15.96,0.64,0.350689480971398,0.4976285796924529,0.1998342578633643,0.9971378228023215,0.09056235455938236,0.9477659965109322
277,16.466,16.01,0.63,0.351239518189841,0.49815139210033377,0.20021668926362748,0.9967414517682608,0.09199135420006421,0.945949840814127
278,16.569,16.07,0.56,0.3517908996939939,0.498670500288647,0.20061121525603315,0.996322931286831,0.09343377804521047,0.9441119338141143
279,16.589,16.12,0.58,0.35234349648522223,0.4991858888976896,0.20101738737840077,0.9958829111338348,0.0948888350231859,0.9422528183980524
280,16.65,16.17,0.58,0.3528971805304452,0.49969754933651933,0.20143475254673365,0.9954220407640743,0.09635573551926632,0.9403730387801422
281,16.713,16.23,0.53,0.3534518249495084,0.5002054798906684,0.20186285347981964,0.9949409689314651,0.09783369197273259,0.938473140337573
282,16.754,16.28,0.54,0.3540073042032517,0.5007096858235539,0.2023012291270842,0.9944403433133642,0.09932191947078398,0.936553669450737
283,16.836,16.34,0.63,0.3545634942819756,0.5012101794713304,0.2027494150991445,0.9939208101399405,0.10081963633877754,0.9346151733477737
284,16.856,16.39,0.62,0.355120272893955,0.5017069803309223,0.2032069441004507,0.993383013829332,0.10232606472623659,0.9326581999533876
285,16.939,16.45,0.6,0.35567751965361205,0.5022001151409631,0.20367334636333476,0.9928275966292417,0.10384043118803538,0.9306832977417436
286,16.96,16.5,0.67,0.3562351162689337,0.5026896179553656,0.20414815008273027,0.9922551982655317,0.1053619672601752,0.9286910155930925
287,17.022,16.56,0.71,0.35679294672773,0.5031755302092416,0.20463088185081577,0.9916664555982697,0.1068899100296111,0.9266819026536655
288,17.083,16.61,0.67,0.3573508974823542,0.5036579007768986,0.2051210670908741,0.9910620022855605,0.10842350269763926,0.9246565081983553
289,17.144,16.67,0.69,0.35790885763253866,0.5041367860216551,0.20561823048972983,0.990442468455375,0.1099619951364069,0.9226153814957607
290,17.205,16.73,0.75,0.3584667191060253,0.5046122498372406,0.20612189642820428,0.9898084803855599,0.11150464443815948,0.9205590716752671
291,17.246,16.78,0.71,0.3590243768366977,0.5050843636805828,0.2066315894090947,0.9891606601921982,0.1130507154568854,0.9184881275959563
292,17.308,16.83,0.68,0.35958172893993257,0.5055532065958162,0.20714683448222157,0.9884996255265588,0.11459948134205107,0.9164030977172155
293,17.349,16.89,0.72,0.36013867688490364,0.506018865229378,0.20766715766608976,0.98782598928092,0.1161502240641441,0.9143045299709558
294,17.411,16.94,0.7,0.3606951256635746,0.5064814338360849,0.20819208636569222,0.9871403593035779,0.11770223493175246,0.9121929716353379
295,17.473,17.0,0.63,0.36125098395612015,0.5069410142760952,0.20872114978596013,0.9864433381232968,0.11925481509988901,0.9100689692098957
296,17.513,17.05,0.66,0.3618061642925059,0.5073977160026779,0.20925387934032985,0.9857355226834205,0.12080727606923225,0.907933068291942
297,17.575,17.11,0.69,0.36236058320994285,0.5078516560407172,0.209789809053891,0.9850175040857996,0.1223589401758991,0.905785813454129
298,17.679,17.16,0.68,0.36291416140591026,0.5083029589558796,0.2103284759606149,0.9842898673446062,0.12390914107129662,0.9036277481230248
299,17.7,17.22,0.7,0.3634668238864142,0.5087517568143817,0.2108694204942066,0.9835531911500434,0.12545722419152655,0.9014594144585717
300,17.742,17.27,0.79,0.3640185001091261,0.5091981891332918,0.2114121868721442,0.9828080476419693,0.12700254721577406,0.899281353234253
301,17.782,17.33,0.78,0.36456912412103043,0.5096424028213081,0.21195632347247206,0.9820550021935069,0.1285444805131115,0.8970941037177387
302,17.843,17.39,0.77,0.3651186346902099,0.5100845521099555,0.21250138320292225,0.9812946132046865,0.13008240757718406,0.8948982035516987
303,17.904,17.44,0.85,0.36566697543141147,0.5105247984751659,0.2130469238619692,0.9805274319061341,0.13161572544831127,0.8926941886343931
304,17.965,17.5,0.89,0.36621409492506446,0.5109633105491981,0.21359250849148084,0.9797540021726946,0.13314384512261598,0.8904825929995934
305,18.047,17.55,0.84,0.3667599468294576,0.5114002640228738,0.21413770572068863,0.9789748603467797,0.13466619194786436,0.8882639486953976
306,18.068,17.6,0.87,0.3673044899858269,0.511835841538108,0.214682090101251,0.9781905350711418,0.13618220600577471,0.8860387856615471
307,18.129,17.66,0.9,0.3678476885161395,0.512270232570733,0.2152252424332581,0.9774015471306388,0.13769134248063128,0.8838076316049239
308,18.191,17.71,0.85,0.36838951191340047,0.5127036333036293,0.2157667500821435,0.9766084093022553,0.1391930720141086,0.8815710118729798
309,18.253,17.77,0.84,0.3689299351243316,0.513136246490205,0.21630620728660438,0.975811626212282,0.14068688104624852,0.879329449324939
310,18.294,17.82,0.89,0.3694689386242958,0.5135682813082831,0.21684321545772725,0.9750116941992919,0.1421722721425478,0.8770834642006866
311,18.397,17.88,0.83,0.37000650848434896,0.5139999532044809,0.21737738346955157,0.9742091011814434,0.14364876430710471,0.8748335739872615
312,18.417,17.93,0.75,0.37054263643030755,0.5144314837291623,0.21790832794128753,0.9734043265266291,0.14511589328174684,0.8725802932828516
313,18.458,17.99,0.81,0.3710773198937163,0.5148631003620509,0.21843567351135576,0.9725978409239976,0.14657321183101818,0.8703241336581257
314,18.519,18.05,0.84,0.37161056205459336,0.5152950363285718,0.21895905310337088,0.9717901062553786,0.14802029001283404,0.8680656035146844
315,18.58,18.1,0.79,0.37214237187581706,0.5157275304069713,0.2194781081841494,0.9709815754651575,0.1494567154345171,0.865805207940388
316,18.621,18.16,0.83,0.3726727641290091,0.5161608267262484,0.21999248901375532,0.9701726924273167,0.15088209349384019,0.8635434485613295
317,18.704,18.21,0.9,0.37320175941177036,0.5165951745549103,0.22050185488749227,0.969363891808803,0.15229604760465457,0.861280823390253
318,18.725,18.26,0.87,0.3737293841561316,0.5170308280805618,0.22100587436963476,0.968555598928976,0.15369821940667278,0.8590178266712678
319,18.788,18.32,0.87,0.37425567062809606,0.5174680461803471,0.221504225518592,0.9677482296155089,0.15508826895898672,0.8567549487208
320,18.83,18.37,0.96,0.37478065691816576,0.5179070921822844,0.22199659610313716,0.966942190057517,0.15646587491693756,0.8544926757647918
321,18.89,18.43,0.98,0.3753043869227745,0.5183482336175496,0.22248268380931582,0.9661378766569066,0.15783073469200196,0.8522314897721888
322,18.953,18.48,0.95,0.3758269103165819,0.5187917419637855,0.22296219643765083,0.9653356758789583,0.1591825645944123,0.8499718682847759
323,18.993,18.54,0.99,0.37634828251561975,0.5192378923795269,0.2234348520902696,0.9645359641031487,0.16052109995829408,0.8477142842434179
324,19.056,18.59,1.01,0.3768685646313127,0.5196869634298487,0.22390037934760762,0.9637391074751741,0.16184609524917906,0.8454592058107628
325,19.139,18.65,0.95,0.3773878234154248,0.5201392368033596,0.22435851743439247,0.9629454617610803,0.16315732415381795,0.8432070961904672
326,19.16,18.7,0.92,0.3779061311960084,0.5205949970206731,0.22480901637466294,0.9621553722043663,0.16445457965225382,0.8409584134430514
327,19.221,18.76,0.98,0.37842356580444686,0.5210545311345038,0.22525163713561547,0.961369173386927,0.1657376740721228,0.8387136102985457
328,19.303,18.82,0.94,0.37894021049369153,0.5215181284215398,0.2256861517600946,0.9605871890946679,0.16700643912512214,0.836473133966159
329,19.323,18.87,0.93,0.3794561538477972,0.5219860800662408,0.22611234348756226,0.9598097321885471,0.16826072592553276,0.8342374259412326
330,19.385,18.92,1.02,0.37997148968285305,0.5224586788367149,0.2265300068634097,0.9590371044816464,0.16950040499063113,0.8320069218097391
331,19.447,18.98,1.06,0.38048631693940105,0.5229362187528199,0.22693894783654087,0.9582695966226504,0.17072536622279166,0.8297820510505325
332,19.507,19.03,1.04,0.3810007395664228,0.523418994746658,0.2273389838452478,0.9575074879858816,0.17193551887308173,0.8275632368355302
333,19.569,19.09,1.1,0.3815148663969756,0.5239073023156544,0.2277299438914708,0.956751046567917,0.17313079148619634,0.8253508958279847
334,19.65,19.14,1.15,0.38202881101556574,0.5244014371684493,0.22811166860358648,0.9560005288908292,0.17431113182666583,0.8231454379790347
335,19.672,19.2,1.12,0.38254269161737375,0.5249016948638571,0.2284840102879141,0.9552561799121713,0.17547650678637153,0.8209472663227756
336,19.712,19.25,1.12,0.38305663085949493,0.5254083704431796,0.22884683296917882,0.954518232941894,0.17662690227350555,0.8187567767701966
337,19.773,19.31,1.18,0.3835707557044031,0.525921758056175,0.22920001242022042,0.953786909566442,0.17776232308320358,0.8165743579023818
338,19.834,19.36,1.14,0.3840851972558932,0.5264421505810032,0.22954343618128503,0.9530624195802657,0.17888279275015948,0.8144003907634286
339,19.874,19.42,1.09,0.3846000905877889,0.5269698392384822,0.22987700356927923,0.9523449609249212,0.17998835338358252,0.8122352486535286
340,19.936,19.48,1.12,0.385115574565721,0.5275051132009965,0.23020062567738875,0.9516347196358281,0.18107906548489194,0.8100792969226401
341,20.018,19.53,1.1,0.3856317916622962,0.5280482591964061,0.2305142253654864,0.9509318697966066,0.18215500774855053,0.8079328927651683
342,20.039,19.58,1.0,0.38614888776598083,0.5285995611072996,0.2308177372417727,0.9502365735007567,0.18321627684641068,0.8057963850160558
343,20.101,19.64,1.02,0.3866670119840166,0.5291592995659425,0.2311111076360955,0.9495489808203408,0.18426298719588716,0.8036701139487351
344,20.164,19.69,1.07,0.3871863164396755,0.5297277515452641,0.23139429456538155,0.9488692297812993,0.18529527071219046,0.8015544110754296
345,20.248,19.75,1.04,0.38770695606413713,0.5303051899462196,0.23166726769158633,0.9481974463450364,0.18631327654475605,0.7994495989503326
346,20.289,19.8,1.05,0.38822908838324577,0.5308918831818612,0.23193000827250984,0.9475337443959806,0.18731717079790966,0.797355990976213
347,20.33,19.86,1.16,0.3887528732993705,0.5314880947584472,0.2321825091057391,0.9468782257349281,0.18830713623575449,0.795273891214962
348,20.391,19.91,1.16,0.389278472868569,0.5320940828539164,0.23242477446588058,0.9462309800780936,0.1892833719712574,0.7932035942025432
349,20.454,19.97,1.13,0.38980605107324356,0.532710099894069,0.2326568200351656,0.9455920850618522,0.19024609313954846,0.7911453847687324
350,20.495,20.02,1.2,0.3903357735904825,0.5333363921267997,0.23287867282745656,0.9449616062531994,0.19119553055551755,0.7890995378619909
351,20.556,20.08,1.25,0.39086780755629175,0.5339731991947476,0.2330903711056773,0.9443395971659492,0.19213193035589068,0.787066318379761
352,20.637,20.14,1.21,0.3914023213259568,0.5346207537067384,0.23329196429272905,0.9437260992826485,0.19305555362606064,0.785045981004497
353,20.657,20.19,1.21,0.3919394842308073,0.5352792808083969,0.23348351287601032,0.9431211420821773,0.1939666760120297,0.7830387700457918
354,20.718,20.25,1.25,0.392479466331699,0.5359489977523265,0.2336650883057147,0.9425247430730455,0.19486558731790535,0.7810449192890117
355,20.781,20.3,1.21,0.3930224381695541,0.5366301134682595,0.23383677288713345,0.9419369078324294,0.19575259108945245,0.7790646518508899
356,20.823,20.35,1.17,0.3935685705133306,0.537322828133601,0.23399865966722433,0.9413576300510166,0.1966280041842405,0.7770981800425593
357,20.884,20.41,1.21,0.39411803410579704,0.5380273327447934,0.2341508523157191,0.9407868915836914,0.197492156328928,0.7751457052405165
358,20.925,20.46,1.19,0.3946709994075,0.5387438086899362,0.23429346500103115,0.9402246625060287,0.19834538966421006,0.7732074177659873
359,20.987,20.52,1.12,0.3952276363392998,0.5394724273230812,0.23442662226120223,0.9396709011764353,0.19918805827792366,0.7712834967731218
360,21.048,20.57,1.17,0.39578811402383324,0.5402133495406274,0.23455045887008155,0.9391255543037027,0.20002052772676135,0.7693741101464027
361,21.11,20.63,1.23,0.3963526005262284,0.5409667253602284,0.2346651196988843,0.9385885570197048,0.20084317454700365,0.7674794144076023
362,21.151,20.68,1.23,0.39692126259436206,0.5417326935026319,0.23477075957323154,0.9380598329570052,0.20165638575463615,0.765599554632574
363,21.213,20.74,1.24,0.3974942653989117,0.5425113809768719,0.23486754312573546,0.937539294331202,0.20246055833519383,0.7637346643781464
364,21.274,20.8,1.33,0.39807177227342916,0.5433029026692477,0.2349556446441597,0.9370268420279391,0.20325609872370146,0.7618848656193179
365,21.378,20.85,1.3,0.39865394445465174,0.5441073609365382,0.2350352479151776,0.9365223656945805,0.20404342227514924,0.760050268696882
366,21.398,20.91,1.3,0.39924094082327155,0.5449248452039162,0.23510654606375794,0.9360257438365792,0.20482295272603876,0.7582309722755377
367,21.44,20.96,1.36,0.39983291764540474,0.5457554315680394,0.23516974138823377,0.9355368439185495,0.20559512164763366,0.756427063312474
368,21.481,21.01,1.38,0.40043002831502433,0.5465991824058064,0.23522504519115067,0.9350555224699902,0.20636036789164708,0.754638617036366
369,21.563,21.07,1.32,0.4010324230976548,0.547456145989273,0.23527267760603857,0.9345816251955009,0.20711913702917958,0.7528656969366968
370,21.584,21.12,1.33,0.4016402488756467,0.5483263561072346,0.23531286742028693,0.9341149870892714,0.20787188078379748,0.7511083547633169
371,21.645,21.18,1.36,0.40225364889536813,0.5492098316939935,0.2353458518943364,0.9336554325536416,0.2086190564597041,0.7493666305361631
372,21.726,21.23,1.3,0.4028727625166631,0.550106576465842,0.23537187657743197,0.9332027755215686,0.20936112636599402,0.7476405525650892
373,21.747,21.29,1.25,0.403497724964935,0.5510165785658107,0.23539119512020104,0.9327568195829157,0.21009855723798146,0.7459301374798099
374,21.808,21.34,1.27,0.4041286670862103,0.5519398102172366,0.23540406908431638,0.9323173581145606,0.21083181965657238,0.7442353902699853
375,21.85,21.4,1.2,0.40476571510553516,0.5528762273867152,0.23541076774949918,0.9318841744143382,0.2115613874666054,0.7425563043354582
376,21.933,21.45,1.17,0.4054089903890351,0.5538257694569878,0.23541156791810766,0.9314570418387748,0.21228773719500846,0.7408928615466164
377,21.994,21.51,1.23,0.40605860920994014,0.5547883589103076,0.23540675371752862,0.9310357239444936,0.21301134746952063,0.7392450323148082
378,22.096,21.57,1.25,0.4067146825188409,0.5557639010227968,0.23539661640054876,0.9306199746330897,0.21373269843862194,0.7376127756726936
379,22.117,21.62,1.22,0.4073773157184036,0.5567522835702927,0.2353814541438441,0.9302095382992014,0.21445227119322102,0.7359960393644055
380,22.138,21.67,1.23,0.40804660844274815,0.5577533765461643,0.2353615718446991,0.9298041499814993,0.21517054719060047,0.7343947599454126
381,22.199,21.73,1.29,0.40872265434168187,0.5587670318915825,0.2353372809160542,0.9294035355163732,0.21588800768111577,0.732808862892001
382,22.26,21.78,1.27,0.4094055408699858,0.5597930832387256,0.23530889907999147,0.9290074116941783,0.21660513313816815,0.7312382627203401
383,22.322,21.84,1.25,0.4100953490819683,0.5608313456674027,0.23527675015978428,0.9286154864179789,0.2173224026919939,0.7296828631151432
384,22.363,21.89,1.31,0.41079215343151604,0.5618816154755752,0.23524116387063976,0.9282274588647812,0.21804029356784096,0.7281425570679697
385,22.445,21.95,1.31,0.4114960215778874,0.5629436699642502,0.23520247560927265,0.9278430196492342,0.21875928052913296,0.7266172270251936
386,22.465,22.0,1.26,0.41220701419750005,0.5640172672372094,0.2351610262424568,0.9274618509897046,0.2194798353262453,0.7251067450456343
387,22.526,22.06,1.29,0.41292518480196394,0.5651021460160376,0.23511716189470877,0.9270836268765648,0.22020242615154256,0.7236109729678009
388,22.568,22.11,1.29,0.41365057956260654,0.5661980254709013,0.23507123373527922,0.9267080132424863,0.22092751710134628,0.722129762586656
389,22.631,22.17,1.22,0.4143832371417308,0.5673046050675219,0.2350235977646629,0.9263346681345047,0.2216555676455009,0.7206629558397698
390,22.693,22.23,1.19,0.4151231885308345,0.5684215644307764,0.2349746146008587,0.9259632418876352,0.2223870321051796,0.7192103850027177
391,22.755,22.28,1.27,0.41587045689600594,0.5695485632253414,0.2349246492656153,0.9255933772998595,0.2231223591395194,0.7177718728935432
392,22.838,22.33,1.23,0.41662505743068856,0.5706852410537783,0.23487407097088447,0.9252247098083041,0.22386199124160192,0.7163472330860821
393,22.857,22.39,1.23,0.4173869972159856,0.5718312173724363,0.2348232529056852,0.9248568676664174,0.22460636424422017,0.7149362701318995
394,22.899,22.44,1.31,0.4181562750886528,0.5729860914255225,0.2347725720235552,0.9244894721219048,0.22535590683581902,0.7135387797905453
395,22.96,22.5,1.34,0.41893288151692093,0.5741494421976707,0.2347224088307542,0.9241221375951142,0.22611104008698174,0.7121545492677798
396,23.022,22.55,1.3,0.419716798484292,0.5753208283853283,0.23467314717538754,0.9237544718574963,0.2268721769878532,0.7107833574613966
397,23.084,22.61,1.35,0.4205079993814592,0.5764997883872854,0.2346251740376189,0.9233860762097592,0.22763972199693291,0.7094249752142628
398,23.126,22.66,1.38,0.4213064489065136,0.5776858403146797,0.23457887932115223,0.923016545659415,0.22841407060174007,0.7080791655742021
399,23.187,22.72,1.35,0.4221121029736081,0.5788784820208192,0.23453465564618078,0.9226454690975157,0.2291956088919173,0.7067456840603682
400,23.268,22.77,1.29,0.4229249086302619,0.5800771911511803,0.2344928981440197,0.9222724294744807,0.2299847131453929,0.7054242789358006
401,23.289,22.83,1.35,0.42374480398349496,0.5812814252139367,0.23445400425364404,0.9218970039750238,0.23078174942826007,0.704114691485887
402,23.351,22.89,1.29,0.42457171813500744,0.5824906216713678,0.23441837352035622,0.9215187641922489,0.23158707320904465,0.702816656302474
403,23.413,22.94,1.23,0.42540557112563565,0.583704198052466,0.23438640739679378,0.9211372763009982,0.2324010289880032,0.7015299015733965
404,23.496,23.0,1.25,0.42624627388933717,0.5849215520870157,0.23435850904646166,0.9207521012305143,0.23322394994203405,0.7002541493772247
405,23.558,23.05,1.22,0.4270937282169499,0.586142061861383,0.23433508314994222,0.920362794836382,0.23405615758570056,0.6989891159830355
406,23.578,23.1,1.17,0.4279478267299482,0.5873650859962162,0.23431653571389927,0.919968908071637,0.23489796144876343,0.6977345121550006
407,23.62,23.16,1.21,0.42880845286437824,0.5885899638462304,0.23430327388292962,0.9195699871569094,0.23574965877050397,0.6964900434615878
408,23.682,23.21,1.28,0.4296754808651079,0.5898160157222206,0.2342957057542426,0.9191655737495216,0.23661153421100314,0.6952554105891546
409,23.744,23.27,1.27,0.4305487757904902,0.5910425431354203,0.23429424019509268,0.9187552051115463,0.23748385957944748,0.6940303096597294
410,23.784,23.32,1.27,0.431428193527519,0.5922688290643001,0.2342992866628601,0.9183384142768874,0.2383668935794776,0.6928144325527783
411,23.846,23.38,1.37,0.4323135808175606,0.5934941382438819,0.23431125502765407,0.9179147302175096,0.23926088157159794,0.6916074672307311
412,23.948,23.43,1.36,0.4332047752927767,0.5947177174776233,0.23433055539730893,0.9174836780089741,0.24016605535271218,0.6904090980679823
413,23.969,23.49,1.34,0.43410160552338284,0.595938795971913,0.2343575979446386,0.9170447789954475,0.24108263295291235,0.6892190061830018
414,24.009,23.55,1.39,0.43500389107591453,0.5971565856932035,0.23439279273680932,0.9165975509543576,0.24201081844972533,0.6880368697731271
415,24.071,23.6,1.4,0.43591144258269143,0.5983702817477962,0.23443654956670051,0.9161415082609152,0.24295080180009307,0.686862364451538
416,24.133,23.66,1.35,0.43682406182268274,0.5995790627842924,0.23448927778615236,0.9156761620527392,0.24390275869041728,0.6856951635858944
417,24.174,23.71,1.33,0.4377415418139902,0.6007820914187139,0.23455138614102822,0.915201020394896,0.24486685040502928,0.6845349386381295
418,24.237,23.76,1.36,0.43866366691816056,0.6019785146822973,0.2346232826080469,0.9147155884457432,0.24584322371345366,0.683381359504926
419,24.296,23.82,1.29,0.4395902129565315,0.6031674644919656,0.23470537423336674,0.9142193686239874,0.2468320107768132,0.6822340948584419
420,24.357,23.87,1.24,0.44052094733879277,0.6043480581434607,0.23479806697291605,0.9137118607773607,0.24783332907366518,0.6810928124868828
421,24.399,23.93,1.29,0.4414556292039117,0.6055193988271079,0.23490176553445286,0.9131925623532778,0.24884728134547765,0.6799571796345224
422,24.459,23.98,1.29,0.44239400957353575,0.6066805761661447,0.2350168732213158,0.9126609685717395,0.24987395556185524,0.6788268633407203
423,24.52,24.04,1.27,0.443335831517935,0.6078306667775145,0.235143791777809,0.9121165726005909,0.25091342490551577,0.677701530777425
424,24.582,24.09,1.27,0.44428083033449034,0.6089687348549851,0.23528292123613834,0.9115588657330898,0.2519657477769218,0.67658084958457
425,24.663,24.15,1.33,0.4452287337386849,0.6100938327744192,0.2354346597647996,0.9109873375676287,0.2530309678184088,0.6754644882027327
426,24.705,24.2,1.31,0.4461792620675162,0.6112050017209917,0.2355994035183336,0.910401476189377,0.25410911395761787,0.6743521162024643
427,24.725,24.26,1.33,0.44713212849522566,0.6123012723381365,0.23577754648838595,0.9098007683535897,0.2552002004700164,0.6732434046098462
428,24.767,24.32,1.42,0.44808703926123183,0.6133816653979905,0.2359694803560464,0.9091846996703561,0.25630422706027906,0.6721380262280231
429,24.828,24.37,1.39,0.44904369391015253,0.6144451924931025,0.23617559434547708,0.9085527547905727,0.2574211789623178,0.6710356559545921
430,24.889,24.42,1.36,0.4500017855438057,0.6154908567491592,0.23639627507886687,0.9079044175929121,0.2585510270577857,0.6699359710947709
431,24.95,24.48,1.41,0.4509610010850832,0.6165176535584795,0.23663190643276516,0.9072391713715219,0.25969372801293217,0.668838651670215
432,25.033,24.53,1.41,0.45192102155358976,0.6175245713340052,0.23688286939586378,0.9065564990241329,0.2608492244337348,0.6677433807232915
433,25.053,24.59,1.34,0.45288152235294227,0.6185105922834981,0.2371495419283095,0.9058558832401984,0.26201744503924645,0.6666498446165903
434,25.114,24.64,1.36,0.4538421735696169,0.6194746932036276,0.23743229882262842,0.9051368066886866,0.2631983048530842,0.6655577333274837
435,25.155,24.7,1.38,0.4548026402832183,0.6204158462936047,0.23773151156632788,0.9043987522052307,0.26439170541295715,0.6644667407376021
436,25.219,24.75,1.31,0.45576258288802585,0.6213330199879885,0.23804754820622528,0.9036412029784405,0.2655975349980753,0.6633765649171591
437,25.278,24.81,1.28,0.45672165742564036,0.6222251798082634,0.23838077321452283,0.9028636427353176,0.26681566887420655,0.6622869084041139
438,25.319,24.86,1.37,0.4576795159285111,0.6230912892327481,0.23873154735660673,0.9020655559258155,0.26804596955606785,0.6611974784781689
439,25.421,24.92,1.36,0.45863580677408006,0.6239303105843549,0.23910022756050314,0.9012464279066414,0.26928828708664687,0.6601079874295555
440,25.442,24.98,1.34,0.4595901750492331,0.6247412059356641,0.23948716678786683,0.9004057451243739,0.2705424593329615,0.6590181528224969
441,25.483,25.03,1.41,0.4605422629247062,0.6255229380307241,0.23989271390632538,0.8995429952979296,0.2718083122977086,0.6579276977531622
442,25.546,25.08,1.44,0.46149171003906214,0.6262744712229321,0.24031721356297459,0.8986576676003484,0.2730856604462387,0.6568363511018515
443,25.609,25.14,1.4,0.46243815389182913,0.6269947724283101,0.2407610060588304,0.8977492528398034,0.2743743070483106,0.6557438477791184
444,25.651,25.19,1.43,0.46338123024537214,0.6276828120934675,0.24122442722407872,0.8968172436397326,0.2756740445341041,0.6546499289655626
445,25.756,25.25,1.49,0.46432057353505835,0.6283375651775261,0.2417078082940186,0.8958611346180166,0.2769846548640089,0.6535543423450616
446,25.776,25.3,1.44,0.4652558172872653,0.6289580121472718,0.242211475785672,0.8948804225651795,0.2783059099117317,0.65245684233129
447,25.817,25.36,1.43,0.4661865945447774,0.6295431399847881,0.24273575137509298,0.893874606621625,0.2796375718602784,0.6513571902874349
448,25.88,25.41,1.48,0.46711253829911037,0.630091943206804,0.24328095177543854,0.8928431884540143,0.28097939361037705,0.6502551547390689
449,25.942,25.47,1.46,0.4680332819292923,0.6306034248949702,0.2438473886158609,0.8917856724309469,0.28233111920090526,0.6491505115801484
450,26.043,25.52,1.4,0.46894845964662324,0.631076597736243,0.24443536832126408,0.890701565798142,0.2836924842408626,0.6480430442720986
451,26.064,25.58,1.43,0.4698577069449179,0.6315104850725182,0.24504519199293592,0.8895903788533378,0.28506321635239606,0.6469325440359234
452,26.125,25.64,1.46,0.47076066105571673,0.6319041219586254,0.24567715529003933,0.8884516251211272,0.28644303562434126,0.645818810037238
453,26.145,25.69,1.41,0.47165696140793084,0.6322565562277447,0.24633154831192536,0.8872848215279676,0.2878316550756766,0.6447016495641087
454,26.207,25.75,1.43,0.47254625009136025,0.6325668495632675,0.24700865548121545,0.8860894885776522,0.2892287811282169,0.6435808781976028
455,26.268,25.8,1.51,0.4734281723235043,0.6328340785760802,0.2477087554275863,0.8848651505275975,0.29063411408781026,0.6424563199749919
456,26.309,25.85,1.48,0.47430237691906774,0.6330573358862149,0.24843212087219674,0.8836113355663466,0.2920473486332557,0.6413278075456079
457,26.371,25.91,1.47,0.4751685167615487,0.6332357312077802,0.2491790185127054,0.8823275759927234,0.2934681743121372,0.640195182319416
458,26.434,25.96,1.56,0.47602624927627923,0.6333683924360721,0.24994970890883278,0.8810134083970914,0.29489627604276797,0.6390582946084106
459,26.494,26.02,1.58,0.47687523690427847,0.6334544667357579,0.2507444463684369,0.8796683738451353,0.2963313346214646,0.6379170037609581
460,26.577,26.07,1.54,0.4777151475762732,0.6334931216290026,0.25156347883409463,0.8782920180644995,0.29777302723439775,0.6367711782892314
461,26.597,26.13,1.58,0.4785456551862438,0.6334835460824038,0.2524070477701932,0.8768838916345645,0.29922102797330347,0.635620695989902
462,26.638,26.18,1.6,0.4793664400638691,0.6334249515915844,0.2532753880505529,0.8754435501796131,0.3006750083543869,0.6344654440582663
463,26.698,26.24,1.55,0.48017718944525295,0.6333165732622854,0.25416872784663236,0.873970554565623,0.30213463783978173,0.6333053191960055
464,26.76,26.3,1.53,0.4809775979413328,0.6331576708867805,0.2550872885163961,0.8724644711008984,0.3035995843609408,0.6321402277128172
465,26.863,26.35,1.56,0.4817673680033663,0.6329475300144375,0.25603128449393253,0.8709248717407687,0.30506951484331796,0.6309700856221832
466,26.884,26.41,1.48,0.4825462103848859,0.6326854630152267,0.25700092317991297,0.8693513342965524,0.30654409573165975,0.6297948187315416
467,26.926,26.46,1.45,0.4833138445994909,0.6323708101349677,0.2579964048329659,0.8677434426489136,0.30802299351515416,0.6286143627271124
468,26.967,26.51,1.54,0.4840699993738136,0.6320029405410675,0.25901792246200306,0.8661007869656332,0.30950587525158,0.6274286632535934
469,27.029,26.57,1.57,0.48481441309496276,0.6315812533574785,0.26006566171949236,0.8644229639237058,0.3109924090894894,0.6262376759889073
470,27.09,26.62,1.55,0.4855468342517132,0.6311051786875536,0.2611398007956227,0.8627095769355745,0.3124822647873484,0.6250413667141667
471,27.133,26.68,1.63,0.48626702186869586,0.630574178623445,0.2622405103132712,0.8609602363792855,0.3139751142285088,0.6238397113790374
472,27.234,26.73,1.69,0.48697474593283624,0.6299877482406664,0.26336795322367235,0.8591745598323742,0.31547063193088964,0.6226326961626907
473,27.255,26.79,1.69,0.487669787811305,0.6293454165764308,0.26452228470271916,0.8573521723093213,0.31696849555030704,0.6214203175305545
474,27.316,26.84,1.7,0.4883519406602597,0.6286467475903703,0.2657036520478713,0.8554927065024563,0.31846838637646974,0.6202025822871046
475,27.4,26.9,1.79,0.4890210098236772,0.6278913411062643,0.2669121945757029,0.8535958030262178,0.3199699898207594,0.6189795076249377
476,27.419,26.95,1.77,0.48967681322159945,0.6270788337334028,0.2681480435201816,0.8516611106646583,0.32147299589501815,0.6177511211703404
477,27.48,27.01,1.81,0.4903191817271376,0.626208899766226,0.26941132193181816,0.8496882866220385,0.32297709968065885,0.616517461025531
478,27.521,27.07,1.84,0.49094795953159537,0.6252812520608797,0.2707021445778583,0.8476769967762666,0.32448200178750053,0.6152785758076702
479,27.604,27.12,1.83,0.49156300449709106,0.6242956428873313,0.27202061784370807,0.8456269159348484,0.3259874088018181,0.6140345246845889
480,27.646,27.17,1.75,0.4921641884960637,0.6232518647556807,0.2733668396357991,0.8435377280929236,0.3274930337231763,0.6127853774069801
481,27.707,27.23,1.75,0.49275139773704957,0.6221497512153078,0.2747408992860962,0.8414091266929506,0.32899859638967643,0.611531214336605
482,27.768,27.28,1.77,0.4933245330761034,0.6209891776254892,0.27614287745842164,0.8392408148856612,0.3305038238912603,0.6102721264699323
483,27.829,27.34,1.74,0.49388351031321953,0.6197700618961247,0.2775728460567341,0.8370325057920062,0.3320084509706718,0.6090082154566208
484,27.869,27.39,1.76,0.494428260473086,0.618492365197198,0.2790308681354228,0.834783922765938,0.3335122204115926,0.6077395936122753
485,27.992,27.45,1.86,0.49495873006948615,0.6171560926356074,0.2805169978115939,0.8324947996580173,0.3350148834133969,0.6064663839249583
486,28.012,27.5,1.86,0.4954748813526516,0.6157612938979836,0.282031280179241,0.8301648810799442,0.3365161999519254,0.6051887200549351
487,28.032,27.56,1.84,0.495976692538883,0.6143080638581258,0.2835737512251493,0.8277939226701378,0.3380159391256892,0.6039067463271232
488,28.073,27.61,1.93,0.4964641580217733,0.6127965431476886,0.2851444377463756,0.8253816913604699,0.3395138794869665,0.6026206177156892
489,28.134,27.67,1.95,0.49693728856440195,0.6112269186887708,0.2867433572691818,0.822927965644193,0.3410098093573388,0.6013304998202078
490,28.175,27.73,1.92,0.4973961114719082,0.6095994241870718,0.2883705179693618,0.8204325358450137,0.3425035271273055,0.6000365688328122
491,28.237,27.78,1.94,0.4978406707438922,0.6079143405843194,0.29002591859397353,0.817895204387225,0.3439948415396926,0.5987390114958174
492,28.319,27.83,1.98,0.49827102720614513,0.6061719964686973,0.29170954838455243,0.8153157860668303,0.3454835719566586,0.5974380250493696
493,28.36,27.89,1.93,0.49868725862125624,0.6043727684420429,0.2934213870019425,0.8126941083236289,0.3469695486101592,0.5961338171687557
494,28.401,27.94,1.91,0.4990894597776948,0.6025170814426195,0.29516140445291034,0.810030011514288,0.34845261283577605,0.594826605891102
495,28.463,28.0,1.97,0.499477742556996,0.6006054090223132,0.29692956101869816,0.8073233491865051,0.34993261728983316,0.5935166195312652
496,28.525,28.05,1.92,0.49985223597870276,0.5986382735771422,0.2987258071856353,0.8045739883544213,0.35140942614972853,0.592204096586756
497,28.607,28.11,1.85,0.5002130862227342,0.5966162465299994,0.300550083577889,0.8017818097754574,0.35288291529738286,0.5908892856315505
498,28.627,28.16,1.89,0.5005604566288526,0.594539948464576,0.3024023208923799,0.7989467082287655,0.3543529724856767,0.5895724451986172
499,28.709,28.22,1.92,0.5008945276729091,0.5924100492094344,0.30428243983586206,0.7960685927954402,0.3558194974877005,0.5882538436509607
500,28.75,28.27,1.89,0.5012154969195513,0.5902272678712223,0.30619035106415265,0.7931473871405805,0.35728240222857083,0.5869337590410018
501,28.811,28.33,1.93,0.5015235789510929,0.5879923728160386,0.3081259551235002,0.7901830297972385,0.358741610899504,0.5856124789581629
502,28.853,28.39,2.01,0.5018190052722632,0.5857061815980033,0.3100891423940937,0.7871754744522725,0.3601970600538005,0.5842903003646114
503,28.915,28.44,1.99,0.5021020241905955,0.5833695608341248,0.31207979303574385,0.7841246902341096,0.36164869868440397,0.5829675294191881
504,28.976,28.5,1.99,0.5023729006722555,0.5809834260246202,0.31409777693580465,0.7810306620023831,0.3630964882827326,0.5816444812896284
505,29.059,28.55,2.08,0.5026319161731725,0.5785487413178996,0.31614295365943523,0.7778933906393828,0.3645404028785449,0.5803214799532339
506,29.079,28.6,2.09,0.502879368445395,0.5760665192195014,0.3182151724023324,0.7747128933431456,0.3659804290606829,0.5789988579861604
507,29.121,28.66,2.05,0.5031155713186545,0.5735378202443218,0.32031427194611006,0.7714892039218695,0.3674165659786193,0.5776769563414778
508,29.181,28.71,2.09,0.5033408544571747,0.5709637525115632,0.3224400806165375,0.7682223730891681,0.36884882532481617,0.576356124116142
509,29.243,28.77,2.11,0.503555563091823,0.5683454712818917,0.32459241624489826,0.7649124687595561,0.370277231297986,0.5750367183070024
510,29.305,28.82,2.05,0.5037600577277478,0.5656841784363807,0.3267710861327769,0.7615595763434501,0.37170182054740103,0.5737191035559783
511,29.366,28.88,2.01,0.5039547138276954,0.5629811218968908,0.3289758870206132,0.7581637990409443,0.37312264209842777,0.5724036518845771
512,29.428,28.93,2.06,0.5041399214712506,0.5602375949876212,0.3312066050603729,0.7547252581336517,0.37453975725946836,0.5710907424179598
513,29.45,28.99,2.03,0.5043160849902775,0.5574549357376399,0.3334630157926765,0.7512440932739536,0.37595323951046944,0.5697807610988065
514,29.511,29.05,2.04,0.5044836225808775,0.5546345261242707,0.3357448841286914,0.747720462771099,0.3773631743731031,0.5684741003912699
515,29.573,29.1,2.15,0.5046429658922208,0.5517777912572795,0.3380519643370411,0.7441545438736445,0.37876965926267475,0.5671711589753334
516,29.614,29.16,2.17,0.504794559592641,0.5488861985038741,0.3403840000359442,0.740546533047725,0.38017280332178954,0.5658723414318589
517,29.676,29.21,2.15,0.5049388609134331,0.5459612565546096,0.34274072419078533,0.7368966462505393,0.3815727272358379,0.5645780579185451
518,29.738,29.26,2.19,0.5050763391708388,0.5430045144303953,0.3451218591173331,0.7332051191983722,0.3829695630304428,0.5632887238369425
519,29.798,29.32,2.22,0.505207475266753,0.5400175604309086,0.3475271164908449,0.7294722076284702,0.3843634538511218,0.5620047594906271
520,29.838,29.37,2.19,0.5053327611687457,0.5370020210248408,0.3499561973613271,0.7256981875541685,0.38575455372552697,0.5607265897346476
521,29.9,29.43,2.19,0.505452699370066,0.5339595596825281,0.35240879217524795,0.7218833555127672,0.3871430273087,0.5594546436164419
522,29.962,29.48,2.24,0.5055678023303682,0.5308918756516312,0.35488458080401797,0.718028028805772,0.3885290496118475,0.5581893540084935
523,30.022,29.54,2.2,0.5056785918979865,0.5278007026766547,0.35738323257959514,0.7141325457311234,0.3899128057151788,0.5569311572330637
524,30.082,29.59,2.16,0.5057855987146664,0.524687807663207,0.3599044063376152,0.7101972658069843,0.3912944904653826,0.5556804926793689
525,30.165,29.65,2.18,0.5058893616037295,0.5215549892880289,0.3624477504684741,0.7062225699865501,0.39267430815833043,0.554437802413559
526,30.185,29.7,2.15,0.5059904269426989,0.5184040765559257,0.3650129029767928,0.7022088608632164,0.39405247220759915,0.5532035307818256
527,30.226,29.76,2.1,0.5060893480214583,0.5152369273048608,0.36759949154967514,0.6981565628653407,0.3954292047993704,0.5519781240069411
528,30.287,29.82,2.14,0.5061866843870373,0.5120554266605862,0.3702071336341087,0.6940661224397914,0.39680473653420784,0.5507620297785369
529,30.348,29.87,2.2,0.5062830011761225,0.5088614854423082,0.3728354365237945,0.6899380082235204,0.3981793060561425,0.5495556968374699
530,30.41,29.92,2.19,0.506378868436403,0.5056570385210085,0.3754839974556433,0.6857727112024455,0.39955315966943317,0.5483595745546807
531,30.473,29.98,2.2,0.506474860437861,0.5024440431321582,0.37815240371614595,0.6815707448569869,0.4009265509433399,0.5471741125050137
532,30.556,30.03,2.34,0.5065715549751386,0.4992244771446879,0.3808402327578211,0.6773326452936299,0.40229974030526816,0.5459997600365029
533,30.576,30.09,2.32,0.5066695326621394,0.496000337288209,0.38354705232595726,0.6730589713618745,0.4036729946227093,0.5448369658356149
534,30.617,30.14,2.3,0.5067693762200631,0.4927736373406143,0.3862724205958836,0.6687503047558673,0.40504658677450617,0.5436861774888995
535,30.681,30.2,2.34,0.5068716697601218,0.489546406278314,0.389015886321014,0.6644072500999562,0.4064207952120972,0.5425478410414193
536,30.743,30.25,2.34,0.5069769980622473,0.48632068639149606,0.3917769889919187,0.660030435017347,0.4077959035115271,0.5414224005522632
537,30.785,30.31,2.29,0.5070859458511585,0.4830985313669248,0.39455525900668087,0.6556205101810144,0.4091721999171104,0.5403102976474292
538,30.826,30.36,2.3,0.5071990970712098,0.4798820043409252,0.3973502178527908,0.6511781493460657,0.4105499768776841,0.5392119710704156
539,30.908,30.42,2.33,0.5073170341614889,0.47667317592533875,0.4001613783008064,0.6467040493628874,0.41192953057640963,0.5381278562309392
540,30.929,30.48,2.25,0.5074403373326611,0.4734741222093714,0.40298824460998284,0.6421989301705554,0.4133111604550817,0.5370583847522892
541,30.989,30.53,2.21,0.5075695838470798,0.47028692274038586,0.4058303127460445,0.6376635347700854,0.4146951687338787,0.5360039840178853
542,31.05,30.58,2.29,0.5077053473036807,0.46711365848680675,0.40868707061123843,0.6330986291771585,0.4160818599274552,0.5349650767176278
543,31.112,30.64,2.26,0.5078481969291759,0.46395640978640956,0.41155799828675177,0.628505002353942,0.41747154035822015,0.5339420803946038
544,31.153,30.69,2.23,0.5079986968770445,0.4608172542833396,0.4144425682875024,0.6238834661196,0.4188645176675718,0.5329354069926493
545,31.215,30.75,2.25,0.5081574055357911,0.45769826485727555,0.41734024582921286,0.6192348550390873,0.42026110032581043,0.5319454624051962
546,31.276,30.8,2.28,0.5083248748479433,0.454601507548207,0.4202504891075915,0.6145600262898342,0.42166159714141993,0.5309726460257571
547,31.317,30.86,2.25,0.5085016496412518,0.4515290394803437,0.4231727495894015,0.6098598595059435,0.42306631677039314,0.5300173503003949
548,31.399,30.91,2.27,0.5086882669735667,0.44848290678872343,0.4261064723151735,0.6051352565995605,0.4244755672262509,0.5290799602825842
549,31.46,30.97,2.33,0.5088852554928724,0.44546514255212505,0.4290510962133163,0.6003871415591198,0.42588965539140133,0.5281608531909525
550,31.502,31.02,2.29,0.5090931348139577,0.44247776473592404,0.4320060544253864,0.5956164602241841,0.4273088865304893,0.5272603979704779
551,31.542,31.08,2.26,0.509312414913193,0.4395227741485438,0.43497077464227296,0.5908241800366036,0.42873356380640154,0.5263789548577871
552,31.644,31.14,2.32,0.5095435955428493,0.4366021524151496,0.43794467945101956,0.5860112897677172,0.43016398779961046,0.525516874951234
553,31.664,31.19,2.3,0.5097871656663209,0.4337178599721799,0.4409271866919832,0.5811787992212778,0.4316004560315467,0.5246744997864459
554,31.705,31.25,2.25,0.5100436029154937,0.43087183408619834,0.44391770982600676,0.5763277389116901,0.4330432624926808,0.5238521609180214
555,31.766,31.3,2.28,0.5103133730713171,0.42806598690036557,0.44691565831127117,0.5714591597170782,0.4344926971759738,0.5230501795080694
556,31.806,31.35,2.29,0.5105969295684202,0.42530220351156584,0.44992043798947084,0.56657413250668,0.43594904561632564,0.5222688659222722
557,31.867,31.41,2.26,0.5108947130243812,0.42258234008091783,0.4529314514809446,0.5616737477421079,0.43741258843661734,0.5215085193341724
558,31.929,31.46,2.27,0.5112071507940529,0.4199082219800809,0.4559480985883579,0.5567591150521368,0.4388836009008906,0.5207694273383938
559,32.012,31.52,2.35,0.5115346565491525,0.4172816419754807,0.45896977670849015,0.5518313627808629,0.44036235247517286,0.5200518655735056
560,32.033,31.57,2.32,0.511877629883188,0.41470435845233383,0.46199588125163404,0.5468916375092537,0.4418491063964265,0.5193560973552162
561,32.095,31.63,2.32,0.5122364559416823,0.4121780936801549,0.4650258060680804,0.5419411035502567,0.44334411925009465,0.5186823733205655
562,32.157,31.68,2.39,0.5126115050776087,0.409704532121273,0.46805894388114,0.5369809424177229,0.44484764055673287,0.5180309310837334
563,32.198,31.74,2.4,0.5130031325319235,0.407285318783756,0.47109468672615484,0.5320123522694548,0.44635991236824757,0.517401994904037
564,32.26,31.8,2.36,0.5134116781390843,0.4049220576200348,0.4741324263949635,0.5270365473247025,0.4478811688742993,0.5167957753666313
565,32.321,31.85,2.4,0.513837466057435,0.4026163099724379,0.47717155488528457,0.5220547572565183,0.4494116360194664,0.5162124690763961
566,32.383,31.91,2.42,0.5142808045243394,0.4003695930667758,0.48021146485448357,0.5170682265595309,0.4509515311318091,0.5156522583654678
567,32.445,31.96,2.38,0.5147419856359228,0.39818337855504915,0.48325155007719617,0.512078213893892,0.45250106256349903,0.5151153110148832
568,32.484,32.02,2.36,0.5152212851512535,0.39605909110828624,0.4862912059062965,0.5070859914063435,0.454060429344186,0.514601779990818
569,32.525,32.07,2.4,0.5157189623207611,0.39399810706043237,0.4893298297367006,0.5020928440295251,0.45562982084776804,0.5141118031959087
570,32.589,32.13,2.36,0.5162352597386383,0.39200175310412205,0.49236682147150995,0.49710006876070695,0.45720941647320823,0.5136455032360991
571,32.671,32.18,2.33,0.5167704032189205,0.39007130503906084,0.4954015839900017,0.49210897392108716,0.4587993853399996,0.5132029872033812
572,32.754,32.24,2.38,0.5173246016948814,0.38820798657363503,0.4984335236169789,0.4871208783966969,0.4603998859988301,0.5127843464746958
573,32.774,32.29,2.4,0.5178980471413196,0.38641296818026166,0.5014620505929751,0.4821371108618222,0.4620110661579429,0.5123896565271657
574,32.815,32.35,2.36,0.5184909145192714,0.3846873660048913,0.5044865795448096,0.4771590089856855,0.46363306242563507,0.5120189767697706
575,32.856,32.4,2.4,0.5191033617426427,0.38303224083099774,0.5075065299559994,0.4721879186229394,0.465266000069296,0.51167235039158
576,32.918,32.46,2.44,0.5197355296662365,0.38144859709832557,0.5105213266365656,0.4672251929883803,0.46690999279136924,0.5113498042266873
577,32.979,32.51,2.41,0.52038754209464,0.3799373819766215,0.5135304001918088,0.46227219181623336,0.46856514252261755,0.5110513486360271
578,33.04,32.57,2.39,0.5210595058114212,0.3784994844945388,0.516533187489649,0.4573302805044484,0.47023153923307603,0.5107769774062735
579,33.165,32.62,2.47,0.5217515106280797,0.37713573472386935,0.5195291321261203,0.4524008292445774,0.47190926076108103,0.510526667666016
580,33.186,32.67,2.43,0.5224636294521817,0.37584690301922696,0.5225176848886074,0.4474852121379244,0.4735983726607641,0.5103003798193738
581,33.207,32.73,2.38,0.5231959183740953,0.3746336993132663,0.5254983042163976,0.4425848062987175,0.475298928068384,0.5100980574971726
582,33.248,32.78,2.4,0.5239484167717235,0.37349677246747515,0.5284704566580749,0.4377009909451145,0.4770109675878529,0.5099196275257624
583,33.309,32.84,2.41,0.5247211474326224,0.3724367096785234,0.5314336173252322,0.4328351464789152,0.47873451919578475,0.5097649999135171
584,33.35,32.9,2.37,0.525514116692871,0.3714540359400892,0.5343872703419105,0.42798865355491483,0.48046959816633994,0.5096340678550739
585,33.411,32.95,2.4,0.5263273145920424,0.3705492135600282,0.5373309092891109,0.42316289214091607,0.482216207016067,0.5095267077534364
586,33.473,33.01,2.46,0.5271607150436001,0.3697226417326968,0.5402640376436659,0.41835924056952956,0.48397433546886975,0.5094427792601403
587,33.534,33.06,2.48,0.528014276020019,0.3689746561661946,0.5431861692107393,0.41357907458299276,0.48574396044117113,0.5093821253337315
588,33.597,33.12,2.55,0.5288879397519173,0.3683055287642578,0.5460968285492203,0.4088237663722989,0.48752504604731883,0.5093445723168297
589,33.638,33.17,2.57,0.5297816329404575,0.3677154673625128,0.5489955513893275,0.40409468361193673,0.48931754362529417,0.5093299300319849
590,33.721,33.23,2.55,0.530695266982261,0.3672046155187817,0.5518818850417944,0.3993931884914654,0.4911213917828532,0.5093379918963137
591,33.741,33.28,2.51,0.531628738206056,0.3667730523571121,0.5547553887980772,0.3947206367450286,0.4929365164643326,0.509368535054564
592,33.843,33.34,2.55,0.5325819281202692,0.36642079246518905,0.5576156343210608,0.39007837667983203,0.494762831038433,0.5094213205299082
593,33.863,33.39,2.55,0.5335547036707623,0.3661477858447702,0.5604622060257713,0.38546774820456847,0.49660023640733303,0.5094960933915418
594,33.904,33.45,2.49,0.5345469175079152,0.36595391791476795,0.5632947014496436,0.38089008185878087,0.49844862113746247,0.5095925829381077
595,33.986,33.5,2.47,0.5355584082622591,0.3658390095665827,0.5661127316119181,0.3763466978442214,0.5003078616122167,0.5097105028960013
596,34.048,33.56,2.5,0.5365890008278595,0.36580281727127023,0.5689159213617614,0.37183890505939154,0.5021778222068335,0.5098495516316675
597,34.089,33.61,2.45,0.5376385066526328,0.36584503323809126,0.5717039097146787,0.3673680001385697,0.5040583554855717,0.51000941237706
598,34.149,33.67,2.43,0.5387067240347575,0.3659652856239562,0.5744763501767742,0.36293526649671354,0.5059493024212306,0.5101897534674802
599,34.211,33.72,2.51,0.5397934384243092,0.3661631387932205,0.5772329110563599,0.35854197338166505,0.5078504926369342,0.5103902285910507
600,34.231,33.78,2.54,0.5408984227292176,0.36643809362723,0.5799732757623914,0.3541893749350355,0.5097617446700032,0.5106104770490856
601,34.292,33.83,2.49,0.5420214376246403,0.36678958788295063,0.5826971430892203,0.3498787092630203,0.511682866257664,0.5108501240266266
602,34.395,33.89,2.56,0.5431622318648458,0.36721699659996937,0.5854042274871866,0.3456111975182451,0.5136136546442958,0.5111087808724111
603,34.416,33.94,2.6,0.544320542596722,0.3677196325551232,0.5880942593186386,0.34138804299363795,0.5155538969099284,0.5113860453875482
604,34.457,34.0,2.56,0.5454960956740512,0.36829674676399204,0.5907669850990301,0.3372104302292697,0.5175033703197117,0.5116815021221874
605,34.518,34.05,2.55,0.5466886059717162,0.36894752902848044,0.5934221677228213,0.33307952413311526,0.519461842694101,0.5119947226795103
606,34.578,34.1,2.6,0.5478977776990367,0.3696711085296973,0.5960595866739832,0.3289964691166929,0.5214290727995148,0.5123252660263925
607,34.641,34.16,2.56,0.5491233047114569,0.3704665544653244,0.5986790382210013,0.32496238824648804,0.5234048107592236,0.5126726788101096
608,34.7,34.22,2.51,0.5503648708198281,0.37133287673063514,0.601280335596338,0.32097838241196985,0.5253887984841961,0.5130364956804722
609,34.742,34.27,2.54,0.5516221500965446,0.37226902664229294,0.6038633091603559,0.31704552951092674,0.5273807701235786,0.5134162396167877
610,34.803,34.33,2.54,0.5528948071778,0.373273897704022,0.6064278065497061,0.3131648836527835,0.5293804525344014,0.5138114222590411
611,34.864,34.38,2.51,0.5541824975612359,0.3743463264132087,0.6089736928101671,0.3093374743805092,0.5313875657700116,0.5142215442426973
612,34.945,34.44,2.55,0.5554848678982509,0.3754850931074628,0.6115008505138915,0.3055643059117098,0.5334018235866301,0.514646095536553
613,34.965,34.49,2.58,0.5568015562802449,0.376688922850141,0.6140091798609663,0.30184635639950486,0.5354229339673282,0.5150845557830965
614,35.006,34.55,2.56,0.5581321925180853,0.377956486353824,0.6164985987651787,0.29818457721380043,0.5374505996626523,0.5155363946408681
615,35.068,34.6,2.56,0.5594763984141108,0.3792864009407354,0.6189690429238673,0.2945798922436032,0.5394845187470622,0.5160010721283456
616,35.109,34.66,2.65,0.5608337880260327,0.38067723153910227,0.6214204658717496,0.29103319722106624,0.5415243851903121,0.5164780389689004
617,35.169,34.71,2.62,0.5622039679221558,0.38212749171447524,0.6238528390186513,0.28754535906797773,0.543569889442881,0.5169667369363743
618,35.252,34.77,2.6,0.5635865374274192,0.38363564473505596,0.6262661516710989,0.28411721526537076,0.5456207190345367,0.5174665992008264
619,35.314,34.82,2.66,0.5649810888598358,0.3852001046701145,0.6286604110377626,0.2807495732468605,0.5476765591851105,0.5179770506739931
620,35.357,34.88,2.67,0.5663872077570018,0.38681923752062086,0.6310356422187741,0.2774432098162073,0.5497370934265559,0.5184975083539936
621,35.418,34.93,2.63,0.5678044730924278,0.3884913623812532,0.6333918881789685,0.2741988705894885,0.551802004235348,0.5190273816688367
622,35.439,34.99,2.63,0.5692324574815272,0.39021475263296856,0.6357292097051023,0.27101726946222626,0.553870973674258,0.5195660728183399
623,35.501,35.04,2.68,0.57067072737717,0.3919876371653276,0.6380476853470637,0.26789908810187957,0.5559436840425027,0.5201129771141126
624,35.563,35.1,2.65,0.5721188432547656,0.3938082016277505,0.6403474113430484,0.2648449754662065,0.5580198185332201,0.5206674833173062
625,35.626,35.15,2.65,0.5735763597868869,0.3956745897088663,0.6426285015286143,0.26185554734810285,0.5600990618971575,0.5212289739738695
626,35.708,35.21,2.75,0.5750428260074795,0.39758490444310995,0.6448910872294641,0.2589313859475934,0.5621811011113955,0.5217968257470572
627,35.728,35.26,2.76,0.5765177854657324,0.39953720954371597,0.6471353171377638,0.2560730394716457,0.5642656260518762,0.5223704097469049
628,35.77,35.32,2.71,0.5780007763697341,0.40152953076126546,0.6493613571718004,0.25328102176239414,0.5663523301684857,0.5229490918563463
629,35.831,35.37,2.77,0.5794913317200855,0.40355985726694843,0.6515693903187988,0.2505558119542405,0.5684409111614414,0.5235322330535966
630,35.892,35.42,2.82,0.5809889794337098,0.4056261430597174,0.6537596164607832,0.2478978541601668,0.5705310716577572,0.5241191897304146
631,35.953,35.48,2.78,0.5824932424581569,0.407726308396525,0.6559322521834428,0.24530755718746045,0.5726225198865701,0.5247093140059205
632,36.054,35.53,2.78,0.5840036388767608,0.4098582412448551,0.6580875305680461,0.2427852942829593,0.5747149703520993,0.5253019540357821
633,36.075,35.59,2.84,0.585519682005065,0.4120197987567716,0.6602257009665233,0.24033140290787794,0.5768081445030108,0.5258964543167103
634,36.115,35.65,2.73,0.5870408804789847,0.41420880876372546,0.6623470287598927,0.2379461845422188,0.5789017713969495,0.5264921559862964
635,36.178,35.7,2.73,0.5885667383352116,0.4164230712913677,0.6644517951002528,0.2356299045186887,0.5809955883589644,0.5270883971182707
636,36.219,35.76,2.81,0.5900967550844012,0.4186603600936232,0.6665402966365606,0.2333827918859284,0.5830893416324893,0.5276845130132651
637,36.28,35.81,2.83,0.5916304257776931,0.42091842420528747,0.6686128452244114,0.23120503930071098,0.5851827870214404,0.5282798364851207
638,36.341,35.87,2.83,0.5931672410671224,0.42319498951240075,0.6706697676200097,0.22909680294859686,0.5872756905218923,0.5288736981427056
639,36.421,35.92,2.9,0.5947066872604818,0.4254877603396512,0.6727114051584868,0.22705820249242856,0.589367828941728,0.5294654266671154
640,36.442,35.98,2.96,0.5962482463711953,0.42779442105404464,0.6747381134167078,0.22508932104802118,0.5914589905066597,0.5300543490840436
641,36.502,36.03,2.94,0.5977913961637775,0.4301126376840742,0.6767502618607186,0.22319020518642405,0.5935489754510487,0.5306397910310572
642,36.564,36.09,2.97,0.5993356101954754,0.4324400595536168,0.6787482334780218,0.22136086496217267,0.5956375965920148,0.5312210770195204
643,36.626,36.14,2.98,0.6008803578547135,0.434774320929791,0.6807324243949058,0.21960127396699575,0.5977246798853987,0.531797530690919
644,36.646,36.2,2.98,0.6024251043969925,0.4371130426840176,0.6827032434790998,0.21791136940843847,0.5998100649621926,0.5323684750673728
645,36.728,36.25,2.98,0.6039693109789199,0.4394538339655314,0.6846611119280507,0.21629105221282335,0.6018936056440952,0.5329332327961955
646,36.79,36.31,3.04,0.6055124346910783,0.44179429388659386,0.6866064628431374,0.21474018715192075,0.6039751704368347,0.5334911263884863
647,36.852,36.36,3.05,0.6070539285904631,0.44413201321864887,0.6885397407901521,0.21325860299265917,0.6060546429998993,0.5340414784518807
648,36.873,36.42,3.0,0.6085932417332409,0.4464645760986427,0.6904614013463745,0.2118460926691789,0.6081319225912992,0.5345836119176901
649,36.934,36.47,3.04,0.6101298192085725,0.4487895617447069,0.6923719106345412,0.21050241347658144,0.6102069244859799,0.5351168502627256
650,36.995,36.53,3.1,0.6116631021742338,0.4511045461803676,0.6942717448439746,0.2092272872858277,0.6122795803665196,0.5356405177261224
651,37.036,36.58,3.08,0.6131925278947322,0.4534071039664138,0.6961613897390951,0.20802040077934467,0.6143498386847291,0.5361539395215075
652,37.098,36.64,3.11,0.6147175297825691,0.45569480993952,0.6980413401555129,0.20688140570699848,0.6164176649927661,0.5366564420448844
653,37.159,36.69,3.23,0.6162375374432454,0.45796524095667573,0.6999120994838699,0.20580991916216188,0.6184830422423855,0.537147353078626
654,37.222,36.75,3.25,0.6177519767245624,0.46021597764443517,0.7017741791416062,0.2048055238776149,0.6205459710509841,0.537626001991964
655,37.264,36.8,3.23,0.6192602697707303,0.4624446061519518,0.7036280980328458,0.20386776854096414,0.6226064699331666,0.5380917199383417
656,37.326,36.85,3.31,0.6207618350817791,0.46464871990671985,0.7054743819966234,0.2029961681291993,0.6246645754966651,0.5385438400499492
657,37.388,36.91,3.35,0.6222560875787517,0.46682592137189927,0.7073135632437305,0.20219020426191908,0.626720342601563,0.5389816976297119
658,37.428,36.97,3.33,0.6237424386751514,0.4689738238040568,0.7091461797825299,0.20144932557266007,0.628773844481893,0.539404630341016
659,37.531,37.02,3.36,0.6252202963550988,0.4710900530101033,0.7109727748341726,0.20077294809769292,0.6308251728287818,0.539811978395496
660,37.552,37.08,3.42,0.6266890652586357,0.47317224910216005,0.7127938962377228,0.20016045568163182,0.6328744378344086,0.5402030847392767
661,37.593,37.13,3.37,0.6281481467745823,0.4752180682490279,0.7146100958457747,0.1996112003992053,0.6349217681961349,0.5405772952380892
662,37.656,37.19,3.37,0.6295969391413193,0.47722518442288314,0.716421928911177,0.19912450299254392,0.6369673110802304,0.5409339588616946
663,37.697,37.24,3.47,0.6310348375558237,0.4791912911397719,0.7182299534654842,0.19869965332333908,0.6390112320446738,0.5412724278680445
664,37.759,37.3,3.51,0.6324612342912515,0.4811141031924341,0.720034729689723,0.1983359108391971,0.6410537149205529,0.5415920579875699
665,37.822,37.35,3.5,0.6338755188233222,0.4829913583739526,0.721836819278011,0.19803250505346318,0.6430949616516298,0.5418922086079602
666,37.903,37.41,3.57,0.6352770779657284,0.48482081919069986,0.7236367847945295,0.1977886360377846,0.6451351920917129,0.5421722429597595
667,37.924,37.46,3.64,0.636665296014791,0.48660027456304705,0.725435189024328,0.1976034749267168,0.6471746437595993,0.5424315283030667
668,38.007,37.52,3.63,0.6380395549035802,0.48832754151230773,0.727232594318462,0.1974761644337273,0.6492135715514935,0.5426694361156219
669,38.047,37.57,3.65,0.6393992343657436,0.49000046683241205,0.7290295619340043,0.19740581937805,0.6512522474109598,0.5428853422825871
670,38.09,37.63,3.72,0.640743712109297,0.49161692874483526,0.7308266513695185,0.19739152722197573,0.6532909599566261,0.5430786272883356
671,38.15,37.68,3.68,0.6420723640006434,0.4931748385353376,0.7326244196966415,0.19743234861829176,0.6553300140680085,0.5432486764105634
672,38.211,37.74,3.66,0.6433845642590892,0.49467214217110317,0.7344234208884568,0.19752731796767528,0.65736973042996,0.5433948799170165
673,38.292,37.79,3.71,0.644679685662116,0.4961068218968948,0.7362242051453662,0.19767544398591533,0.659410445036366,0.543516633265103
674,38.312,37.85,3.71,0.6459570997616546,0.4974768978088753,0.7380273182191689,0.19787571028086154,0.6614525086537839,0.5436133373046289
675,38.354,37.9,3.65,0.6472161771115786,0.49878042940476863,0.7398333007360518,0.19812707593898285,0.66349628624579,0.5436843984838677
676,38.416,37.96,3.71,0.648456287506599,0.5000155171090707,0.7416426875191753,0.19842847612142514,0.6655421563588233,0.5437292290591601
677,38.477,38.01,3.78,0.6496768002326871,0.5011803037720399,0.743456006911508,0.19877882266951283,0.667590510470362,0.543747247308232
678,38.54,38.07,3.76,0.6508770843291029,0.5022729761412431,0.7452737800995494,0.19917700471972005,0.6696417523002945,0.5437378777474378
679,38.623,38.12,3.78,0.6520565088620497,0.5032917663044645,0.7470965204385694,0.19962188932821975,0.671696297086403,0.5437005513531734
680,38.643,38.17,3.88,0.6532144432099508,0.5042349531028261,0.7489247327800023,0.20011232210514876,0.6737545708249651,0.5436347057877082
681,38.685,38.23,3.86,0.6543502573603198,0.5051008635129934,0.750758912801675,0.20064712785863642,0.6758170094776033,0.5435397856296401
682,38.747,38.28,3.82,0.6554633222182144,0.5058878739973529,0.7525995463416214,0.2012251112484697,0.677884058145642,0.5434152426090909
683,38.809,38.34,3.92,0.6565530099262746,0.5065944118210562,0.7544471087362828,0.20184505744909628,0.6799561702133848,0.5432605358476694
684,38.851,38.4,3.92,0.6576186941963597,0.5072189563348303,0.7563020641639534,0.20250573282155304,0.6820338064618384,0.5430751321031346
685,38.913,38.45,3.82,0.6586597506527917,0.5077600402224542,0.7581648649943592,0.20320588559386338,0.6841174341545313,0.5428585060186271
686,38.995,38.51,3.82,0.6596755571871982,0.5082162507118059,0.7600359511452522,0.20394424654948773,0.6862075260971546,0.5426101403762754
687,39.016,38.56,3.85,0.6606654943248964,0.5085862307483768,0.7619157494468858,0.20471952972351917,0.6883045596728311,0.5423295263549233
688,39.077,38.62,3.79,0.6616289456027133,0.5088686801301503,0.763804673015201,0.2055304331064282,0.6904090158548365,0.5420161637917084
689,39.138,38.67,3.77,0.6625652979580559,0.5090623566027236,0.7657031206345201,0.20637563935525688,0.6925213781985786,0.5416695614472584
690,39.179,38.73,3.85,0.6634739421289598,0.5091660769135444,0.7676114761504753,0.20725381651223176,0.6946421318145928,0.5412892372742918
691,39.24,38.78,3.84,0.6643542730647595,0.5091787178241214,0.7695301078738614,0.20816361873076836,0.6967717623242804,0.5408747186893808
692,39.301,38.84,3.82,0.6652056903469422,0.5090992170790477,0.7714593679960473,0.20910368700878695,0.698910754800108,0.5404255428475898
693,39.361,38.89,3.86,0.6660275986197081,0.5089265743306763,0.7733995920165628,0.21007264992919303,0.701059592691992,0.5399412569196523
694,39.422,38.95,3.9,0.6668194080297241,0.5086598520182907,0.775351098183486,0.21106912440731648,0.7032187567416497,0.5394214183713031
695,39.484,39.0,3.86,0.6675805346745519,0.508298176200634,0.7773141869472932,0.21209171644506036,0.7053887238867557,0.5388655952443744
696,39.545,39.06,3.85,0.668310401059222,0.5078407373406982,0.7792891404288854,0.21313902189154052,0.7075699661568094,0.5382733664392823
697,39.587,39.11,3.9,0.669008436560399,0.5072867910417123,0.7812762219025302,0.21420962721011078,0.7097629495626839,0.5376443219985592
698,39.648,39.17,3.82,0.6696740778975699,0.5066356587333185,0.7832756752944673,0.21530211025179402,0.7119681329818769,0.5369780633911001
699,39.73,39.22,3.75,0.6703067696106619,0.505886728306954,0.7852877246979194,0.21641504103523784,0.7141859670415069,0.536274203796787
700,39.751,39.28,3.81,0.6709059645434693,0.5050394546994788,0.787312573905214,0.21754698253338148,0.716416893001084,0.5355323683911241
701,39.793,39.33,3.81,0.6714711243322433,0.5040933604241069,0.7893504059576487,0.2186964914670375,0.7186613416370421,0.5347521946294624
702,39.855,39.39,3.76,0.6720017198987489,0.503048036047712,0.7914013827136643,0.21986211910557957,0.7209197321309435,0.5339333325303721
703,39.895,39.44,3.82,0.6724972319470452,0.5019031406135942,0.7934656444357893,0.2210424120749418,0.7231924709631882,0.5330754449577259
704,39.957,39.5,3.88,0.6729571514632051,0.5006584020088256,0.7955433093967406,0.22223591317318028,0.7254799508140131,0.532178207901081
705,40.022,39.55,3.84,0.6733809802171574,0.49931361727532825,0.7976344735050298,0.22344116219389434,0.7277825494735582,0.5312413107539902
706,40.083,39.6,3.85,0.6737682312658351,0.49786865286388954,0.7997392099504141,0.22465669675783323,0.730100628762795,0.5302644565899275
707,40.125,39.66,3.91,0.6741184294568173,0.496323444830387,0.8018575688695505,0.22588105315301243,0.7324345334671565,0.5292473624355338
708,40.188,39.72,3.86,0.6744311119316697,0.4946779989735656,0.803989577032254,0.22711276718361006,0.7347845902847726,0.5281897595408813
709,40.229,39.77,3.83,0.6747058286282064,0.4929323909137862,0.806135237548797,0.2283503750278316,0.7371511067912415,0.5270913936464214
710,40.29,39.83,3.87,0.6749421427809177,0.4910867661122343,0.80829452959869,0.22959241410484743,0.7395343704229036,0.525952025246254
711,40.351,39.88,3.86,0.6751396314188182,0.48914133983015323,0.8104674081813867,0.2308374239508152,0.7419346474805778,0.5247714298473066
712,40.393,39.94,3.77,0.6752978858599821,0.4870963970277382,0.8126538038893442,0.23208394710390085,0.7443521821557073,0.5235493982239972
713,40.455,39.99,3.79,0.675416512202037,0.4849522922023988,0.814853622703844,0.23333052999814044,0.7467871955808061,0.5222857366679463
714,40.537,40.05,3.83,0.6754951318078788,0.4827094491661774,0.817066745813962,0.23457572386591405,0.7492398849060454,0.520980267232314
715,40.577,40.1,3.8,0.6755333817858497,0.4803683607621983,0.8192930294590549,0.2358180856486851,0.751710422403738,0.5196328279703336
716,40.639,40.16,3.8,0.6755309154635855,0.4779295885201227,0.8215323047951203,0.2370561789155286,0.7541989546023816,0.5182432731676262
717,40.7,40.21,3.88,0.6754874028546858,0.4753937622507141,0.8237843777853591,0.23828857478887117,0.7567056014518659,0.516811473567843
718,40.721,40.27,3.88,0.6754025311173159,0.4727615795797564,0.8260490291152404,0.23951385287678817,0.7592304555214061,0.5153373165911308
719,40.843,40.32,3.83,0.675276005003832,0.47003380542170003,0.8283260141323511,0.24073060221112794,0.7617735812317691,0.5138207065448592
720,40.863,40.38,3.88,0.6751075473005427,0.46721127139353114,0.8306150628112938,0.24193742219065537,0.7643350141233682,0.5122615648259995
721,40.905,40.43,3.92,0.6748968992567481,0.4642948751694734,0.8329158797439028,0.2431329235283168,0.7669147601618225,0.5106598301145271
722,40.946,40.49,3.84,0.674643821002252,0.46128557977725626,0.8352281441550966,0.24431572920162858,0.7695127950825787,0.5090154585572633
723,41.008,40.54,3.82,0.6743480919525702,0.4581844128368082,0.8375515099447208,0.24548447540513813,0.7721290637761827,0.5073284239416431
724,41.05,40.6,3.84,0.6740095112011053,0.45499246574236357,0.839885605755765,0.24663781250391342,0.774763479715752,0.5055987178589725
725,41.111,40.65,3.75,0.6736278978975805,0.45171089278908955,0.842230035069335,0.24777440598702327,0.7774159244281529,0.503826349856793
726,41.193,40.71,3.71,0.6732030916120672,0.4483409102454605,0.8445843763267487,0.2488929374199528,0.7800862470102803,0.5020113475800296
727,41.213,40.76,3.79,0.6727349526839502,0.44488379537272177,0.8469481830790577,0.24999210539484365,0.7827742636917028,0.5001537569006528
728,41.274,40.82,3.79,0.6722233625551947,0.4413408853928991,0.8493209841642462,0.25107062647733314,0.7854797574447709,0.4982536420356235
729,41.335,40.87,3.78,0.6716682240872848,0.4377135764069138,0.8517022839122739,0.2521272361486094,0.7882024776431285,0.4963110856529248
730,41.396,40.92,3.82,0.6710694618612111,0.4340033222644469,0.8540915623780745,0.2531606897411552,0.7909421397694452,0.49432618896550345
731,41.459,40.98,3.87,0.6704270224598968,0.4302116333872523,0.8564882756025871,0.25416976336655017,0.793698425173129,0.49229907181296123
732,41.564,41.03,3.84,0.6697408747324802,0.42634007554763703,0.8588918559019236,0.2551532548336224,0.7964709808787442,0.4902298727308606
733,41.585,41.09,3.82,0.6690110100399227,0.422390268603824,0.8613017121848114,0.2561099845552282,0.799259419445848,0.4881187490075473
734,41.627,41.15,3.89,0.6682374424814751,0.4183638851938987,0.8637172302984939,0.25703879644198174,0.8020633188809542,0.48596587672841907
735,41.668,41.2,3.82,0.6674202091016099,0.41426264939002283,0.8661377734032967,0.25793855878131966,0.8048822226023096,0.48377145080757517
736,41.73,41.26,3.78,0.6665593700771052,0.41008833531458283,0.8685626823760656,0.2588081651003381,0.8077156394581273,0.48153568500678207
737,41.79,41.31,3.8,0.6656550088840366,0.4058427657199219,0.8709912762426447,0.2596465350108753,0.810563043798839,0.47925881194168535
738,41.852,41.37,3.78,0.6647072324445078,0.4015278105332864,0.8734228526395087,0.26045261503532546,0.8134238756038272,0.4769410830751979
739,41.934,41.42,3.73,0.6637161712530086,0.3971453853685951,0.8758566883046027,0.26122537941167295,0.8162975406629503,0.4745827686980307
740,41.954,41.48,3.76,0.6626819794823592,0.3926974500066237,0.8782920395973551,0.261963830876292,0.8191834108130159,0.4721841578963894
741,41.995,41.53,3.82,0.6616048350692453,0.38818600684519133,0.8807281430477413,0.2626670014231602,0.8220808242291869,0.4697455585069313
742,42.037,41.59,3.81,0.6604849397793963,0.3836130993209424,0.8831642159341971,0.26333395303826684,0.8249890857711544,0.46726729705913755
743,42.097,41.64,3.81,0.6593225192524962,0.37898081030433917,0.8855994568900966,0.2639637784081458,0.8279074673837861,0.4647497187053188
744,42.159,41.7,3.9,0.6581178230269632,0.374291260469523,0.8880330465384397,0.2645556016016153,0.8308352085518772,0.4621931871384969
745,42.22,41.75,3.87,0.6568711245447797,0.36954660664074424,0.8904641481543439,0.26510857872391164,0.8337715168085791,0.45959808449839984
746,42.303,41.81,3.84,0.655582721136599,0.36474904011711823,0.8928919083548759,0.26562189854245827,0.8367155682970483,0.4569648112657512
747,42.323,41.86,3.9,0.6542529339874099,0.3599007849775158,0.895315457815699,0.2660947830835615,0.8396665083848224,0.454293786144958
748,42.384,41.92,3.9,0.6528821080830821,0.3550040963674627,0.8977339120139536,0.2665264881993545,0.8426234523303912,0.4515854459352118
749,42.426,41.97,3.82,0.6514706121381616,0.3500612587700001,0.900146371996729,0.2669163041043041,0.8455854860013574,0.44884024538996226
750,42.488,42.03,3.83,0.6500188385053254,0.34507458426254983,0.9025519251744466,0.2672635558805859,0.848551666643495,0.44605865706471276
751,42.55,42.08,3.81,0.6485272030669332,0.34004641076193354,0.9049496461384077,0.2675676039516554,0.8515210236999,0.4432411711530908
752,42.592,42.14,3.77,0.6469961451091355,0.3349791002597945,0.9073385975016844,0.2678278445233629,0.8544925596792798,0.44038829531116913
753,42.695,42.19,3.78,0.6454261271790158,0.32987503705077315,0.9097178307624233,0.2680437099919858,0.8574652510722468,0.43750055447005676
754,42.715,42.25,3.88,0.643817634925259,0.3247366259558569,0.9120863871885121,0.2682146693185544,0.8604380493142793,0.43457849063681203
755,42.756,42.3,3.93,0.6421711769228379,0.31956629054336877,0.9144432987224693,0.2683402283687998,0.8634098817938244,0.43162266268374766
756,42.819,42.35,3.91,0.6404872844822174,0.3143664713500552,0.9167875889053515,0.26841993021796295,0.866379652903877,0.42863364612617677
757,42.88,42.41,3.96,0.6387665114435677,0.3091396241046992,0.9191182738184377,0.2684533554196408,0.8693462451352906,0.4256120328885838
758,42.941,42.47,4.0,0.6370094339564448,0.3038882179566151,0.9214343630414517,0.268440122237804,0.8723085202100722,0.42255843105910773
759,43.023,42.52,3.95,0.6352166502453657,0.2986147337112813,0.9237348606260979,0.2683798868411144,0.8752653202529127,0.4194734646321566
760,43.045,42.58,3.93,0.633388780361649,0.29332166207525395,0.9260187660837261,0.26827234345871215,0.8782154689991839,0.41635777323896633
761,43.086,42.63,3.98,0.6315264659218417,0.2880115019123784,0.9282850753859524,0.2681172244967415,0.881157773037586,0.41321201186595524
762,43.148,42.69,3.95,0.6296303698329819,0.2826867585131883,0.9305327819770614,0.26791430061499755,0.8840910230855399,0.41003685056078804
763,43.21,42.74,3.95,0.6277011760048837,0.2773499418792511,0.9327608777969802,0.2676633807631653,0.8870139952952844,0.4068329741261257
764,43.273,42.8,4.06,0.6257395890495571,0.272003565024079,0.934968354313539,0.26736431217619594,0.8899254525885032,0.4036010818010872
765,43.336,42.85,4.12,0.6237463339678208,0.2666501422920781,0.9371542035626405,0.26701698032838767,0.8928241460171766,0.40034188693044465
766,43.439,42.91,4.09,0.6217221558231305,0.26129218769686063,0.9393174191948752,0.2666213088457609,0.8957088161482624,0.39705611662156837
767,43.46,42.96,4.16,0.6196678194026114,0.25593221328012067,0.9414569975270342,0.2661772593764078,0.8985781944697797,0.3937445113891317
768,43.502,43.02,4.23,0.6175841088652743,0.2505727274921756,0.9435719385969248,0.2656848314186684,0.9014310048158761,0.3904078247875825
769,43.542,43.07,4.2,0.6154718273773824,0.2452162335951972,0.9456612472198852,0.26514406210719293,0.904265964808496,0.3870468230314464
770,43.605,43.13,4.22,0.6133317967349277,0.23986522809008445,0.9477239340453901,0.2645550259571972,0.9070817873132845,0.38366228460361795
771,43.668,43.18,4.29,0.6111648569731668,0.23452219916785877,0.949759016612145,0.26391783456747475,0.9098771819073777,0.380254999851882
772,43.77,43.24,4.26,0.6089718659631614,0.22918962518638808,0.9517655204000807,0.2632326362829356,0.9126508563567255,0.3768257705739442
773,43.792,43.29,4.22,0.6067536989952461,0.22386997317316626,0.9537424798776606,0.2624996158175777,0.9154015181005735,0.37337540959124416
774,43.846,43.35,4.26,0.6045112483493322,0.21856569735479275,0.9556889395428855,0.26171899383890024,0.9181278757406933,0.3699047403117843
775,43.885,43.4,4.3,0.6022454228519438,0.21327923771370763,0.9576039549563409,0.2608910265148395,0.9208286405328855,0.3664145962821636
776,43.966,43.46,4.27,0.5999571474198678,0.20801301857264526,0.9594865937645883,0.26001600502432237,0.9235025278781888,0.3629058207289979
777,43.987,43.51,4.37,0.5976473625902895,0.20276944720718462,0.9613359367121946,0.2590942550324929,0.9261482588111359,0.3593792660899564
778,44.027,43.57,4.45,0.5953170240372772,0.19755091248669807,0.9631510786407252,0.2581261361315661,0.9287645614823171,0.35583579353473316
779,44.088,43.62,4.45,0.592967102074491,0.19235978354394467,0.9649311294731057,0.2571120412481386,0.9313501726324833,0.3522762724763827
780,44.13,43.67,4.49,0.5905985811440099,0.18719840847351304,0.9666752151818222,0.25605239601775037,0.9339038390554412,0.3487015800735456
781,44.192,43.73,4.59,0.588212459291209,0.18206911305929363,0.968382478739493,0.2549476581275764,0.9364243190470464,0.345112600724134
782,44.254,43.78,4.59,0.5858097476256762,0.1769741995311424,0.9700520810503688,0.2537983166282405,0.9389103838376961,0.3415102255510349
783,44.295,43.84,4.58,0.5833914697682059,0.1719159453508769,0.9716832018613644,0.25260489121584623,0.9413608190057905,0.33789535188035824
784,44.357,43.9,4.65,0.5809586612839701,0.1668966020277241,0.9732750406512315,0.25136793148540604,0.9437744258697147,0.3342688827127194
785,44.418,43.95,4.68,0.5785123691020159,0.16191839396331037,0.9748268174965156,0.2500880161569064,0.9461500228559553,0.33063172618800823
786,44.499,44.01,4.64,0.576053650921291,0.15698351732625004,0.9763377739129666,0.24876575227527636,0.9484864468410141,0.3269847950440925
787,44.519,44.06,4.69,0.5735835746034393,0.15209413895635276,0.9778071736711108,0.24740177438557395,0.9507825544648056,0.3233290060699174
788,44.6,44.12,4.77,0.571103217552627,0.14725239529843956,0.9792343035847179,0.24599674368477742,0.9530372234132476,0.31966527955348273
789,44.641,44.17,4.78,0.5686136660826673,0.142460391365737,0.9806184742709325,0.2445513471516376,0.955249353667769,0.3159945387251975
790,44.702,44.23,4.8,0.5661160147717065,0.13772019973281277,0.9819590208808673,0.24306629665612564,0.9574178687194798,0.31231770919713375
791,44.763,44.28,4.95,0.5636113658047276,0.13303385955802366,0.9832553037994562,0.24154232805011272,0.9595417167457942,0.30863571839870746
792,44.804,44.34,4.97,0.5611008283041418,0.12840337563545032,0.9845067093133885,0.2399802002409899,0.9616198717473788,0.30494949500929047
793,44.867,44.39,4.95,0.5585855176487704,0.12383071747628871,0.9857126502459772,0.23838069424992495,0.9636513346434137,0.3012599683882128
794,44.927,44.45,5.02,0.5560665547815627,0.11931781841965462,0.9868725665579129,0.23674461225637428,0.9656351343232957,0.29756806800255153
795,44.988,44.5,5.08,0.55354506550644,0.11486657477274369,0.9879859259129768,0.2350727766303431,0.967570328653081,0.29387472285305527
796,45.029,44.56,5.04,0.5510221797746967,0.11047884498027212,0.989052224207927,0.23336602895378245,0.9694560054350969,0.2901808608985608
797,45.091,44.61,5.05,0.5484990309614208,0.1061564488231087,0.9900709860658804,0.23162522903252794,0.9712912833192657,0.2864874084793383
798,45.152,44.67,5.11,0.5459767551324088,0.10190116664599419,0.9910417652925597,0.229851253900314,0.9730753126647713,0.2827952897398686
799,45.275,44.72,5.08,0.5434564903020634,0.09771473861422415,0.991964145294799,0.22804499681654064,0.9748072763507775,0.2791054260515958
800,45.295,44.78,5.1,0.5409393756827591,0.09359886399914501,0.9928377394607096,0.22620736625954646,0.9764863905349593,0.27541873543620776
801,45.316,44.83,5.23,0.5384265509261742,0.08955520049227214,0.9936621915009201,0.2243392849171574,0.9781119053586461,0.27173613198997715
802,45.337,44.89,5.28,0.535919155357094,0.08558536354779474,0.9944371757503188,0.22244168867622288,0.97968310559743,0.26805852530964774
803,45.398,44.94,5.26,0.5334183272002094,0.08169092575318947,0.9951623974297792,0.220515525612743,0.981199311256173,0.2643868199202995
804,45.459,45.0,5.34,0.5309252028004564,0.0778734162276402,0.9958375928674148,0.21856175498409466,0.9826598781074845,0.26072191470557227
805,45.521,45.05,5.39,0.5284409158374617,0.0741343200479512,0.9964625296790243,0.21658134622479328,0.9840641981729145,0.25706470234058987
806,45.604,45.1,5.38,0.5259665965346965,0.07047507770164178,0.9970370069075121,0.21457527794718184,0.9854117001462975,0.2534160687279305
807,45.624,45.16,5.4,0.5235033708639599,0.06689708456691869,0.9975608551212154,0.21254453694844366,0.9867018497588527,0.24977689243704165
808,45.686,45.22,5.46,0.5210523597458456,0.06340169041922739,0.9980339364711851,0.21049011722539396,0.9879341500858139,0.24614804414755634
809,45.727,45.27,5.42,0.5186146782468686,0.05999019896408437,0.9984561447075629,0.20841301899853448,0.9891081417945111,0.24253038609699043
810,45.788,45.33,5.38,0.5161914347739573,0.05666386739588157,0.9988274051552875,0.20631424774680754,0.9902234033339522,0.23892477153329825
811,45.849,45.38,5.44,0.5137837302670323,0.053423905982332875,0.9991476746494349,0.20419481325435493,0.9912795510660574,0.23533204417273246
812,45.911,45.44,5.45,0.5113926573904051,0.050271477674203015,0.9994169414305599,0.20205572867039642,0.9922762393387733,0.23175303766342284
813,45.973,45.49,5.43,0.5090192997237452,0.04720769773992753,0.9996352250004574,0.1998980095831547,0.9932131605013435,0.22818857505508813
814,46.014,45.55,5.51,0.5066647309533573,0.044233633424713946,0.999802575938788,0.1977226731086561,0.9940900448620463,0.22463946827533346
815,46.056,45.6,5.57,0.504330014064502,0.04135030363371337,0.99991907568105,0.19553073699524484,0.9949066605887881,0.22110651761304134
816,46.117,45.66,5.56,0.5020162005354913,0.03855867863887071,0.9999848362584148,0.1933232187447283,0.995662813553032,0.21759051120941833
817,46.178,45.71,5.57,0.4997243295342926,0.035859679809094006,1.0,0.191101134751183,0.9963583471176829,0.2140922245572984
818,46.219,45.77,5.65,0.4974554271183822,0.03325417936342111,0.9999647391982076,0.18886549945856168,0.9969931418697158,0.21061242000930283
819,46.282,45.82,5.61,0.49521050543862216,0.030743000146892963,0.9998792557378211,0.18661732453828558,0.9975671152985095,0.20715184629543024
820,46.344,45.88,5.57,0.4929905619479543,0.028326915428863876,0.9997437806896159,0.1843576180879821,0.9980802214210055,0.20371123805062055
821,46.407,45.93,5.62,0.49079657861573944,0.026006648723489064,0.9995585738693042,0.18208738385244735,0.9985324503549559,0.2002913153528271
822,46.449,45.99,5.62,0.4886295211485906,0.02378287363213297,0.999323923362704,0.1798076204677804,0.9989238278416346,0.1968927832721366
823,46.532,46.04,5.55,0.48649033821855986,0.02165621370744114,0.9990401450180872,0.17751932072949866,0.9992544147194675,0.1935163314315179
824,46.574,46.1,5.57,0.4843799606995279,0.019627242338818414,0.9987075819067058,0.1752234708853813,0.9995243063501,0.19016263357984478
825,46.616,46.15,5.61,0.4822993009126209,0.017696482659057124,0.9983266037524979,0.17292104995381513,0.9997336319984638,0.1868323471778948
826,46.7,46.21,5.59,0.48024925188144496,0.01586440747186022,0.997897606331976,0.17061302906847284,0.9998825541684467,0.18352611299807714
827,46.721,46.26,5.6,0.47823068659788326,0.01413143920000863,0.9974210108453013,0.16830037085019425,0.9999712678958042,0.18024455473869314
828,46.782,46.32,5.67,0.47624445729917486,0.012497949853930603,0.9968972632595525,0.16598402880695834,1.0,0.1769882786535462
829,46.823,46.37,5.66,0.47429139475697296,0.01096426102044018,0.9963268336252323,0.1636649467627872,0.999969008296759,0.17375787319768557
830,46.883,46.42,5.62,0.4723723075790843,0.009530643871421034,0.9957102153670908,0.16134405831632015,0.9998785807732148,0.17055390868999432
831,46.945,46.48,5.68,0.47048798152460464,0.00819731919224105,0.9950479245504005,0.15902228632966736,0.999729034727663,0.167376936993242
832,47.006,46.53,5.67,0.4686391788331848,0.006964457429693706,0.9943404991238917,0.15670054244798978,0.9995207158760547,0.164227491212142
833,47.068,46.59,5.6,0.4668266375691884,0.0058321787592766515,0.9935884981406502,0.15437972665007446,0.9992539974274712,0.1611060854099202
834,47.129,46.65,5.59,0.4650510709815185,0.004800553171637392,0.9927925009583639,0.15206072683004537,0.9989292791308988,0.15801321434392
835,47.171,46.7,5.58,0.46331316687989776,0.0038696005780364602,0.9919531064203752,0.14974441841028882,0.9985469862956925,0.15494935322080505
836,47.232,46.76,5.52,0.46161358702838534,0.0030392909346915725,0.9910709320190313,0.1474316639856511,0.9981075687881419,0.15191495747196296
837,47.313,46.81,5.48,0.45995296655689444,0.0023095443858704243,0.990146613042813,0.14512331299896633,0.9976115000065392,0.1489104625497447
838,47.334,46.87,5.55,0.45833191339144713,0.0016802314255979257,0.9891808017086844,0.14282020144797203,0.9970592758371158,0.14593628374517187
839,47.375,46.92,5.53,0.456751007703866,0.0011511730778393935,0.9881741662810483,0.14052315162361181,0.9964514135931664,0.14299281602770247
840,47.437,46.98,5.48,0.4552108013815668,0.0007221410950196305,0.987127390178648,0.13823297187958333,0.9957884509396515,0.14008043390758765
841,47.499,47.03,5.53,0.45371181751808715,0.0003928581747446979,0.9860411710707376,0.1359504564328214,0.9950709448055672,0.13719949132127382
842,47.561,47.09,5.54,0.4522545499249664,0.00016299819461316762,0.9849162199638671,0.13367638519441988,0.9942994702864046,0.1343503215402264
843,47.602,47.14,5.48,0.4508394626655752,3.2186465033455835e-05,0.9837532602806927,0.1314115236303104,0.9934746195390634,0.13153323710349485
844,47.665,47.2,5.46,0.4494669896114815,0.0,0.9825530269322964,0.1291566226509039,0.9925970006716309,0.128748529774316
845,47.726,47.25,5.49,0.44813753402192913,6.59678058165303e-05,0.9813162653855444,0.12691241852890553,0.9916672366304745,0.12599647052103843
846,47.847,47.31,5.41,0.44685146814699445,0.00022957118778576575,0.980043730727032,0.1246796328445985,0.990685964087119,0.12327730952263724
847,47.867,47.36,5.35,0.445609132854968,0.0004902440749124152,0.9787361867251593,0.12245897245800147,0.9896538323273734,0.12059127619906876
848,47.888,47.42,5.35,0.4444108372844799,0.0008473733626906872,0.9773944048918368,0.1202511295073589,0.9885715021451443,0.1179385792666529
849,47.93,47.47,5.32,0.4432568585218522,0.0013002992740658334,0.9760191635452906,0.1180567814333629,0.9874396447433234,0.11531940681857306
850,47.991,47.53,5.25,0.4421474413041214,0.0018483157386686476,0.9746112468753938,0.11587659102836595,0.9862589406440491,0.1127339264304692
851,48.053,47.58,5.27,0.4410827977481331,0.0024906707904259395,0.9731714440128895,0.11371120650970497,0.985030078610542,0.11018228529099351
852,48.093,47.64,5.27,0.44006310710606633,0.003226566983652959,0.9717005481038106,0.11156126161615086,0.9837537545826107,0.10766461035709836
853,48.175,47.69,5.21,0.4390885155477141,0.004055161827740769,0.9701993553903654,0.1094273757263867,0.9824306706278374,0.1051810085337533
854,48.196,47.75,5.19,0.4381591359698154,0.0049755682405680695,0.968668664299545,0.1073101539983343,0.981061533910376,0.10273156687774959
855,48.257,47.8,5.23,0.4372750478327243,0.005986855020791912,0.9671092745407165,0.1052101875281007,0.9796470556792366,0.10031635282523403
856,48.318,47.85,5.16,0.4364362970246903,0.00708804733920008,0.9655219862134826,0.10312805352732678,0.9781879502778728,0.09793541444261337
857,48.38,47.91,5.11,0.43564289575402515,0.008278127249336478,0.9639075989270867,0.10106431551781975,0.9766849341768217,0.09558878070046185
858,48.441,47.97,5.13,0.4348948224694276,0.009556034217637949,0.9622669109325985,0.0990195235425022,0.9751387250310872,0.09327646177002008
859,48.587,48.02,5.09,0.43419202180872946,0.010920665673345036,0.9606007182690683,0.09699421439180211,0.9735500407638842,0.09099844934178997
860,48.608,48.08,4.99,0.43353440457632425,0.01237087757846832,0.9589098139247753,0.09498891184459386,0.9719195986782738,0.08875471696564476
861,48.629,48.13,4.98,0.4329218477495312,0.013905485018105538,0.957194987014616,0.09300412692276458,0.9702481145981163,0.08654522041181287
862,48.67,48.19,4.99,0.432354194514127,0.015523262811411882,0.9554570219746008,0.09104035815848664,0.9685363020396452,0.08436989805206072
863,48.711,48.24,4.9,0.431831254329245,0.017222946143525743,0.9536966977743532,0.08909809187330503,0.9667848714148197,0.08222867126040366
864,48.773,48.3,4.88,0.43135280302178775,0.019003231218744806,0.9519147871484321,0.08717780246819444,0.964994529267453,0.08012144483269985
865,48.813,48.35,4.93,0.43091858291043766,0.020862775935236635,0.9501120558472353,0.08527995272377359,0.9631659775429519,0.0780481074245007
866,48.915,48.41,4.88,0.43052830295929634,0.022800200581556716,0.9482892619081912,0.08340499410983583,0.9612999128923625,0.07600853200653787
867,48.936,48.46,4.84,0.4301816389611347,0.024814088555238218,0.9464471549478951,0.0815533671032779,0.9593970260112821,0.07400257633722386
868,48.977,48.52,4.88,0.42987823375020195,0.02690298710371273,0.944586475475778,0.07972550151343458,0.9574580010140877,0.0720300834515169
869,49.038,48.57,4.88,0.42961769744451894,0.029065408087816314,0.942707954229782,0.07792181681378756,0.9554835148438459,0.070090882165458
870,49.078,48.63,4.82,0.42939960771756314,0.03129982876812664,0.9408123115343898,0.07614272247900512,0.9534742367181831,0.06818478759565134
871,49.139,48.68,4.82,0.4292235100992442,0.03360469261436275,0.9389002566812384,0.07438861832628144,0.9514308276113297,0.06631160169294883
872,49.201,48.74,4.82,0.4290889183060531,0.03597841013805879,0.9369724873324938,0.07265989485996574,0.9493539397724803,0.06447111378960677
873,49.265,48.79,4.73,0.42899531460025436,0.038419359748695606,0.9350296889471339,0.07095693361847318,0.9472442162805336,0.06266310115919953
874,49.305,48.85,4.67,0.4289421501779632,0.04092588863343899,0.9330725342302807,0.06928010752247878,0.945102290635178,0.06088732958860046
875,49.366,48.9,4.73,0.4289288455859146,0.043496313660592256,0.9311016826056919,0.06762978122340316,0.9429287863841521,0.059143553961346504
876,49.426,48.96,4.67,0.4289547911666847,0.04612892230682205,0.9291177797114711,0.0660063114511796,0.9407243167863625,0.05743151885168354
877,49.468,49.01,4.63,0.4290193475320723,0.048821973608162705,0.9271214569190057,0.06441004736022739,0.9384894845103611,0.055750959128551554
