,Time_Host,Time_Arduino,easingdata,CH1_Oxy,CH1_Deoxy,CH2_Oxy,CH2_Deoxy,CH3_Oxy,CH3_Deoxy
0,1.168,0.04,0.0,0.6486254344260968,0.0,0.08990132920382218,0.7981767043151796,0.20359967501940177,0.5574484790949434
1,1.189,0.1,0.0,0.6396202910099781,0.014638902169171164,0.09319867329228555,0.7895333695227418,0.20307386491256926,0.5587051134069807
2,1.209,0.15,0.0,0.6306844289700617,0.02915716227135423,0.09647734822842292,0.7809488927284153,0.20256173996285082,0.5599463581582618
3,1.292,0.21,0.0,0.6218212623534126,0.04354926380211543,0.09973621450779414,0.7724262958065068,0.2020636586498244,0.5611714759312016
4,1.312,0.26,0.0,0.613034138249844,0.05780980212587448,0.10297415231565861,0.7639685397502461,0.20157996979591075,0.5623797373624337
5,1.333,1.05,0.0,0.6043263339653695,0.0719334887295989,0.10619006235778397,0.7555785223850384,0.20111101217939095,0.5635704218189211
6,1.353,1.1,0.0,0.5957010543063667,0.08591515529028258,0.10938286665407182,0.7472590761878323,0.20065711415724596,0.5647428180664668
7,1.375,1.16,0.0,0.5871614289767396,0.0997497575540237,0.11255150929460474,0.7390129662135119,0.20021859329818853,0.5658962249298572
8,1.395,1.21,0.0,0.5787105100900742,0.11343237902504963,0.11569495715783161,0.7308428881288945,0.19979575602623165,0.5670299519438844
9,1.457,1.27,0.0,0.570351269798485,0.12695823446355378,0.11881220059071822,0.7227514663546022,0.19938889727511108,0.5681433199944929
10,1.519,1.32,0.01,0.5620865980395691,0.14032267319171182,0.12190225405079673,0.7147412523147675,0.19899830015385625,0.5692356619493102
11,1.62,1.38,0.03,0.5539193004026205,0.153521182207701,0.12496415671014517,0.7068147227942564,0.1986242356237798,0.5703063232768162
12,1.641,1.43,-0.05,0.545852096115022,0.1665493891079118,0.12799697302140614,0.6989742784028726,0.1982669621871336,0.5713546626534074
13,1.682,1.49,-0.11,0.5378876161495344,0.1794030648177766,0.1309997932460074,0.6912222421458917,0.1979267255876604,0.5723800525576057
14,1.743,1.54,-0.03,0.5300284014530239,0.19207812613180367,0.1339717339447786,0.6835608581002081,0.19760375852324052,0.5733818798506551
15,1.784,1.6,-0.07,0.5222769012969708,0.20457063806355685,0.13691193843118643,0.6759922901953169,0.197298280370787,0.5743595463427764
16,1.866,1.65,-0.1,0.5146354717499182,0.21687681600642147,0.13981957718743399,0.6685186210982549,0.19701049692347697,0.5753124693443952
17,1.886,1.71,0.03,0.5071063742718488,0.22899302770602475,0.14269384824369236,0.661141851201525,0.19674060014035236,0.5762400822017069
18,1.991,1.76,0.05,0.499691774430283,0.240915795045206,0.14553397752076008,0.6538638977129166,0.19648876790828124,0.5771418348159764
19,2.012,1.82,0.03,0.49239374073770215,0.25264179564253264,0.1483392191364802,0.646686593846019,0.19625516381625738,0.5780171941460135
20,2.053,1.87,0.05,0.4852142436097004,0.2641678642655524,0.15110885567626728,0.6396116881101482,0.19603993694202138,0.5788656446932919
21,2.116,1.93,0.12,0.47815515444306855,0.27549099406031513,0.1538421984281291,0.632640843698343,0.19584322165101423,0.5796866889691815
22,2.179,1.99,0.07,0.47121824481278635,0.2866083375991711,0.15653858758261374,0.6257756379719802,0.195665137407702,0.5804798479437571
23,2.241,2.04,0.04,0.4644051857867206,0.2975172077492587,0.15919739239816502,0.619017562040455,0.1955057885993311,0.5812446614756568
24,2.283,2.1,0.14,0.45771754735671544,0.3082150783643182,0.1618180113324123,0.6123680204342927,0.19536526437218546,0.5819806887224778
25,2.388,2.15,0.05,0.4511567979846607,0.318699584802591,0.16439987213995788,0.605828330870007,0.19524363848042423,0.5826875085312034
26,2.409,2.2,-0.03,0.44472430426200393,0.32896852427367046,0.1669424319372601,0.5993997241049622,0.19514096914757187,0.5833647198081716
27,2.451,2.26,0.03,0.43842133068103106,0.33901985601728146,0.1694451772352378,0.5930833438804411,0.1950572989407182,0.5840119418681043
28,2.514,2.31,0.04,0.4322490395160535,0.34885170131714127,0.17190762394025355,0.5868802469510526,0.19499265465745613,0.5846288147617387
29,2.556,2.37,0.04,0.426208490812445,0.35846234335328836,0.1743293173241567,0.5807914031985365,0.1949470472255383,0.5852149995816542
30,2.597,2.42,0.07,0.4203006424813035,0.36785022689648084,0.17670983196407095,0.5748176958279909,0.19492047161518644,0.5857701787459403
31,2.66,2.48,0.17,0.41452635049737835,0.3770139578484852,0.17904877165260652,0.568959921644551,0.1949129067639643,0.586294056259374
32,2.723,2.54,0.13,0.4088863691977933,0.38595230263235436,0.18134576927918633,0.5632187914085567,0.19492431551412792,0.5867863579517746
33,2.786,2.59,0.11,0.4033813516790439,0.39466418743700976,0.18360048668319096,0.5575949302672434,0.19495464456238878,0.5872468316932005
34,2.828,2.64,0.25,0.39801185028975994,0.40314869732051445,0.18581261447964445,0.5520888782610279,0.19500382442206232,0.5876752475856645
35,2.891,2.7,0.18,0.3927783172167253,0.4114050751764565,0.18798187185817994,0.5467010909024878,0.1950717693976101,0.5880713981310651
36,2.954,2.75,0.13,0.38768110516163606,0.4194327205678688,0.19010800635604191,0.5414319398261738,0.1951583775716181,0.5884350983750646
37,3.016,2.81,0.2,0.38272046810607824,0.42723118843302327,0.19219079360589994,0.5362817135074307,0.19526353080428197,0.5887661860266924
38,3.079,2.87,0.19,0.37789656216221074,0.4348001876672959,0.19423003705927241,0.5312506180484283,0.1953870947454924,0.5890645215534973
39,3.1,2.92,0.14,0.3732094465066227,0.4421395795851746,0.19622556768638405,0.5263387780296134,0.19552891885961868,0.5893299882521325
40,3.163,2.98,0.1,0.36865908439484746,0.4492493762663597,0.1981772436532849,0.5215462374248272,0.19568883646307988,0.5895624922943463
41,3.227,3.03,0.18,0.3642453442540552,0.4561297387897561,0.2000849499770497,0.516872960578398,0.19586666477478076,0.5897619627484033
42,3.29,3.08,0.15,0.3599680008515077,0.46278097535901475,0.20194859815986937,0.5123188332425546,0.19606220497946814,0.5899283515760289
43,3.31,3.14,0.14,0.35582673653642966,0.469203539323123,0.2037681258028464,0.5078836636735029,0.19627524230403542,0.5900616336050314
44,3.372,3.19,0.28,0.3518211425530139,0.47539802709536,0.20554349620030538,0.5035671837844962,0.19650554610678525,0.5901618064778219
45,3.453,3.25,0.22,0.3479507204223025,0.48136517597379397,0.20727469791543765,0.49936905035419143,0.19675286997965852,0.5902288905760894
46,3.494,3.31,0.18,0.3442148833906812,0.4871058618664176,0.2089617443381104,0.4952888462885662,0.19701695186345813,0.5902629289219374
47,3.535,3.36,0.25,0.34061295794273566,0.49262109692390627,0.21060467322568052,0.49132608193464994,0.19729751417612712,0.5902639870558112
48,3.624,3.41,0.27,0.3371441853762226,0.49791202708289917,0.21220354622766865,0.48748019644433277,0.19759426395417287,0.5902321528915722
49,3.645,3.47,0.23,0.33380772343688836,0.502979929522702,0.21375844839517213,0.48375055918648247,0.19790689300734737,0.5901675365491247
50,3.708,3.52,0.21,0.3306026480108611,0.5078262100383572,0.21526948767590393,0.480136471205594,0.19823507808670396,0.5900702701650519
51,3.791,3.58,0.26,0.32752795487233133,0.5124524003331167,0.21673679439574658,0.47663716672520545,0.19857848106616144,0.589940507681765
52,3.853,3.63,0.17,0.32458256148420406,0.5168601552335521,0.21816052072771014,0.47325181469430305,0.1989367491377169,0.5897784246156953
53,3.873,3.69,0.09,0.32176530884938,0.5210512498307116,0.21954084014918165,0.4699795203749181,0.19930951502043884,0.5895842178050983
54,3.933,3.75,0.22,0.3190749634103349,0.5250275765507976,0.22087794688834117,0.46681932696910067,0.1996963971833539,0.5893581051380785
55,3.973,3.8,0.16,0.31651021899466525,0.528791142158834,0.22217205536060003,0.463770217283441,0.20009700008230044,0.5891003252614962
56,4.056,3.85,0.12,0.31406969880424945,0.5323440646987504,0.22342339959589616,0.46083111542930105,0.20051091441078076,0.5888111372714502
57,4.118,3.91,0.19,0.31175195744566153,0.5356885703732238,0.22463223265765125,0.4580008885569427,0.20093771736480964,0.5884908203860635
58,4.2,3.96,0.19,0.30955548299944485,0.5388269903665484,0.22579882605418078,0.45527834862175054,0.20137697292173828,0.5881396736013
59,4.22,4.02,0.16,0.30747869912581455,0.5417617576138378,0.22692346914334438,0.45266225418072603,0.2018282321330221,0.5877580153305513
60,4.261,4.08,0.13,0.3055199672043497,0.5444954035199361,0.2280064685312174,0.45015131221740234,0.20229103343089203,0.5873461830287551
61,4.322,4.13,0.22,0.30367758850522875,0.5470305546315277,0.22904814746554997,0.44774417999333166,0.20276490294888347,0.5869045328018221
62,4.364,4.18,0.14,0.3019498063895137,0.5493699292661557,0.23004884522477156,0.44543946692428543,0.20324935485616988,0.5864334390021434
63,4.446,4.24,0.06,0.3003348085359445,0.5515163341020717,0.23100891650328884,0.4432357364792923,0.20374389170563298,0.5859332938109534
64,4.486,4.29,0.16,0.29883072919169773,0.5534726607329018,0.2319287307938093,0.44113150810063634,0.20424800479558305,0.58540450680832
65,4.547,4.35,0.05,0.29743565144457257,0.5552418821910864,0.23280867176739928,0.43912525914293987,0.2047611745450145,0.5848475045315286
66,4.609,4.41,-0.04,0.2961476095140653,0.5568270494440032,0.23364913665196071,0.4372154268294685,0.2052828708822379,0.584262730022641
67,4.65,4.46,0.01,0.2949645910587927,0.5582312878666219,0.23445053560978285,0.4354004102238223,0.20581255364667414,0.5836506423660304
68,4.712,4.51,0.03,0.2938845394977067,0.5594577936945202,0.23521329111480616,0.4336785722151826,0.20634967300352733,0.5830117162166985
69,4.754,4.57,0.02,0.2929053563424978,0.5605098304611635,0.23593783733022347,0.432048241515232,0.206893669870975,0.5823464413201941
70,4.815,4.62,0.01,0.29202490353856464,0.5613907254234258,0.23662461948702315,0.43050771466481047,0.20744397635944042,0.581655322024973
71,4.856,4.68,0.12,0.2912410058119397,0.5621038659793683,0.23727409326405796,0.42905525804833644,0.2080000162224619,0.5809388767880419
72,4.958,4.74,0.06,0.2905514530195552,0.5626526960823861,0.23788672417021914,0.4276891099139928,0.20856120531865102,0.5801976376747111
73,4.978,4.79,0.02,0.28995400250024145,0.563040712655919,0.23846298692930637,0.42640748239763504,0.2091269520842232,0.5794321498532552
74,5.021,4.84,0.15,0.2894463814238807,0.5632714620129087,0.2390033648681861,0.4252085635483607,0.20969665801558177,0.5786429710852405
75,5.081,4.9,0.08,0.2890262891361758,0.563348536284095,0.2395083493088263,0.4240905193536763,0.21026971816143558,0.5778306712122488
76,5.143,4.95,0.03,0.28869139949652206,0.5632755698591398,0.239978438964783,0.4230514957622147,0.2108455216239157,0.5769958316397026
77,5.205,5.01,0.06,0.2884393632065146,0.5630562358444112,0.24041413934270764,0.42208962070197487,0.21142345206814597,0.5761390448184865
78,5.288,5.07,0.07,0.28826781012666214,0.562694242541128,0.2408159621494641,0.4212030060920413,0.2120028882397006,0.5752609137250224
79,5.308,5.12,0.0,0.2881743515789038,0.5621933299475178,0.24118442470547796,0.4203897498456496,0.21258320448935053,0.5743620513404312
80,5.349,5.17,-0.03,0.28815658263257166,0.5615572662885882,0.24152004936496393,0.41964793786238375,0.2131637713044534,0.5734430801294123
81,5.41,5.23,0.1,0.2882120843715076,0.5607898445770332,0.24182336294366097,0.4189756460072594,0.2137439558462897,0.572504631519465
82,5.472,5.29,0.06,0.28833842614007693,0.5598948792087507,0.24209489615468108,0.41837094207443376,0.21432312249259555,0.5715473453810644
83,5.533,5.34,0.04,0.2885331677658471,0.5588762025963957,0.24233518305304788,0.4178318877332783,0.21490063338449092,0.5705718695093948
84,5.574,5.39,0.19,0.28879386175674515,0.5577376618442377,0.24254476048947451,0.4173565404545508,0.2154758489769727,0.5695788591082195
85,5.655,5.45,0.17,0.2891180554705592,0.5564831154674061,0.2427241675739142,0.4169429554144125,0.21604812859213174,0.5685689762764444
86,5.675,5.5,0.15,0.28950329325468044,0.555116430158442,0.24287394514940358,0.41658918737406175,0.2166168309742616,0.5675428894979142
87,5.738,5.56,0.21,0.28994711855403643,0.5536414776039137,0.24299463527670484,0.41629329253282094,0.21718131484604508,0.5665012731349575
88,5.799,5.62,0.27,0.2904470759852134,0.5520621313537675,0.2430867807302445,0.41605333035257397,0.21774093946503464,0.5654448069261504
89,5.861,5.67,0.24,0.2910007133748109,0.5503822637460801,0.24315092450585232,0.41586736535145397,0.21829506517966663,0.5643741754887244
90,5.922,5.72,0.21,0.29160558376016,0.5486057428898681,0.24318760934080788,0.41573346886467233,0.2188430539840689,0.563290067826019
91,5.964,5.78,0.29,0.2922592473506594,0.5467364297084963,0.2431973772466921,0.41564972077040857,0.21938427007093497,0.5621931768403595
92,6.026,5.83,0.2,0.2929592734480914,0.5447781750461214,0.24318076905552605,0.415614211178719,0.21991808038175004,0.5610841988517085
93,6.088,5.89,0.14,0.29370324232435824,0.5427348168394999,0.24313832397965646,0.41562504208146467,0.22044385515364584,0.5599638331224266
94,6.15,5.95,0.29,0.29448874705515904,0.5406101773573134,0.24307057918581432,0.4156803289613049,0.22096096846214314,0.5588327813884714
95,6.19,6.0,0.29,0.295313395308171,0.538408060508984,0.24297806938373095,0.4157782023578577,0.22146879875900716,0.5576917473973566
96,6.23,6.05,0.3,0.29617481108429583,0.5361322492248305,0.2428613264296553,0.41591680938919184,0.22196672940440584,0.5565414364532112
97,6.292,6.11,0.38,0.29707063641054143,0.5337865029093131,0.24272087894506572,0.41609431522691565,0.22245414919254536,0.5553825549692609
98,6.414,6.16,0.46,0.29799853298314033,0.5313745549690684,0.2425572519508358,0.4163089045232337,0.22293045286997437,0.5542158100280129
99,6.435,6.22,0.46,0.29895618375955607,0.5289001104174542,0.24237096651710052,0.4165587827884105,0.22339504164579238,0.5530419089493573
100,6.476,6.28,0.46,0.2999412944981581,0.5263668435572739,0.24216253942905677,0.4168421777171474,0.22384732369305116,0.5518615588667477
101,6.518,6.33,0.58,0.3009515952445275,0.52377839574314,0.2419324828689143,0.41715734046249003,0.22428671464070435,0.5506754663115706
102,6.579,6.38,0.54,0.3019848417635433,0.5211383732246845,0.24168130411419114,0.41750254685600213,0.2247126380555249,0.5494843368057599
103,6.66,6.44,0.49,0.3030388169165473,0.5184503450715973,0.2414095052525268,0.4178760985730437,0.22512452591346976,0.5482888744626646
104,6.681,6.5,0.6,0.30411133198301876,0.5157178411812386,0.24111758291316276,0.41827632424208777,0.22552181906002058,0.5470897815961265
105,6.762,6.55,0.57,0.30520022792627255,0.5129443503693601,0.24080602801521805,0.41870158049709794,0.22590396765907092,0.5458877583376796
106,6.783,6.61,0.51,0.306303376602745,0.5101333185443011,0.24047532553285675,0.4191502529720767,0.2262704316299535,0.5446835022617551
107,6.844,6.66,0.53,0.30741868191448096,0.5072881469648771,0.24012595427740313,0.4196207572370209,0.22662068107221764,0.5434777080187556
108,6.905,6.71,0.61,0.3085440809044982,0.5044121905820379,0.23975838669640798,0.42011153967465886,0.22695419667777833,0.5422710669758208
109,6.947,6.77,0.59,0.3096775447947812,0.5015087564642873,0.2393730886896352,0.42062107829744194,0.22727047013006,0.5410642668650787
110,7.008,6.83,0.6,0.3108170799667912,0.498581102306689,0.23897051944189796,0.421147883504366,0.22756900448976028,0.5398579914391437
111,7.07,6.88,0.74,0.31196072888455406,0.4956324350229861,0.2385511312726372,0.42169049877733017,0.22784931456687535,0.5386529201336137
112,7.13,6.93,0.69,0.3131065709605606,0.49266590942005306,0.23811536950209547,0.4222475013168929,0.2281109272786623,0.5374497277362839
113,7.213,6.99,0.67,0.3142527233648546,0.48968462695362447,0.2376636723339113,0.42281750261743817,0.2283533819932658,0.5362490840627927
114,7.234,7.04,0.78,0.31539734177783174,0.48669163456397174,0.23719647075393333,0.4233991489819173,0.22857623085879375,0.535051653638393
115,7.275,7.1,0.78,0.31653862108740366,0.4836899235899387,0.23671418844504127,0.423991121976463,0.22877903911768957,0.533858095385532
116,7.337,7.16,0.75,0.3176747960312838,0.48068242875955874,0.2362172417177536,0.4245921388252749,0.22896138540630015,0.5326690623169283
117,7.398,7.21,0.74,0.31880414178524047,0.47767202725536023,0.23570603945638074,0.4252009527462971,0.22912286203959042,0.5314852012338436
118,7.522,7.26,0.79,0.319924974498227,0.4746615378524486,0.23518098308045396,0.4258163532283568,0.2292630752810055,0.5303071524292328
119,7.542,7.32,0.71,0.32103565177533216,0.4716537201275829,0.2346424665211386,0.42643716625054423,0.22938164559751884,0.529135549395462
120,7.562,7.37,0.65,0.3221345731095533,0.46865127373757415,0.23409087621232036,0.427062254444718,0.22947820789992496,0.5279710185362944
121,7.643,7.43,0.77,0.32322018026347216,0.46565683776534494,0.23352659109602866,0.4276905172021311,0.22955241176844016,0.5268141788828822
122,7.664,7.49,0.71,0.3242909576019698,0.4626729901319666,0.23294998264183253,0.4283208907252726,0.229603921663666,0.5256656418135235
123,7.725,7.54,0.68,0.3253454323771493,0.45970224707294044,0.2323614148798214,0.4289523480261014,0.22963241712295834,0.5245260107769553
124,7.767,7.59,0.78,0.32638217496666655,0.45674706267687004,0.231761244446761,0.4295838988719069,0.22963759294224098,0.5233958810189598
125,7.871,7.65,0.79,0.3273997990666903,0.453809828484545,0.23114982064501202,0.4302145896800849,0.2296191593433127,0.5222758393120699
126,7.891,7.7,0.78,0.3283969618407128,0.45089287314639326,0.23052748551379906,0.43084350336315264,0.22957684212671767,0.5211664636881878
127,7.951,7.76,0.79,0.32937236402544773,0.44799846213625766,0.2298945739124126,0.4314697591254084,0.22951038281028124,0.5200683231739766
128,8.013,7.82,0.87,0.33032474999505923,0.4451287975195785,0.22925141361490864,0.43209251221276007,0.2294195387534571,0.5189819775289145
129,8.074,7.87,0.82,0.3312529077849549,0.4422860177743258,0.22859832541586456,0.43271095361734074,0.2293040832676853,0.5179079769859077
130,8.135,7.92,0.77,0.33215566907639654,0.4394721976632473,0.22793562324674843,0.43332430973860514,0.22916380571300665,0.5168468619943889
131,8.177,7.98,0.88,0.3330319091432645,0.4366893481560239,0.22726361430246053,0.4339318420026709,0.22899851158122791,0.5157991629658373
132,8.239,8.04,0.78,0.33388054676239115,0.4339394163998363,0.22658259917761284,0.4345328464417238,0.22880802256597005,0.5147654000216784
133,8.28,8.09,0.7,0.3347005440889456,0.4312242857367237,0.22589287201211866,0.4351266532353521,0.2285921766199575,0.5137460827435469
134,8.341,8.15,0.74,0.3354909064984016,0.4285457757659512,0.22519472064566692,0.435712626215726,0.22835082799991963,0.5127417099259248
135,8.403,8.2,0.74,0.3362506823966298,0.4259056424494647,0.22448842678065561,0.436290162338584,0.22808384729947118,0.5117527693312018
136,8.443,8.26,0.73,0.3369789629996197,0.42330557825848164,0.22377426615315674,0.4368586911220121,0.22779112147031705,0.5107797374472636
137,8.505,8.31,0.72,0.3376748820842855,0.4207472123592976,0.223052508711464,0.43741767405504894,0.2274725538320994,0.5098230792477692
138,8.607,8.37,0.82,0.3383376157117638,0.41823211083651635,0.2223234188017447,0.4379666039782182,0.2271280640711927,0.5088832479553285
139,8.627,8.42,0.77,0.3389663819245612,0.415761776952131,0.22158725536029972,0.4385050044381302,0.2267575882287636,0.5079606848078053
140,8.667,8.48,0.72,0.3395604404188991,0.41333765143905576,0.22084427211192995,0.43903242901829803,0.22636107867843566,0.5070558188279874
141,8.73,8.53,0.85,0.3401190921936541,0.41096111282773273,0.2200947177739058,0.43954846064831754,0.2259385040939354,0.5061690665968567
142,8.772,8.59,0.77,0.3406416791773272,0.40863347780439313,0.21933883626504383,0.4400527108935503,0.22548984940713052,0.5053008320306744
143,8.834,8.64,0.71,0.34112758383448916,0.4063560015995033,0.21857686691940142,0.44054481922744243,0.22501511575690422,0.5044515061620976
144,8.875,8.7,0.76,0.34157622875315996,0.4041298784048431,0.21780904470410828,0.4410244522886213,0.22451432042933364,0.5036214669255518
145,8.956,8.75,0.74,0.3419870762145691,0.4019562418175967,0.21703560044086645,0.44149130312490836,0.22398749678966126,0.5028110789471033
146,8.977,8.81,0.66,0.34235962774670825,0.39983616530985244,0.2162567610306721,0.4419450904263325,0.22343469420655213,0.5020206933390963
147,9.039,8.86,0.6,0.34269342366304506,0.39777066272198885,0.21547274968132094,0.442385557749166,0.22285597796912215,0.5012506474998495
148,9.101,8.91,0.66,0.34298804258770405,0.395760688778598,0.21468378613725841,0.44281247273296587,0.2222514291972073,0.5005012649187198
149,9.161,8.97,0.6,0.3432431009683176,0.3938071396258854,0.21389008691133318,0.44322562631255097,0.22162114474531702,0.4997728549868483
150,9.202,9.03,0.56,0.3434582525776528,0.3919108533897592,0.21309186551800863,0.4436248319267929,0.22096523710067528,0.4990657128139216
151,9.262,9.08,0.7,0.3436331880050769,0.3900726107539012,0.2122893327075752,0.44400992472605494,0.22028383427572046,0.49838011905129365
152,9.366,9.14,0.62,0.3437676341389129,0.38829313555706674,0.2114826967008935,0.44438076078008043,0.21957707969541043,0.4977163397218212
153,9.387,9.19,0.56,0.34386135364074744,0.38657309540873097,0.2106721634241907,0.44473721628810803,0.21884513207967826,0.49707462605677755
154,9.429,9.25,0.62,0.3439141444127896,0.384913102322011,0.209857936743426,0.445079186792986,0.2180881653213896,0.49645521434021583
155,9.49,9.3,0.61,0.34392583905940655,0.38331371336263714,0.2090402186977514,0.4454065864010341,0.21730636836016937,0.49585832576115685
156,9.572,9.36,0.57,0.3438963043439403,0.3817754313127175,0.20821920973161706,0.4457193470093213,0.21649994505246598,0.4952841662739782
157,9.592,9.41,0.52,0.34382544064186843,0.38029870534811255,0.2073951089250877,0.44601741754194496,0.21566911403821928,0.4947329264674054
158,9.653,9.47,0.58,0.3437131813913116,0.37888393172837886,0.20656811422194915,0.44630076319683326,0.21481410860449365,0.494204781442515
159,9.693,9.52,0.47,0.3435594925417986,0.37753145449845715,0.20573842265520123,0.4465693647045283,0.2139351765464324,0.49369989070015674
160,9.774,9.58,0.39,0.34336437200213,0.3762415662014512,0.2049062305695448,0.44682321760033744,0.21303258002587339,0.4932183980382049
161,9.815,9.63,0.46,0.34312784908814187,0.37501450860187974,0.20407173384046973,0.44706233151119423,0.21210659542793614,0.49276043145904036
162,9.855,9.69,0.36,0.34284998397113653,0.37385047341875116,0.2032351280895339,0.4472867294585316,0.21115751321585025,0.49232610308766633
163,9.917,9.74,0.32,0.34253086712769293,0.3727496030677566,0.20239660889539987,0.4474964471784452,0.2101856377842335,0.49191550910085535
164,9.978,9.8,0.38,0.34217061879151944,0.3717119914117707,0.20155637200016843,0.44769153246041304,0.20919128731096917,0.4915287296677237
165,10.081,9.85,0.39,0.34176938840795257,0.37073768451876216,0.20071461351053776,0.4478720445057978,0.20817479360777544,0.49116582890209953
166,10.101,9.91,0.37,0.3413273540916315,0.36982668142623076,0.19987153009332717,0.4480380533072548,0.20713650196951536,0.49082685482703237
167,10.164,9.96,0.35,0.34084472208782424,0.3689789349113573,0.1990273191649238,0.4481896390500407,0.20607677102227134,0.49051183935177695
168,10.206,10.02,0.43,0.34032172623783796,0.36819435226618247,0.19818217907423064,0.44832689153610983,0.20499597257020433,0.490220798261568
169,10.248,10.07,0.35,0.3397586274488795,0.36747279607734185,0.19733630927872622,0.44844990963176956,0.20389449144122573,0.489953731220466
170,10.31,10.13,0.29,0.3391557131686619,0.3668140850100753,0.19648991051327871,0.4485588007395601,0.2027727253315179,0.4897106217875313
171,10.372,10.18,0.4,0.3385132968650285,0.36621799459627524,0.1956431849513826,0.4486536802949452,0.20163108464894008,0.4894914374465529
172,10.435,10.24,0.31,0.33783171751083685,0.3656842580263018,0.19479633635851007,0.4487346712883326,0.20046999235535268,0.4892961296495356
173,10.496,10.29,0.25,0.3371113390743022,0.3652125669442592,0.19394957023728812,0.44880190381287777,0.19928988380787865,0.4891246338741426
174,10.556,10.35,0.25,0.33635255001496384,0.36480257224638113,0.19310309396422767,0.44885551463847256,0.1980912065991029,0.48897686969526694
175,10.577,10.4,0.23,0.33555576278538074,0.3644538848821824,0.19225711691774341,0.4488956468122612,0.19687442039618835,0.4888527408708607
176,10.638,10.46,0.17,0.3347214133385858,0.36416607665814027,0.19141185059722599,0.44892244928591385,0.19563999677885288,0.4887521354421011
177,10.701,10.51,0.14,0.3338499606412643,0.3639386810437913,0.19056750873293965,0.44893607656976814,0.19438841907609636,0.4886749258479351
178,10.782,10.57,0.23,0.3329418861925724,0.36377119398022384,0.1897243073865207,0.4489366884138558,0.1931201822015167,0.4886209690540164
179,10.844,10.62,0.17,0.3319976935484428,0.3636630746910706,0.1888824650418557,0.4489244495157353,0.19183579248699806,0.4885901066960252
180,10.865,10.68,0.15,0.3310179078511617,0.36361374649620887,0.18804220268613042,0.44889952925495435,0.19053576751451884,0.4885821652373441
181,10.906,10.73,0.28,0.33000307536397455,0.36362259762836585,0.18720374388085348,0.4488621014538857,0.1892206359458044,0.48859695614105153
182,10.967,10.79,0.22,0.32895376301045204,0.36368898205277705,0.1863673148226801,0.44881234416460714,0.1878909373495493,0.4886342760561582
183,11.029,10.84,0.18,0.3278705579183198,0.3638122202899938,0.18553314439388202,0.4487504394814383,0.18654722202594415,0.4886939070179761
184,11.091,10.9,0.22,0.32675406696743453,0.36399160024186494,0.18470146420232603,0.44867657337871414,0.18519005082826237,0.4887756166624471
185,11.172,10.95,0.24,0.32560491634157257,0.36422637802066193,0.18387250861084373,0.4485909355733365,0.1838199949812849,0.4888791584541887
186,11.192,11.01,0.19,0.32442375108366756,0.36451577878134456,0.1830465147559112,0.4484937194115537,0.1824376358963579,0.48900427192795826
187,11.233,11.06,0.12,0.3232112346541377,0.36485899755698026,0.18222372255558963,0.4483851217793168,0.18104356498288476,0.4891506829432098
188,11.295,11.12,0.18,0.32196804849197,0.3652552000973089,0.1814043747067063,0.44826534303547977,0.17963838345605712,0.4893181039513978
189,11.357,11.17,0.07,0.3206948915782433,0.3657035237104423,0.1805887166712847,0.4481345869670313,0.17822270214062297,0.48950623427565887
190,11.419,11.23,-0.01,0.319392480001775,0.36620307810768543,0.1797769966522575,0.4479930607654651,0.17679714127046586,0.48971476040250256
191,11.562,11.28,0.13,0.31806154652658436,0.3667529462513929,0.178969465558513,0.4478409750233376,0.17536233028372816,0.48994335628515245
192,11.584,11.34,0.09,0.31670284016084443,0.3673521852057003,0.1781663769593363,0.44767854374999466,0.1739189076131636,0.4901916836581948
193,11.603,11.39,0.07,0.31531712572693393,0.3679998269899409,0.17736798702831602,0.4475059844053974,0.17246752047135763,0.4904593923632115
194,11.624,11.45,0.11,0.3139051834321436,0.3686948794345592,0.17657455447679068,0.44732351795094755,0.17100882463043365,0.4907461206850743
195,11.686,11.5,0.15,0.3124678084395244,0.3694363270394066,0.17578634047691974,0.44713136891619476,0.16954348419586796,0.4910514956985488
196,11.748,11.56,0.11,0.3110058104383114,0.3702231318344485,0.17500360857449065,0.44692976548024843,0.16807217137406008,0.49137513362481555
197,11.809,11.61,0.08,0.3095200132133612,0.37105423424300443,0.17422662459159793,0.4467189395666579,0.16659556623333127,0.491716640197501
198,11.911,11.66,0.18,0.30801125421310255,0.3719285539476063,0.1734556565193463,0.44649912695051025,0.1651143564580534,0.49207561103779074
199,11.932,11.72,0.09,0.30648038411555684,0.3728449907585211,0.17269097440074604,0.44627056737648424,0.16362923709564042,0.4924516320381821
200,11.974,11.78,0.02,0.3049282663920187,0.37380242548497195,0.17193285020398774,0.4460335046865776,0.1621409102961547,0.4928442797544149
201,12.035,11.83,0.11,0.30335577686801013,0.3747997208090461,0.1711815576863036,0.4457881869561992,0.16065008504429876,0.4932531218051091
202,12.075,11.89,0.03,0.3017638032811154,0.3758357221622473,0.17043737224864833,0.44553486663727654,0.15915747688356663,0.4936777172786273
203,12.116,11.94,-0.06,0.30015324483525724,0.37690925860467334,0.16970057078145856,0.445273800706986,0.15766380763232213,0.494117617146695
204,12.178,12.0,-0.04,0.29852501175092844,0.3780191437068415,0.16897143150176286,0.44500525082070697,0.15616980509155284,0.49457236468432464
205,12.281,12.05,0.02,0.29688002481083076,0.37916417643430944,0.16825023378191845,0.4447294834678163,0.15467620274402577,0.49504149589559343
206,12.302,12.11,-0.01,0.29521921490030695,0.3803431420354277,0.16753725797025784,0.4444467701289304,0.15318373944454167,0.4955245399448384
207,12.342,12.16,-0.02,0.2935435225419447,0.3815548129326553,0.1668327852039282,0.44415738743319966,0.15169315910095724,0.49602101959284933
208,12.404,12.22,0.09,0.2918538974237931,0.3827979496177847,0.16613709721419792,0.44386161731429014,0.15020521034564313,0.4965304516376521
209,12.444,12.27,0.04,0.2901512979207078,0.3840713015512819,0.16545047612450284,0.443559747163722,0.1487206461970687,0.4970523473594606
210,12.507,12.33,-0.01,0.28843669060839605,0.38537360806584875,0.16477320424150302,0.44325206998025846,0.14724022371124532,0.4975862129693515
211,12.568,12.38,0.1,0.28671104976978573,0.38670359927417636,0.16410556383942995,0.4429388845140562,0.14576470362280902,0.4981315500611911
212,12.651,12.44,0.06,0.28497535689338194,0.3880599969807102,0.16344783693801718,0.4426204954042913,0.1442948499755725,0.498687856066308
213,12.672,12.49,0.02,0.2832306001632972,0.38944151559711354,0.16280030507432383,0.44229721330898086,0.1428314297424182,0.4992546247103991
214,12.754,12.55,0.03,0.2814777739406793,0.3908468630609979,0.1621632490687658,0.44196935502577506,0.14137521243444448,0.4998313464721395
215,12.795,12.6,0.06,0.2797178782362849,0.39227474175745636,0.1615369487856669,0.4416372436025804,0.13992696969931626,0.5004175090429455
216,12.857,12.66,-0.02,0.2779519181739707,0.39372384944300826,0.1609216828886466,0.4413012084369327,0.13848747490880406,0.5010125977873164
217,12.899,12.71,-0.07,0.2761809034449296,0.39519288017157733,0.16031772859116272,0.4409615853630873,0.13705750273552067,0.5016160962031698
218,13.001,12.77,0.04,0.27440584775261245,0.396680525222,0.1597253614025151,0.44061871672586167,0.1356378287188797,0.5022274863815837
219,13.022,12.82,-0.01,0.27262776824837015,0.39818547402639676,0.15914485486960434,0.44027295144033696,0.13422922882031177,0.50284624946536
220,13.063,12.88,-0.05,0.2708476849579258,0.39970641509860905,0.15857648031472754,0.43992464503658235,0.13283247896777897,0.5034718661058202
221,13.143,12.93,0.06,0.26906662019884175,0.40124203696177274,0.15802050656968614,0.43957415968861746,0.13144835458964463,0.5041038169172438
222,13.164,12.99,0.05,0.26728559798916546,0.40279102907403547,0.15747719970648819,0.43922186422686965,0.13007763013798893,0.5047415829283551
223,13.225,13.04,0.01,0.26550564344742295,0.404352082751451,0.15694682276494049,0.43886813413341724,0.12872107860150578,0.5053846460302593
224,13.286,13.1,0.02,0.26372778218412685,0.4059238920871402,0.15642963547743066,0.43851335151938015,0.12737947100817174,0.5060324894202466
225,13.409,13.15,0.07,0.2619530396849637,0.4075051548659518,0.15592589399120416,0.43815790508390223,0.12605357591794344,0.506684598040862
226,13.43,13.21,0.0,0.2601824406858191,0.40909457347408396,0.1554358505884549,0.43780219005422366,0.1247441589058015,0.5073404590136258
227,13.449,13.26,-0.05,0.25841700853984434,0.41069085580327613,0.15495975340456916,0.4374466081063843,0.12345198203551029,0.5079995620667962
228,13.49,13.32,0.04,0.2566577645768811,0.4122927161491172,0.15449784614488046,0.4370915672661662,0.12217780332450874,0.5086613999565882
229,13.552,13.37,-0.07,0.2549057274556649,0.41389887610286785,0.15405036780031733,0.43673748178994076,0.12092237620038178,0.509325468881283
230,13.615,13.43,-0.17,0.2531619125093023,0.4155080654360635,0.15361755236234767,0.4363847720251262,0.11968644894938922,0.5099912688876888
231,13.676,13.48,-0.09,0.2514273310845577,0.4171190229770431,0.15319962853763872,0.436033864250006,0.1184707641575448,0.5106583042694317
232,13.758,13.54,-0.1,0.24970298987549017,0.4187304974784728,0.1527968194628587,0.43568519049269977,0.11727605814474315,0.5113260839565854
233,13.778,13.59,-0.13,0.24798989025195883,0.42034124847491866,0.15240934242004822,0.43533918832912205,0.11610306039242589,0.5119941218961844
234,13.82,13.65,-0.13,0.24628902758350588,0.4219500471295413,0.15203740855297337,0.434996300659838,0.11495249296527672,0.512661937423228
235,13.882,13.7,-0.08,0.24460139055912353,0.42355567706907565,0.1516812225848509,0.4346569754658273,0.11382506992745388,0.5133290556217877
236,13.943,13.76,-0.14,0.24292796050340895,0.42515693520644804,0.15134098253782965,0.43432166554324236,0.11272149675390568,0.5139950076758588
237,14.005,13.81,-0.18,0.24126971068965644,0.42675263255051443,0.15101687945461267,0.43399082821731594,0.11164246973735394,0.5146593312096085
238,14.108,13.87,-0.08,0.2396276056505376,0.42834159500237107,0.15070909712260078,0.43366492503565895,0.11058867539157262,0.5153215706166988
239,14.129,13.92,-0.17,0.23800260048711,0.4299226641375946,0.1504178118009357,0.43334442144129137,0.1095607898516272,0.5159812773783791
240,14.149,13.98,-0.25,0.23639564017696235,0.4314946979736757,0.1501431919508172,0.43302978642584045,0.10855947827177473,0.516638010370047
241,14.21,14.03,-0.21,0.23480765888235958,0.43305657172178813,0.14988539796946285,0.4327214921634343,0.1075853942217564,0.5172913361559879
242,14.273,14.09,-0.25,0.23323957925927374,0.4346071785219283,0.14964458192808372,0.43242001362588806,0.1066391790822389,0.5179408292720018
243,14.315,14.14,-0.33,0.2316923117681792,0.4361454301604261,0.14942088731425596,0.43212582817982487,0.10572146144016638,0.518586072495664
244,14.377,14.2,-0.36,0.23016675398747222,0.4376702577688419,0.14921444877905682,0.4318394151664429,0.1048328564847792,0.5192266571040133
245,14.477,14.25,-0.3,0.2286637899303526,0.439180612503372,0.1490253918893139,0.43156125546474144,0.10397396540504336,0.5198621831184926
246,14.497,14.31,-0.36,0.22718428936595478,0.4406754662040964,0.14885383288529655,0.43129183103909563,0.10314537478922041,0.5204922595370041
247,14.559,14.36,-0.38,0.2257291071455007,0.4421538120335647,0.14869987844416743,0.4310316244721297,0.10234765602729223,0.5211165045529735
248,14.601,14.41,-0.25,0.22429908253428615,0.4436146650942081,0.14856362544950363,0.43078111848388995,0.10158136471695386,0.5217345457613641
249,14.685,14.47,-0.33,0.22289503855035853,0.4450570630239794,0.14844516076720218,0.43054079543835694,0.10084704007390535,0.5223460203516073
250,14.706,14.53,-0.39,0.2215177813107841,0.44648006656953254,0.1483445610280996,0.4303111368383586,0.1001452043472079,0.5229505752874531
251,14.767,14.58,-0.31,0.22016809938643417,0.4478827601361501,0.14826189241765694,0.4300926228099711,0.099476362240516,0.5235478674737556
252,14.85,14.64,-0.32,0.21884676316623686,0.4492642523135354,0.1481972104730856,0.4298857315775158,0.09884100034004649,0.5241375639102184
253,14.871,14.69,-0.37,0.21755452423183025,0.45062367637657974,0.14815055988831746,0.42969093893027027,0.09823958655018354,0.5247193418321567
254,14.933,14.75,-0.39,0.21629211474354482,0.4519601907602735,0.14812197432722785,0.4295087176820689,0.09767256953764984,0.5252928888383674
255,14.975,14.8,-0.32,0.2150602468386183,0.4532729795081203,0.14811147624551438,0.4293395371250533,0.09714037818520797,0.5258579030062245
256,15.058,14.86,-0.39,0.21385961204249812,0.45456125269374015,0.1481190767216357,0.42918386247890344,0.09664342105588616,0.5264140929941402
257,15.1,14.91,-0.44,0.21269088069407177,0.45582424681563954,0.14814477529722458,0.4290421543369013,0.09618208586875095,0.5269611781315602
258,15.202,14.97,-0.34,0.2115547013856965,0.457061225165236,0.14818855982740306,0.42891486811018076,0.09575673898727584,0.5274988884966959
259,15.222,15.02,-0.42,0.21045170041893613,0.4582714781682383,0.14825040634144968,0.4288024534714804,0.09536772492138387,0.5280269649822257
260,15.264,15.08,-0.51,0.2093824812769294,0.4594543236994478,0.1483302789142904,0.428705353799648,0.09501536584426358,0.5285451593492185
261,15.325,15.13,-0.48,0.20834762411434302,0.46060910737092114,0.1484281295493022,0.428624005626086,0.09469996112507771,0.5290532342695526
262,15.367,15.19,-0.53,0.207347685265886,0.461735202793254,0.14854389807293314,0.4285588380842726,0.09442178687869422,0.5295509633571095
263,15.43,15.24,-0.61,0.20638319677435654,0.4628320118096123,0.14867751204165344,0.42851027236343825,0.09418109553356199,0.5300381311880523
264,15.471,15.3,-0.7,0.20545466593917014,0.4638989647021015,0.1488288866617465,0.4284787211674541,0.09397811541882783,0.5305145333105487
265,15.574,15.35,-0.69,0.20456257488627158,0.46493552037016683,0.14899792472242523,0.42846458818000177,0.09381305037175462,0.5309799762443508
266,15.595,15.41,-0.75,0.20370738016024187,0.4659411664809973,0.14918451654273787,0.4284682675371024,0.09368607936644902,0.5314342774707018
267,15.636,15.46,-0.84,0.20288951233933752,0.4669154195921534,0.1493885399326983,0.42849014330806623,0.09359735616484069,0.5318772654130995
268,15.718,15.52,-0.82,0.20210937567416787,0.4678578252467275,0.14960986016904487,0.42853058898591373,0.09354700899078372,0.532308779409514
269,15.76,15.57,-0.85,0.20136734775069112,0.46876795804131416,0.1498483299859923,0.42858996698829094,0.09353514022808272,0.532728669676681
270,15.822,15.63,-0.92,0.20066377917817446,0.46964542166700474,0.1501037895813009,0.42866862816988044,0.09356182614317954,0.5331367972671176
271,15.882,15.68,-0.94,0.19999899330271498,0.4704898489235537,0.15037606663793604,0.42876691134730355,0.09362711663317605,0.5335330340194858
272,15.963,15.74,-0.96,0.19937328594684273,0.47130090170684774,0.15066497636154144,0.4288851428374783,0.09373103499980796,0.5339172625028862
273,15.984,15.79,-1.01,0.19878692517561877,0.47207827096987703,0.15097032153390755,0.4290236360103223,0.09387357774992801,0.5342893759555923
274,16.025,15.85,-1.08,0.19824015108954354,0.4728216766574803,0.15129189258255996,0.4291826908565975,0.09405471442299057,0.5346492782186717
275,16.088,15.9,-1.04,0.1977331756444976,0.4735308676152056,0.1516294676665289,0.4293625935716232,0.09427438744596593,0.5349968836648593
276,16.149,15.96,-1.07,0.19726618249883873,0.4742056214727617,0.1519828127783066,0.42956361615550837,0.09453251201603986,0.5353321171230069
277,16.191,16.01,-1.15,0.19683932688771547,0.47484574450262323,0.15235168186195144,0.42978601603048544,0.09482897601138691,0.5356549137984062
278,16.253,16.07,-1.05,0.1964527355246523,0.47545107145430693,0.15273581694725746,0.43003003567587755,0.09516363993023953,0.5359652191892961
279,16.314,16.12,-1.09,0.19610650653046666,0.47602146536472395,0.15313494829986965,0.43029590228118947,0.09553633685841956,0.5362629889998656
280,16.377,16.17,-1.17,0.19580070938957017,0.4765568173449077,0.15354879458718768,0.43058382741778817,0.09594687246544818,0.536548189050073
281,16.438,16.23,-1.14,0.19553538493368863,0.4770570463433245,0.15397706305985912,0.4308940067296417,0.096395025029309,0.536820795182589
282,16.459,16.28,-1.17,0.19531054535298192,0.47752209888595615,0.1544194497486286,0.43122661964357367,0.09688054548990153,0.5370807931671657
283,16.521,16.34,-1.2,0.19512617423446985,0.47795194879343683,0.15487563967628465,0.4315818290994376,0.0974031575311767,0.5373281786027228
284,16.603,16.39,-1.25,0.19498222662760367,0.4783465968756551,0.15534530708441377,0.4319597813005573,0.09796255769188694,0.5375629568174589
285,16.686,16.45,-1.23,0.19487862913676304,0.4787060706043794,0.15582811567463078,0.4323606054847501,0.09855841550481817,0.537785142767298
286,16.706,16.5,-1.25,0.1948152800403713,0.4790304237646734,0.15632371886392313,0.4327844137162075,0.09919037366430118,0.5379947609329644
287,16.747,16.56,-1.3,0.19479204943624823,0.4793197360860142,0.1568317600537203,0.43323130069845645,0.0998580482217276,0.5381918452159595
288,16.808,16.61,-1.18,0.1948087794127898,0.4795741128540093,0.15735187291226724,0.4337013436085741,0.10056102880872475,0.5383764388336736
289,16.87,16.67,-1.21,0.19486528424554594,0.47979368450348797,0.15788368166984904,0.43419460195278853,0.10129887888758153,0.5385485942138194
290,16.931,16.73,-1.22,0.1949613506187509,0.4799786061936011,0.15842680142637647,0.4347111174435721,0.10207113602846894,0.5387083728883224
291,16.973,16.78,-1.16,0.19509673787135742,0.4801290573653964,0.15898083847080635,0.435250913898342,0.10287731221296986,0.5388558453867625
292,17.057,16.83,-1.14,0.19527117826711787,0.4802452412822263,0.15954539061185155,0.43581399715987296,0.10371689416341787,0.5389910911294158
293,17.077,16.89,-1.17,0.19548437728823215,0.48032738455335283,0.16012004751943237,0.4364003550384671,0.10458934369753607,0.5391141983199106
294,17.118,16.94,-1.19,0.1957360139520759,0.4803757366411746,0.16070439107631784,0.43700995727585146,0.10549409810785629,0.5392252638374917
295,17.181,17.0,-1.11,0.19602574115051705,0.48039056935258406,0.1612979957393958,0.43764275553073684,0.10643057056538693,0.5393243931288653
296,17.242,17.05,-1.14,0.1963531860113107,0.48037217631508505,0.16190042891000545,0.43829868338592165,0.10739815054697956,0.5394117000995742
297,17.283,17.11,-1.21,0.19671795028105074,0.48032087243838323,0.16251125131276736,0.43897765637677233,0.10839620428581653,0.5394873070048432
298,17.345,17.16,-1.1,0.19711961072916864,0.4802369933621313,0.1631300173823349,0.43967957204086244,0.10942407524441493,0.5395513443398237
299,17.426,17.22,-1.14,0.19755771957246643,0.4801208948904552,0.1637562756574771,0.44040430998852115,0.11048108460951148,0.53960395072914
300,17.467,17.27,-1.2,0.19803180491964853,0.47997295241382654,0.1643895691818779,0.4411517319940186,0.11156653180815736,0.5396452728156252
301,17.508,17.33,-1.13,0.19854137123529975,0.4797935603187445,0.16502943591100644,0.44192168210713473,0.11267969504431088,0.5396754651481076
302,17.569,17.39,-1.1,0.1990858998227312,0.47958313138559827,0.16567540912438578,0.44271398678485036,0.11381983185517827,0.5396946900680699
303,17.61,17.44,-1.1,0.19966484932507472,0.47934209617508444,0.1663270178425751,0.4435284550428506,0.1149861796865107,0.5397031175949764
304,17.671,17.5,-1.09,0.20027765624398183,0.47907090240359845,0.1669837872481714,0.4443648786264554,0.11617795648603046,0.5397009253100553
305,17.733,17.55,-0.98,0.2009237354752741,0.4787700143081023,0.16764523911013446,0.4452230322005513,0.11739436131413933,0.5396882982383225
306,17.774,17.6,-1.02,0.20160248086087063,0.4784399120011166,0.16831089221075074,0.44610267355805244,0.1186345749710548,0.5396654287286421
307,17.835,17.66,-1.04,0.20231326575630254,0.4780810908166195,0.16898026277457615,0.4470035438463721,0.11989776063952366,0.5396325163316282
308,17.896,17.71,-0.89,0.20305544361312836,0.4776940606476694,0.16965286489871753,0.4479253678113639,0.12118306454226706,0.539589767675211
309,17.956,17.77,-0.94,0.20382834857555227,0.4772793452765549,0.1703282109838311,0.44886785405816654,0.1224896166133196,0.5395373963376997
310,18.018,17.82,-0.98,0.20463129609052333,0.47683748169826073,0.1710058121652295,0.4498306953283827,0.12381653118242936,0.5394756227182023
311,18.079,17.88,-0.92,0.20546358353059016,0.4763690194379781,0.17168517874349462,0.45081356879304624,0.12516290767169094,0.5394046739042659
312,18.163,17.93,-0.89,0.2063244908287815,0.47587451986334417,0.17236582061400268,0.45181613636084766,0.1265278313035891,0.5393247835366013
313,18.183,17.99,-0.94,0.207213281124764,0.47535455549213484,0.17304724769478272,0.4528380450010748,0.1279103738196197,0.539236191670748
314,18.224,18.05,-0.95,0.20812920142151833,0.4748097092961964,0.1737289703521406,0.4538789270806884,0.12930959420863616,0.5391391446355563
315,18.286,18.1,-0.82,0.20907148325177125,0.4742405740024694,0.1744104998234829,0.45493840071494357,0.13072453944404605,0.5390338948883676
316,18.347,18.16,-0.85,0.21003934335339008,0.47364775139207743,0.17509134863678436,0.4560160701309468,0.13215424522895902,0.538920700866782
317,18.388,18.21,-0.86,0.2110319843529168,0.47303185159855243,0.17577103102615277,0.4571115260435225,0.13359773674836498,0.5387998268369194
318,18.449,18.26,-0.69,0.21204859545642607,0.47239349240623585,0.1764490633429492,0.4582243460427713,0.13505402942741232,0.5386715427380909
319,18.55,18.32,-0.71,0.21308835314690924,0.47173329854980167,0.17712496446192436,0.45935409499273155,0.136522129694867,0.5385361240238127
320,18.571,18.37,-0.72,0.2141504218873992,0.4710519010157536,0.17779825618183726,0.460500325440602,0.1380010357508548,0.5383938514991039
321,18.613,18.43,-0.64,0.2152339548290719,0.4703499363466721,0.17846846362002178,0.4616625780360552,0.13948973833802616,0.5382450111540232
322,18.675,18.48,-0.59,0.21633809452357547,0.469628045948955,0.17913511560038253,0.4628403819602345,0.14098722151532322,0.5380898939933774
323,18.715,18.54,-0.6,0.2174619736388459,0.4688868754048492,0.1797977450343265,0.46403325536403534,0.14249246343356572,0.5379287958625262
324,18.777,18.59,-0.63,0.21860471567769893,0.46812707378963364,0.18045588929416675,0.4652407058152682,0.14400443711210523,0.5377620172692107
325,18.901,18.65,-0.53,0.21976543569852128,0.4673492929948801,0.1811090905785561,0.4664622307543164,0.14552211121582556,0.5375898632013363
326,18.922,18.7,-0.59,0.22094324103738455,0.4665541870588483,0.18175689626953923,0.46769731795790587,0.1470444508317914,0.5374126429406614
327,18.963,18.76,-0.63,0.22213723203089883,0.46574241150518003,0.18239885928084434,0.4689454460105918,0.1485704182448549,0.5372306698723641
328,19.004,18.82,-0.46,0.22334650273913634,0.4649146226910377,0.18303453839705908,0.47020608478355574,0.15009897371152556,0.5370442612905042
329,19.067,18.87,-0.48,0.2245701416679604,0.464071477165745,0.18366349860335954,0.4714786959202935,0.15162907623140032,0.536853738199427
330,19.108,18.92,-0.49,0.2258072324900783,0.46321363104088714,0.1842853114054814,0.47276273332875657,0.15315968431544147,0.5366594251112129
331,19.169,18.98,-0.41,0.22705685476413498,0.46234173937269124,0.18489955513964404,0.4740576436795098,0.15468975675040028,0.5364616498392962
332,19.271,19.03,-0.35,0.22831808465118328,0.46145645555734877,0.18550581527217122,0.47536286690946217,0.1562182533587132,0.5362607432883901
333,19.292,19.09,-0.36,0.2295899956278911,0.460558430739856,0.18610368468860108,0.4766778367306771,0.15774413575323357,0.5360570392408415
334,19.353,19.14,-0.36,0.2308716591958985,0.4596483132368889,0.18669276397211768,0.47800198114373893,0.15926636808619962,0.5358508741395458
335,19.414,19.2,-0.25,0.2321621455867855,0.458726747974227,0.18727266167116263,0.47933472295515384,0.16078391779188106,0.5356425868675557
336,19.435,19.25,-0.31,0.23346052446212803,0.45779437593931316,0.18784299455611306,0.48067548029827856,0.16229575632238624,0.5354325185245123
337,19.495,19.31,-0.35,0.23476586560812698,0.4568518336496167,0.1884033878649409,0.48202366715726297,0.16380085987614776,0.5352210122000371
338,19.537,19.36,-0.22,0.23607723962432,0.455899752637438,0.18895347553779543,0.48337869389349875,0.16529821011862778,0.5350084127442312
339,19.64,19.42,-0.29,0.23739371860590167,0.45493875895169683,0.1894929004404751,0.4847399677740536,0.1667867948948013,0.5347950665354494
340,19.66,19.48,-0.32,0.23871437681917204,0.45396947267713855,0.19002131457677549,0.48610689350156455,0.16826560893297499,0.534581321245559
341,19.702,19.53,-0.26,0.24003829136962446,0.45299250747126624,0.19053837928970632,0.48747887374509136,0.16973365453949812,0.5343675256029213
342,19.782,19.58,-0.19,0.24136454286216255,0.4520084701192246,0.19104376545157442,0.4888553096714608,0.17118994228391657,0.5341540291533461
343,19.824,19.64,-0.19,0.2426922160528923,0.4510179601068798,0.19153715364294294,0.49023560147663187,0.17263349167411382,0.5339411820192624
344,19.886,19.69,-0.2,0.24402040049192292,0.4500215692123646,0.19201823432048606,0.49161914891660563,0.17406333182098313,0.5337293346573541
345,19.927,19.75,-0.08,0.24534819115663667,0.4490198811163549,0.19248670797376685,0.4930053518374084,0.1754785020921919,0.5335188376149029
346,19.989,19.8,-0.14,0.24667468907492202,0.4480134710313486,0.19294228527098298,0.494393610703687,0.17687805275463545,0.533310041285077
347,20.051,19.86,-0.18,0.24799900193790989,0.4470029053502019,0.19338468719374666,0.4957833271254397,0.1782610456052076,0.5331032956613964
348,20.092,19.91,-0.04,0.24932024470181724,0.44598874131406274,0.1938136451609817,0.4971739043824203,0.17962655458954718,0.5328989500916169
349,20.153,19.97,-0.08,0.25063754017854545,0.4449715266996881,0.19422890114203883,0.4985647479457606,0.18097366640843662,0.5326973530312843
350,20.215,20.02,-0.12,0.2519500196146988,0.4439517995260022,0.1946302077591423,0.49995526599638024,0.18230148111154307,0.5324988517972409
351,20.257,20.08,-0.08,0.25325682325869925,0.4429300877796506,0.19501732837928218,0.501344869939801,0.18360911267819996,0.5323037923213898
352,20.359,20.14,-0.05,0.25455710091566475,0.44190690915927494,0.1953900371956681,0.5027329749170257,0.18489568958493918,0.5321125189050238
353,20.379,20.19,-0.1,0.2558500124896924,0.44088277083832433,0.1957481192988696,0.5041190003111329,0.1861603553594865,0.5319253739740071
354,20.441,20.25,-0.11,0.25713472851318203,0.4398581692463028,0.19609137073777594,0.5055023702491999,0.18740226912092584,0.5317426978350989
355,20.502,20.3,0.0,0.25841043066285885,0.43883358986837867,0.196419598570506,0.5068825140991555,0.18862060610572517,0.5315648284337029
356,20.562,20.35,-0.03,0.2596763122621693,0.43780950706330835,0.19673262090539595,0.5082588669611703,0.18981455817930556,0.5313921011133173
357,20.583,20.41,-0.06,0.2609315787697315,0.4367863838996566,0.19703026693219297,0.5096308701531794,0.19098333433282227,0.5312248483769697
358,20.644,20.46,0.09,0.2621754482535423,0.4357646720102665,0.1973123769435883,0.5109979716901449,0.19212616116483072,0.5310633996509327
359,20.728,20.52,0.07,0.2634071518506604,0.4347448114648897,0.1975788023472345,0.5123596267566546,0.1932422833475217,0.5309080810510353
360,20.768,20.57,0.06,0.26462593421209313,0.4337272306608507,0.19782940566841284,0.5137152981724553,0.1943309640772317,0.5307592151519326
361,20.809,20.63,0.12,0.2658310539326418,0.43271234623154536,0.19806406054352543,0.5150644568505616,0.1953914855089632,0.5306171207597332
362,20.871,20.68,0.17,0.267021783965493,0.43170056297252,0.19828265170459886,0.516406582247616,0.19642314917468856,0.5304821126883825
363,20.931,20.74,0.14,0.26819741202136543,0.43069227378489316,0.19848507495500506,0.5177411628061929,0.19742527638524873,0.5303545015401886
364,20.973,20.8,0.11,0.2693572409520754,0.4296878596358859,0.19867123713661972,0.5190676963887161,0.1983972086156895,0.5302345934908661
365,21.034,20.85,0.21,0.27050058911845715,0.42868768953617,0.19884105608863964,0.5203856907026913,0.19933830787390805,0.530122690079454
366,21.116,20.91,0.13,0.27162679074263074,0.42769212053370625,0.1989944605982834,0.5216946637169602,0.2002479570525045,0.5300190880034475
367,21.138,20.96,0.06,0.2727351962446357,0.4267014977237295,0.19913139034360203,0.5229941440686875,0.20112556026374026,0.5299240789194658
368,21.199,21.01,0.2,0.2738251725634571,0.42571615427447224,0.1992517958286275,0.5242836714607662,0.20197054315750132,0.5298379492497668
369,21.24,21.07,0.19,0.27489610346244836,0.42473641146814956,0.1993556383110921,0.5255627970492975,0.20278235322215146,0.5297609799948984
370,21.3,21.12,0.18,0.27594738981909794,0.4237625787566802,0.199442889722954,0.5268310838207432,0.20356046006814082,0.5296934465527757
371,21.362,21.18,0.26,0.27697844989904363,0.4227949538315839,0.19951353258396595,0.5280881069583254,0.20430435569422786,0.5296356185444517
372,21.465,21.23,0.34,0.27798871961419286,0.4218338227075424,0.19956755990852537,0.5293334541972279,0.20501355473618932,0.5295877596468243
373,21.486,21.29,0.32,0.27897765276478115,0.42087945981924973,0.19960497510606603,0.5305667261681087,0.20568759469792836,0.529550127432482
374,21.547,21.34,0.32,0.27994472126521514,0.4199321281313025,0.19962579187527085,0.5317875367284045,0.2063260361649407,0.5295229732168687
375,21.608,21.4,0.46,0.28088941535362033,0.4189920792609106,0.19963003409239624,0.5329955132809232,0.20692846300015924,0.5295065419129151
376,21.628,21.45,0.41,0.2818112437850853,0.4180595536132064,0.19961773569400829,0.5341902970792493,0.20749448252226105,0.5295010718932549
377,21.712,21.51,0.36,0.2827097340086644,0.41713478052891684,0.19958894055444798,0.535371543519497,0.20802372566657665,0.529506794860118
378,21.733,21.57,0.48,0.283584432328265,0.41621797844408087,0.19954370235836036,0.536538922417951,0.20851584712879564,0.529523935722974
379,21.857,21.62,0.44,0.28443490404758165,0.4153093550614063,0.19948208446864996,0.5376921182741091,0.20897052549170714,0.5295527124839765
380,21.876,21.67,0.38,0.28526073359924625,0.4144091075327943,0.19940415979025075,0.5388308305186316,0.2093874633352449,0.5295933361312605
381,21.918,21.73,0.39,0.28606152465836454,0.41351742265252284,0.19931001063010895,0.5399547737457068,0.20976638733012876,0.5296460105401457
382,21.98,21.78,0.41,0.2868369002405889,0.4126344770606213,0.19919972855377935,0.541063677929391,0.21010704831540883,0.5297109323822935
383,22.022,21.84,0.34,0.2875865027848401,0.41176043745610613,0.19907341423903863,0.5421572886234891,0.21040922136021922,0.5297882910428511
384,22.084,21.89,0.29,0.28830999422078707,0.41089546081984757,0.19893117732690796,0.5432353671445835,0.21067270581003245,0.5298782685456229
385,22.144,21.95,0.41,0.2890070560212268,0.4100396946468218,0.19877313627043847,0.5442976907379328,0.21089732531768235,0.5299810394863069
386,22.205,22.0,0.36,0.28967738923952885,0.4091932771874646,0.1985994181815649,0.5453440527260809,0.21108292785939503,0.5300967709738237
387,22.246,22.06,0.33,0.2903207145323093,0.408356337697822,0.19841015867628628,0.5463742626401183,0.2112293857360375,0.5302256225797575
388,22.288,22.11,0.47,0.2909367721674889,0.4075289966981507,0.1982055017183956,0.5473881463335643,0.2113365955597799,0.5303677462959072
389,22.35,22.17,0.46,0.29152532201787495,0.4067113662395869,0.19798559946196181,0.5483855460788504,0.21140447822637048,0.530523286499928
390,22.411,22.23,0.44,0.29208614354038565,0.40590355017848107,0.1977506120927597,0.5493663206463956,0.21143297887324344,0.530692379929037
391,22.472,22.28,0.49,0.29261903574104153,0.4051056444579771,0.19750070766883182,0.5503303453663146,0.2114220668237141,0.5308751556617478
392,22.554,22.33,0.54,0.2931238171258586,0.40431773739646226,0.19723606196036159,0.5512775121728756,0.2113717355175659,0.5310717351075603
393,22.573,22.39,0.5,0.29360032563778193,0.4035399099826386,0.19695685828904846,0.5522077296318438,0.2112820024283845,0.5312822320045006
394,22.634,22.44,0.46,0.29404841857985625,0.4027722361770562,0.19666328736718708,0.5531209229508635,0.21115290896803496,0.531506752424387
395,22.674,22.5,0.56,0.2944679725249219,0.4020147832199231,0.19635554713665393,0.5540170339730698,0.21098452037872056,0.5317453947856889
396,22.735,22.55,0.48,0.2948588832122184,0.40126761194497673,0.19603384260800308,0.5548960211541796,0.21077692561308722,0.5319982498738468
397,22.797,22.61,0.41,0.2952210654313401,0.4005307770991716,0.19569838569987194,0.5557578595233241,0.21053023720285693,0.5322654008689259
398,22.859,22.66,0.49,0.2955544528940519,0.3998043276678591,0.19534939507890162,0.5566025406278751,0.21024459111647797,0.5325469233804769
399,22.921,22.72,0.42,0.29585899809450467,0.39908830720503646,0.19498709600038636,0.5574300724624704,0.2099201466062765,0.5328428854894696
400,22.962,22.77,0.34,0.2961346721583947,0.39838275416815805,0.1946117201498724,0.558240479382397,0.20955708604557682,0.5331533477971601
401,23.002,22.83,0.32,0.2963814646816016,0.39768770225695316,0.19422350548591033,0.5590338020015093,0.20915561475623237,0.5334783634807454
402,23.063,22.89,0.33,0.29659938355880316,0.39700318075572644,0.19382269608413472,0.5598100970749166,0.208715960826975,0.5338179783556407
403,23.145,22.94,0.29,0.296788454802497,0.39632921487876027,0.19340954198282168,0.5605694373666764,0.20823837492294356,0.5341722309442011
404,23.166,23.0,0.27,0.2969487223528161,0.39566582611855583,0.19298429903004802,0.5613119115027373,0.20772313008668952,0.534541152550711
405,23.226,23.05,0.4,0.2970802478785198,0.3950130325966616,0.19254722873254243,0.5620376238093738,0.2071705215309034,0.5349247673424641
406,23.307,23.1,0.35,0.2971831105695482,0.39437084941681727,0.1920985981062884,0.5627466941373798,0.20658086642306586,0.5353230924367418
407,23.349,23.16,0.3,0.2972574069215399,0.3937392890200948,0.1916386795289181,0.5634392576722792,0.20595450366221224,0.5357361379934842
408,23.409,23.21,0.42,0.2973032505127376,0.3931183615416294,0.1911677505939318,0.5641154647308046,0.20529179364800698,0.5361639073134195
409,23.472,23.27,0.4,0.29732077177371924,0.3925080751684305,0.1906860939667866,0.5647754805438465,0.20459311804234812,0.536606396941394
410,23.531,23.32,0.38,0.29731011775037813,0.39190843649770607,0.19019399724290967,0.5654194850260669,0.20385887952374213,0.5370635967746332
411,23.572,23.38,0.4,0.29727145186057063,0.391319450895099,0.18969175280768308,0.5660476725323899,0.20308950153471578,0.5375354901756642
412,23.696,23.43,0.44,0.29720495364483274,0.3907411228522742,0.1891796576984351,0.5666602516016548,0.2022854280225602,0.5380220540896014
413,23.717,23.49,0.38,0.29711081851154875,0.39017345634340656,0.188658013468472,0.5672574446877382,0.2014471231737321,0.5385232591654541
414,23.738,23.55,0.32,0.29698925747696775,0.3896164551802033,0.1881271260531883,0.5678394878784608,0.20057507114225884,0.5390390698810824
415,23.778,23.6,0.4,0.29684049690050657,0.3890701233650646,0.18758730563829384,0.5684066306026069,0.19966977577250625,0.5395694446713976
416,23.84,23.66,0.29,0.2966647782158117,0.388534465441952,0.18703886653019652,0.5689591353254038,0.19873176031666737,0.5401143360593935
417,23.881,23.71,0.2,0.29646235765806755,0.38800948684448383,0.18648212702858313,0.5694972772327921,0.197761567147314,0.5406736907895884
418,23.943,23.76,0.27,0.2962335059880424,0.3874951942406753,0.18591740930124362,0.5700213439047946,0.196759757465322,0.5412474499634651
419,24.024,23.82,0.19,0.2959785082133409,0.3869915958736312,0.1853450392611868,0.5705316349782417,0.1957269110034406,0.5418355491765056
420,24.086,23.87,0.13,0.29569766330727576,0.38649870189742236,0.18476534644608592,0.5710284617990711,0.19466362572571677,0.5424379186564361
421,24.108,23.93,0.14,0.29539128392570635,0.38601652470735587,0.18417866390006285,0.5715121470644142,0.19357051752292687,0.5430544834023209
422,24.17,23.98,0.19,0.29505969612211225,0.38554507926393133,0.18358532805778005,0.5719830244546964,0.19244821990410568,0.5436851633241231
423,24.231,24.04,0.16,0.2947032390610882,0.38508438340997225,0.18298567863077977,0.5724414382559683,0.19129738368421342,0.544329873382337
424,24.273,24.09,0.14,0.29432226473041967,0.3846344581805716,0.18238005849598848,0.5728877429726715,0.1901186766679365,0.544988523727285
425,24.335,24.15,0.26,0.2939171376519284,0.3841953281055066,0.18176881358628086,0.5733223029310619,0.18891278332959854,0.5456610198376827
426,24.396,24.2,0.2,0.29348823459131457,0.38376702150375214,0.1811522927829785,0.5737454918735488,0.1876804044891567,0.546347262658068
427,24.458,24.26,0.14,0.29303594426724466,0.38334957076969434,0.1805308478101449,0.5741576925442511,0.18642225698426984,0.5470471487347018
428,24.5,24.32,0.24,0.29256066705995243,0.38294301265057906,0.17990483313053188,0.5745592962661056,0.18513907333844531,0.547760570349536
429,24.562,24.37,0.21,0.2920628147196094,0.38254738851467984,0.17927460584304145,0.5749507025098902,0.1838316014252907,0.5484874156518492
430,24.624,24.42,0.17,0.29154281007468036,0.3821627446096683,0.1786405255815811,0.5753323184555295,0.1825006041289085,0.5492275687871699
431,24.687,24.48,0.16,0.2910010867404554,0.38178913231068884,0.17800295441519057,0.5757045585460824,0.18114685900048164,0.549980910023138
432,24.769,24.53,0.2,0.2904380888279178,0.38142660835770703,0.17736225674930914,0.5760678440348619,0.17977115791110518,0.550747315871977
433,24.789,24.59,0.12,0.2898542706530671,0.38107523508186997,0.17671879922805223,0.5764226025261462,0.1783743067009233,0.551526659209265
434,24.831,24.64,0.06,0.28925009644678207,0.38073508062076217,0.17607295063736586,0.5767692675099405,0.1769571248246216,0.5523188093887165
435,24.872,24.7,0.14,0.2886260400653003,0.38040621912250205,0.1754250818089239,0.5771082778912587,0.17552044499331187,0.5531236323527144
436,24.936,24.75,0.03,0.2879825847013772,0.3800887309386545,0.17477556552462836,0.5774400775144121,0.1740651128128236,0.5539409907383487
437,24.997,24.81,-0.03,0.28732022259615997,0.3797827028059387,0.17412477642156998,0.577765114682784,0.17259198641838716,0.5547707439787237
438,25.039,24.86,0.07,0.2866394547518029,0.37948822801662035,0.1734730908972991,0.5780838416745675,0.17110193610565758,0.5556127483993067
439,25.14,24.92,0.07,0.2859407906448408,0.37920540657732243,0.1728208870152551,0.5783967142549187,0.16959584395799168,0.5564668573090853
440,25.16,24.98,0.04,0.2852247479403127,0.3789343453558517,0.17216854441020082,0.5787041911849407,0.168074603469855,0.5573329210863277
441,25.203,25.03,0.05,0.2844918522066295,0.3786751582155407,0.17151644419349782,0.5790067337279008,0.16653911916621814,0.5582107872587636
442,25.263,25.08,0.12,0.2837426366311691,0.37842796613660745,0.17086496885804925,0.5793048051530865,0.1649903062178095,0.5591003005780169
443,25.324,25.14,0.07,0.28297764173658896,0.3781928973241574,0.1702145021827381,0.5795988702376998,0.16342909005211417,0.5600013030881322
444,25.386,25.19,0.05,0.28219741509788177,0.3779700873025387,0.16956542913619835,0.5798893947671743,0.16185640596003376,0.5609136341880688
445,25.426,25.25,0.16,0.28140251106029723,0.3777596789957209,0.1689181357797584,0.580176845034327,0.1602731986981487,0.5618371306880618
446,25.507,25.3,0.09,0.2805934904583333,0.37756182279326816,0.16827300916940163,0.5804616873377964,0.15868042208655483,0.5627716268597797
447,25.547,25.36,0.02,0.2797709203360599,0.37737667660139323,0.16763043725659418,0.5807443874802405,0.15707903860227468,0.5637169544802035
448,25.609,25.41,0.1,0.2789353736690729,0.3772044058784668,0.16699080878783865,0.581025410266807,0.15547001896827545,0.5646729428691604
449,25.671,25.47,0.06,0.2780874290883671,0.377045183654291,0.16635451320283015,0.5813052190043839,0.15385434173814944,0.5656394189204255
450,25.712,25.52,-0.0,0.27722767060636616,0.3768991905324586,0.16572194053111047,0.5815842750021387,0.15223299287652486,0.5666162071263465
451,25.754,25.58,-0.03,0.2763566873452919,0.37676661467517863,0.1650934812871256,0.5818630370738568,0.15060696533527768,0.5676031295959675
452,25.815,25.64,-0.01,0.2754750732679977,0.376647651770082,0.16446952636359588,0.5821419610426188,0.14897725862561542,0.5686000060666646
453,25.877,25.69,-0.08,0.2745834269113364,0.3765425049787244,0.16385046692311758,0.5824214992483295,0.1473448783860952,0.5696066539093289
454,25.939,25.75,-0.11,0.27368235112211053,0.37645138486666013,0.1632366942879243,0.5827021000585798,0.14571083594661738,0.570622888127181
455,26.0,25.8,0.02,0.27277245279567186,0.3763745093149922,0.16262859982773917,0.5829842073833088,0.1440761478884113,0.5716485213483558
456,26.041,25.85,-0.05,0.27185434261724956,0.37631210341330185,0.16202657484564947,0.5832682601937319,0.14244183560001292,0.5726833638124417
457,26.104,25.91,-0.1,0.27092863480607976,0.3762643993338715,0.16143101046194624,0.5835546920459904,0.1408089248292301,0.5737272233511924
458,26.163,25.96,-0.01,0.26999594686240197,0.37623163618710603,0.16084229749587842,0.5838439306099873,0.13917844523110923,0.5747799053636352
459,26.245,26.02,-0.03,0.2690568993173637,0.37621405985803846,0.16026082634529204,0.5841363972038817,0.13755142991194474,0.5758412127858012
460,26.266,26.07,-0.07,0.2681121154858347,0.37621192282383487,0.15968698686414365,0.5844325063347068,0.13592891496940238,0.5769109460553125
461,26.307,26.13,-0.09,0.2671622212221022,0.3762254839522641,0.15912116823788536,0.5847326652456086,0.1343119390288538,0.5779889030710769
462,26.37,26.18,-0.05,0.26620784467838615,0.3762550082812219,0.15856375885672355,0.5850372734702253,0.13270154277605056,0.5790748791483497
463,26.43,26.24,-0.14,0.26524961606607717,0.37630076677961904,0.15801514618677284,0.5853467223947248,0.13109876848629218,0.5801686669694199
464,26.472,26.3,-0.21,0.26428816741960437,0.3763630360900871,0.1574757166391486,0.585661394827975,0.1295046595502564,0.5812700565301981
465,26.533,26.35,-0.11,0.263324132362893,0.37644209825395886,0.1569458554370576,0.5859816645803012,0.12792025999666395,0.582378835083007
466,26.594,26.41,-0.21,0.2623581458784219,0.3765382404189014,0.15642594648095026,0.5863078960512891,0.12634661401194247,0.5834947870759005
467,26.637,26.46,-0.3,0.2613908440789152,0.37665175452950006,0.15591637221179824,0.5866404438270779,0.12478476545703734,0.5846176940888546
468,26.698,26.51,-0.24,0.26042286398171466,0.3767829370009718,0.15541751347255164,0.586979652287613,0.12323575738150279,0.5857473347671752
469,26.739,26.57,-0.25,0.25945484328585533,0.376932088376081,0.1549297493678263,0.5873258552243151,0.12170063153498818,0.5868834847524594
470,26.8,26.62,-0.29,0.2584874201518181,0.37709951296530525,0.15445345712187192,0.5876793754685941,0.12018042787621297,0.5880259166114387
471,26.863,26.68,-0.29,0.257521232983881,0.37728551847034114,0.15398901193486114,0.5880405245316186,0.11867618407950349,0.5891743997630399
472,26.905,26.73,-0.23,0.25655692021495163,0.37749041559117025,0.15353678683752933,0.5884096022557543,0.11718893503896317,0.5903287004039829
473,26.967,26.79,-0.3,0.2555951200937282,0.3777145176171356,0.15309715254420142,0.5887868964780497,0.11571971237036001,0.5914885814332184
474,27.051,26.84,-0.33,0.25463647047404636,0.37795814000267164,0.15267047730425543,0.5891726827061118,0.11426954391083358,0.5926538023755165
475,27.071,26.9,-0.21,0.2536816086063037,0.37822159992842,0.15225712675208433,0.589567223806697,0.11283945321654729,0.5938241193045266
476,27.134,26.95,-0.31,0.25273117093088815,0.3785052158485032,0.15185746375562878,0.5899707697073295,0.11143045905843535,0.594999284765629
477,27.194,27.01,-0.37,0.2517857928735575,0.3788093070247333,0.15147184826356427,0.590383557111247,0.11004357491621763,0.596179047698899
478,27.256,27.07,-0.31,0.25084610864274165,0.3791341930484619,0.1511006371512386,0.5908058092259588,0.1086798084708806,0.5973631533624786
479,27.338,27.12,-0.36,0.24991275102874258,0.3794801933506838,0.15074418406547138,0.5912377355056746,0.10734016109584407,0.5985513432566347
480,27.358,27.17,-0.43,0.2489863512047807,0.3798476267009572,0.15040283926834455,0.5916795314078255,0.10602562734703978,0.5997433550487822
481,27.419,27.23,-0.49,0.2480675385298052,0.380236810695701,0.15007694948010972,0.5921313781638889,0.10473719445212339,0.60093892249977
482,27.48,27.28,-0.48,0.24715694035294802,0.38064806123652467,0.14976685772132473,0.5925934425647535,0.10347584179903069,0.6021377753917369
483,27.542,27.34,-0.56,0.24625518181944867,0.38108169199945324,0.1494729031543233,0.5930658767608461,0.102242540424065,0.6033396394578477
484,27.584,27.39,-0.6,0.24536288567785536,0.3815380138960877,0.14919542092410937,0.5935488180772256,0.10103825249966379,0.6045442363142474
485,27.647,27.45,-0.48,0.2444806720883162,0.3820173345278056,0.14893474199875148,0.5940423888438302,0.09986393082194664,0.6057512833945928
486,27.708,27.5,-0.56,0.24360915843176784,0.38251995763411717,0.14869119300933345,0.5945466962410471,0.09872051829810692,0.6069604938875354
487,27.728,27.56,-0.6,0.2427489591198119,0.3830461825362796,0.1484650960895046,0.5950618321607434,0.09760894743368574,0.6081715766775248
488,27.788,27.61,-0.5,0.24190068540506335,0.38359630357718727,0.14825676871466573,0.5955878730828701,0.09653013981976553,0.609384236289288
489,27.85,27.67,-0.51,0.2410649451917548,0.3841706095584576,0.14806652354083588,0.596124879967725,0.09548500562013773,0.6105981728363268
490,27.911,27.73,-0.53,0.24024234284635648,0.3847693831756179,0.1478946682432562,0.596672898163922,0.09447444305852117,0.6118130819737713
491,27.973,27.78,-0.54,0.239433479007948,0.3853929004523667,0.14774150535479005,0.5972319573321268,0.0934993379059386,0.613028654855942
492,28.074,27.83,-0.47,0.23863895039804128,0.3860414301750569,0.1476073321041703,0.5978020713846502,0.09256056296839978,0.6142445780989538
493,28.095,27.89,-0.54,0.2378593496295223,0.38671523332879715,0.1474924402541468,0.5983832384409998,0.09165897757508253,0.6154605337486727
494,28.115,27.94,-0.6,0.23709526501439626,0.3874145625367296,0.14739711593959692,0.5989754407994857,0.09079542706724217,0.616676199254329
495,28.176,28.0,-0.5,0.23634728037009345,0.38813966150403545,0.14732163950566785,0.5995786449249865,0.08997074228811063,0.6178912474480864
496,28.238,28.05,-0.58,0.235615974824161,0.38889076446814796,0.14726628534602718,0.6001928014529919,0.08918573907407173,0.6191053465308678
497,28.299,28.11,-0.66,0.23490192261721057,0.3896680956565578,0.14723132174131054,0.6008178452100424,0.08844121774741377,0.6203181600647301
498,28.339,28.16,-0.61,0.2342056929040365,0.3904718687534345,0.14721701069786278,0.6014536952506926,0.08773796261097096,0.6215293469720642
499,28.442,28.22,-0.66,0.23352784955284792,0.3913022863760948,0.14722360778688082,0.6021002549111133,0.08707674144497046,0.6227385615418706
500,28.463,28.27,-0.72,0.23286895094256804,0.3921595395621893,0.14725136198407657,0.6027574118794031,0.08645830500639298,0.6239454534433392
501,28.505,28.33,-0.72,0.23222954975816124,0.39304380726835353,0.14730051550996962,0.603425038282655,0.08588338653113443,0.625149667746954
502,28.567,28.39,-0.64,0.23161019278393935,0.3939552558810406,0.14737130367090162,0.6041029907908142,0.08535270123923404,0.6263508449533159
503,28.629,28.44,-0.67,0.23101142069477046,0.3948940387403312,0.1474639547008551,0.6047911107373147,0.08486694584341671,0.6275486210298649
504,28.691,28.5,-0.69,0.2304337678451196,0.3958602956775725,0.1475786896041556,0.6054892242564235,0.08442679806119224,0.6287426274556869
505,28.752,28.55,-0.56,0.22987776205590685,0.3968541525676169,0.14771572199913569,0.6061971424371705,0.08403291613077388,0.6299324912745975
506,28.814,28.6,-0.63,0.22934392439922885,0.3978757208962967,0.14787525796284856,0.6069146614937052,0.08368593833111744,0.6311178351566891
507,28.835,28.66,-0.67,0.22883276898103677,0.398925097343629,0.14805749587693517,0.6076415629518722,0.08338648250643357,0.6322982774685155
508,28.895,28.71,-0.58,0.2283448027219058,0.400002363383073,0.14826262627477266,0.6083776138517719,0.08313514559558095,0.633473432352065
509,28.956,28.77,-0.59,0.22788052513605325,0.40110758489701825,0.1484908316900607,0.6091225669660311,0.08293250316680191,0.6346429098126387
510,28.998,28.82,-0.63,0.22744042810875936,0.402240811808617,0.14874228650703156,0.6098761610334723,0.08277910895830595,0.6358063158157548
511,29.058,28.88,-0.66,0.2270249956723514,0.4034020777300654,0.14901715681247477,0.6106381210078733,0.0826754944252444,0.6369632523931921
512,29.119,28.93,-0.61,0.226634703780907,0.4045913996275381,0.149315600249761,0.611408158321536,0.08262216829365908,0.6381133177582894
513,29.181,28.99,-0.69,0.22627002008381242,0.4058087775031987,0.1496377658750441,0.612185971163409,0.0826196161220195,0.6392561064306113
514,29.244,29.05,-0.76,0.22593140369831222,0.4070541940948975,0.14998379401581682,0.612971244771499,0.08266829987098097,0.6403912093701132
515,29.284,29.1,-0.67,0.22561930498122953,0.40832761459420214,0.15035381613198903,0.6137636517393267,0.08276865748200306,0.6415182141209569
516,29.325,29.16,-0.74,0.22533416530006858,0.4096289863833558,0.15074795467964863,0.6145628523361722,0.0829211024654643,0.6426367049651419
517,29.406,29.21,-0.79,0.22507641680371965,0.4109582387916889,0.15116632297766072,0.6153684948408429,0.0831260234988977,0.6437462630861189
518,29.446,29.26,-0.7,0.22484648219298603,0.4123152828718857,0.1516090250772543,0.6161802158886737,0.08338378403596014,0.6448464667425431
519,29.547,29.32,-0.7,0.22464477449113152,0.413700011196392,0.1520761556347482,0.6169976408314467,0.08369472192674393,0.6459368914523028
520,29.567,29.37,-0.74,0.2244716968146078,0.4151122976741935,0.1525677997875782,0.6178203841098644,0.084059149050042,0.647017110186958
521,29.608,29.43,-0.75,0.22432764214409923,0.4165519973881677,0.15308403303378768,0.6186480496381992,0.08447735095819281,0.6480866935767287
522,29.669,29.48,-0.68,0.22421299309601772,0.41801894645325144,0.15362492111513684,0.6194802312007506,0.08494958653516091,0.6491452101261508
523,29.71,29.54,-0.75,0.22412812169458657,0.4195129618957668,0.15419051990399155,0.6203165128597398,0.08547608766853983,0.6501922264404945
524,29.772,29.59,-0.8,0.22407338914470232,0.42103384155431095,0.15478087529416024,0.6211564693742531,0.08605705893618822,0.6512273074630196
525,29.833,29.65,-0.7,0.22404914560585515,0.42258136400252627,0.15539602309585773,0.6219996666298534,0.08669267730822809,0.6522500167231374
526,29.915,29.7,-0.77,0.22405572996746584,0.42415528849393797,0.1560359889349852,0.622845662078489,0.08738309186514454,0.6532599165955159
527,29.935,29.76,-0.86,0.2240934696260466,0.4257553549288977,0.15670078815693106,0.6236940051883416,0.08812842353272912,0.6542565685701583
528,29.998,29.82,-0.82,0.2241626802646252,0.4273812838435037,0.15739042573511455,0.6245442379032585,0.0889287648346082,0.655239533533437
529,30.059,29.87,-0.88,0.22426366563486963,0.4290327764202195,0.1581048961845162,0.6253958951114108,0.08978417966308995,0.6562083720600332
530,30.099,29.92,-0.94,0.2243967173423245,0.43070951451984674,0.1588441834804654,0.6262485051227829,0.09069470306904025,0.6571626447157024
531,30.163,29.98,-0.95,0.2245621146351439,0.4324111607344913,0.15960826098296013,0.627101590155092,0.09166034107145533,0.6581019123707775
532,30.224,30.03,-0.87,0.22476012419667593,0.43413735846123447,0.16039709136678496,0.6279546668277518,0.09268107048735158,0.6590257365243056
533,30.285,30.09,-0.92,0.22499099994221247,0.43588773199639175,0.1612106265576872,0.6288072466634973,0.09375683878254394,0.6599336796387013
534,30.328,30.14,-0.95,0.22525498282021628,0.4376618866503775,0.16204880767486937,0.6296588365972842,0.09488756394384636,0.6608253054848054
535,30.39,30.2,-0.82,0.22555230061837903,0.4394594088832046,0.16291156498005735,0.6305089394920798,0.09607313437320884,0.6617001794972406
536,30.451,30.25,-0.89,0.22588316777491457,0.4412798664606058,0.1637988178334155,0.631357054661168,0.09731340880430167,0.6625578691399505
537,30.513,30.31,-0.93,0.22624778519552857,0.44312280863070946,0.16471047465659908,0.6322026783965959,0.09860821624206242,0.6633979442818009
538,30.575,30.36,-0.85,0.22664634007654771,0.4449877663211003,0.16564643290325393,0.6330453045034001,0.09995735592573214,0.664219977582093
539,30.636,30.42,-0.87,0.22707900573471484,0.4468742523559936,0.16660657903729575,0.6338844248392609,0.10136059731591703,0.6650235448858125
540,30.678,30.48,-0.92,0.22754594144416043,0.44878176169322,0.1675907885193225,0.6347195298592372,0.10281768010621428,0.6658082256284219
541,30.7,30.53,-0.94,0.2280472922810636,0.45070977168071996,0.1685989258015186,0.6355501091652725,0.10432831425993527,0.6665736032500061
542,30.762,30.58,-0.89,0.22858318897651356,0.4526577423323283,0.1696308443314069,0.6363756520602152,0.10589218007245065,0.6673192656185825
543,30.824,30.64,-0.95,0.22915374777805492,0.4546251166228073,0.17068638656481241,0.6371956481061215,0.10750892825966482,0.6680448054623856
544,30.886,30.69,-1.01,0.22975907032038612,0.45661132080224814,0.17176538398841185,0.6380095876866085,0.10917818007309614,0.6687498208109667
545,30.949,30.75,-0.87,0.23039924350569665,0.4586157647299971,0.17286765715224736,0.6388169625730129,0.11089952744200098,0.6694339154449558
546,31.011,30.8,-0.94,0.2310743393941356,0.4606378422282485,0.17399301571258666,0.6396172664941014,0.11267253314294184,0.6700966993543559
547,31.032,30.86,-0.96,0.23178441510488615,0.46267693145542815,0.17514125848551754,0.6404099957090519,0.11449673099716318,0.6707377892052175
548,31.093,30.91,-0.87,0.23252951272831224,0.46473239529941696,0.17631217351167192,0.6411946495833922,0.11637162609611303,0.6713568088145343
549,31.156,30.97,-0.85,0.2333096592496271,0.46680358179057657,0.17750553813249503,0.6419707311675544,0.11829669505543662,0.6719533896331694
550,31.196,31.02,-0.88,0.23412486648452271,0.46888982453447625,0.17872111907849467,0.6427377477776722,0.12027138629776045,0.6725271712365993
551,31.321,31.08,-0.89,0.2349751310272062,0.47099044316417926,0.17995867256990297,0.6434952115782894,0.12229512036458398,0.6730778018232321
552,31.342,31.14,-0.82,0.2358604342112903,0.4731047438119798,0.1812179444301544,0.6442426401667486,0.12436729025760225,0.6736049387199767
553,31.383,31.19,-0.89,0.23678074208396335,0.47523201960062283,0.18249867021254093,0.6449795571591205,0.12648726180978226,0.6741082488946557
554,31.444,31.25,-0.93,0.23773600539386242,0.4773715511541393,0.18380057534036062,0.6457054927776015,0.1286543740865061,0.6745874094747771
555,31.486,31.3,-0.83,0.23872615959311408,0.4795226071283631,0.18512337526083897,0.6464199844393386,0.13086793981706918,0.6750421082721446
556,31.547,31.35,-0.89,0.23975112485404804,0.4816844447610463,0.18646677561308164,0.6471225773466356,0.13312724585679064,0.6754720443127376
557,31.609,31.41,-0.98,0.24081080610109243,0.48385631044135446,0.18783047241031214,0.647812825078462,0.13543155367994994,0.6758769283712582
558,31.671,31.46,-0.92,0.2419050930583387,0.4860374402983829,0.18921415223663687,0.6484902901831563,0.13778009990371684,0.6762564835096965
559,31.753,31.52,-0.93,0.2430338603132003,0.4882270608082385,0.1906174924585707,0.6491545447721799,0.1401720968431886,0.6766104456192072
560,31.773,31.57,-0.94,0.24419696739649546,0.4904243894191884,0.19204016145153888,0.6498051711147332,0.14260673309758495,0.6769385639645569
561,31.814,31.63,-0.94,0.24539425887920177,0.4926286351943791,0.19348181884153257,0.6504417622330317,0.14508317416757793,0.6772406017303713
562,31.876,31.68,-0.87,0.2466255644860503,0.494838999471708,0.1949421157620529,0.651063922498068,0.14760056310367242,0.677516336568377
563,31.917,31.74,-0.94,0.24789069922605542,0.4970546765406069,0.19642069512644356,0.6516712682256777,0.15015802118549948,0.6777655611447881
564,31.977,31.8,-0.98,0.24918946354004662,0.49927485433563484,0.19791719191568954,0.6522634282727107,0.1527546486318398,0.6779880836869537
565,32.038,31.85,-0.86,0.25052164346529376,0.5014987151467276,0.1994312334817337,0.652840044633071,0.15538952534114747,0.6781837285283548
566,32.12,31.91,-0.92,0.2518870108173508,0.5037254363458079,0.20096243986633935,0.653400773033334,0.1580617116622934,0.6783523366510127
567,32.14,31.96,-0.99,0.2532853233892571,0.5059541911292661,0.2025104241355038,0.6539452835275921,0.16077024919518482,0.6784937662243476
568,32.202,32.02,-0.93,0.2547163251682403,0.508184149275588,0.20407479272939794,0.6544732610911033,0.16351416162085547,0.6786078931395019
569,32.243,32.07,-0.95,0.2561797465700409,0.5104144779171873,0.20565514582778338,0.6549844062122596,0.16629245556055713,0.6786946115381103
570,32.303,32.13,-1.0,0.25767530469092287,0.5126443423253634,0.2072510777308272,0.6554784354822992,0.16910412146330536,0.6787538343345056
571,32.364,32.18,-1.02,0.25920270357736663,0.5148729067072625,0.2088621772551843,0.6559550821821506,0.17194813452124658,0.6787854937303532
572,32.427,32.24,-0.94,0.2607616345133508,0.5170993350138061,0.2104880281451499,0.6564140968657781,0.17482345561211962,0.6787895417207195
573,32.489,32.29,-0.98,0.26235177632501294,0.5193227917577506,0.21212820949862043,0.6568552479393632,0.1777290322679893,0.6787659505905732
574,32.55,32.35,-0.98,0.26397279570238724,0.5215424428411991,0.2137822962075382,0.6572783222355842,0.1806637996693273,0.6787147134007167
575,32.593,32.4,-0.84,0.2656243475378742,0.5237574563918891,0.21544985941243325,0.6576831255821741,0.18362668166342688,0.6786358444621442
576,32.656,32.46,-0.89,0.2673060752810738,0.5259670036074842,0.21713046697062222,0.6580694833638531,0.18661659180606058,0.6785293797978031
577,32.717,32.51,-0.92,0.2690176113095978,0.528170259606951,0.21882368393757354,0.6584372410766561,0.18963243442523062,0.678395377590705
578,32.758,32.57,-0.84,0.27075857731546565,0.5303664042879248,0.2205290730609048,0.6587862648736164,0.1926731057058125,0.6782339186172882
579,32.84,32.62,-0.84,0.2725285847066582,0.5325546231888201,0.2222461952864363,0.6591164421007005,0.19573749479384325,0.6780451066648833
580,32.862,32.67,-0.87,0.2743272350233417,0.5347341083543762,0.22397461027568852,0.6594276818217997,0.19882448491914395,0.6778290689321119
581,32.902,32.73,-0.88,0.2761541203682294,0.5369040592032994,0.22571387693415912,0.6597199153315008,0.20193295453489324,0.6775859564110345
582,32.963,32.78,-0.82,0.2780088238505043,0.5390636833966872,0.22746355394965173,0.6599930966543095,0.20506177847269544,0.6773159442498453
583,33.026,32.84,-0.89,0.27989092004267213,0.5412121977060278,0.2292232003398701,0.6602472030289301,0.20820982911160263,0.6770192320948841
584,33.067,32.9,-0.94,0.2817999754496773,0.5433488288796356,0.23099237600842823,0.6604822353761148,0.2113759775594573,0.6766960444107213
585,33.151,32.95,-0.81,0.2837355489896143,0.5454728145063014,0.2327706423083578,0.6606982187485326,0.21455909484481342,0.6763466307770684
586,33.254,33.01,-0.86,0.28569719248536335,0.5475834038747575,0.2345575626121151,0.6608952027610276,0.21775805311758092,0.6759712661612498
587,33.275,33.06,-0.87,0.28768445116645985,0.5496798588273561,0.23635270288701257,0.6610732619995695,0.22097172685641583,0.6755702511649622
588,33.296,33.12,-0.74,0.28969686418047874,0.5517614546060964,0.23815563227492054,0.6612324964071336,0.2241989940807671,0.675143912244023
589,33.358,33.17,-0.69,0.29173396511316185,0.5538274806889498,0.23996592367502553,0.6613730316446875,0.22743873756539312,0.6746926018997893
590,33.398,33.23,-0.67,0.293795282516443,0.5558772416143217,0.24178315432838413,0.6614950194253687,0.23068984605508033,0.6742166988409218
591,33.462,33.28,-0.62,0.29588034044347006,0.5579100577914705,0.24360690640296193,0.6615986378198877,0.2339512154772385,0.6737166081141722
592,33.522,33.34,-0.51,0.29798865898967164,0.5599252662947872,0.24543676757779603,0.6616840915311859,0.23722175015001348,0.673192761202853
593,33.583,33.39,-0.52,0.30011975483886577,0.5619222216400419,0.24727233162488108,0.6617516121363637,0.24050036398353605,0.6726456160916237
594,33.623,33.45,-0.5,0.30227314181339066,0.5639002965408545,0.24911319898734935,0.661801458293897,0.2437859816719009,0.6720756572962304
595,33.684,33.5,-0.33,0.304448331427261,0.5658588826436718,0.25095897735248984,0.6618339159141694,0.24707753987344894,0.6714833958568436
596,33.725,33.56,-0.37,0.3066448334413617,0.567797391239496,0.25280928221813376,0.6618492982913443,0.2503739883768997,0.6708693692936509
597,33.786,33.61,-0.38,0.3088621564196722,0.5697152539505711,0.25466373745092574,0.661847946194603,0.2536742912508569,0.67023414152337
598,33.887,33.67,-0.25,0.31109980828550404,0.5716119233901277,0.25652197583498554,0.6618302279167769,0.25697742797418677,0.6695783027353523
599,33.907,33.72,-0.17,0.313357296876695,0.5734868737932013,0.2583836396094542,0.6617965392784341,0.2602823945447475,0.6689024692259533
600,33.967,33.78,-0.09,0.31563413049864375,0.5753396016165206,0.26024838099340714,0.6617473035854797,0.26358820456391363,0.6682072831898885
601,34.031,33.83,0.05,0.31792981847400836,0.5771696261055353,0.2621158626965943,0.6616829715383991,0.26689389029432165,0.6674934124673553
602,34.073,33.89,0.26,0.32024387168781576,0.5789764898268704,0.2639857584144534,0.6616040210913647,0.27019850368827075,0.6667615502457783
603,34.135,33.94,0.37,0.32257580312664424,0.580759759164873,0.2658577533058603,0.6615109572595776,0.27350111738426675,0.6660124147151447
604,34.177,34.0,0.47,0.32492512841051946,0.5825190247812498,0.2677315444521299,0.6614043118733836,0.2768008256692947,0.6652467486760798
605,34.238,34.05,0.72,0.32729136631623396,0.5842539020369278,0.26960684129585993,0.6612846432779868,0.280096745404545,0.6644653191000536
606,34.32,34.1,0.79,0.3296740392908949,0.5859640313753262,0.2714833660583175,0.6611525359779108,0.28338801691248805,0.6636689166413838
607,34.34,34.16,0.84,0.33207267395457635,0.5876490786663074,0.2733608541341868,0.6610086002257104,0.28667380482337296,0.6628583551009923
608,34.402,34.22,1.0,0.33448680159101996,0.5893087355101685,0.27523905446262864,0.660853471554804,0.28995329887941745,0.6620344708421408
609,34.464,34.27,1.09,0.3369159586253678,0.5909427195011336,0.2771177298737398,0.6606878102566257,0.2932257146951373,0.6611981221586328
610,34.528,34.33,1.13,0.3393596870879292,0.5925507744499856,0.27899665740964064,0.6605123008025563,0.29649029447243014,0.6603501885962059
611,34.568,34.38,1.2,0.34181753506301443,0.5941326705656478,0.2808756286195276,0.6603276512113434,0.2997463076691811,0.6594915702280791
612,34.628,34.44,1.31,0.34428905712189034,0.595688204595746,0.2827544498281102,0.6601345923629662,0.30299305162029466,0.6586231868858158
613,34.69,34.49,1.3,0.3467738147389196,0.597217199926483,0.2846329423769247,0.6599338772600796,0.3062298521101886,0.6577459773468127
614,34.753,34.55,1.33,0.3492713766899748,0.598719506642391,0.28651094283808315,0.6597262802383035,0.3094560638958975,0.6568608984798469
615,34.794,34.6,1.52,0.3517813194322891,0.6001950015466129,0.2883883032000671,0.6595125961267441,0.31267107118003556,0.6559689243501919
616,34.835,34.66,1.53,0.35430322746496684,0.6016435881423584,0.29026489102521913,0.6592936393602413,0.3158742880329601,0.6550710452858888
617,34.897,34.71,1.55,0.3568366936694289,0.6030651965761666,0.2921405895786249,0.6590702430449339,0.3190651587635691,0.6541682669068243
618,34.959,34.77,1.69,0.35938131962912667,0.604459783543529,0.2940152979281224,0.6588432579788313,0.3222431582382682,0.6532616091183453
619,35.041,34.82,1.75,0.3619367159279184,0.605827332157382,0.2958889310152355,0.6586135516291652,0.32540779214775944,0.6523521050712094
620,35.061,34.88,1.78,0.3645025024265358,0.607167851780011,0.297761419696891,0.6583820070683634,0.3285585972214196,0.6514408000897582
621,35.123,34.93,1.83,0.36707830851661566,0.6084813778190118,0.29963271075782505,0.6581495218705758,0.33169514138915324,0.6505287505702986
622,35.185,34.99,1.94,0.3696637733518039,0.6097679714881594,0.30150276689361344,0.6579170069708113,0.334817023890726,0.6496170228517447
623,35.247,35.04,1.94,0.3722585460554537,0.6110277195343308,0.3033715666643002,0.6576853854888078,0.3379238753327041,0.6487066920606251
624,35.288,35.1,1.93,0.374862285904482,0.6122607339318826,0.30523910441865393,0.6574555915197898,0.3410153576932397,0.6477988409326076
625,35.351,35.15,2.07,0.37747466248904243,0.6134671515459345,0.30710539018913746,0.6572285688942788,0.34409116427504793,0.6468945586127249
626,35.413,35.21,2.01,0.3800953558477613,0.6146471337659567,0.308970449557744,0.65700526990912,0.3471510196070225,0.6459949394364818
627,35.434,35.26,1.97,0.3827240565783618,0.6158008661109515,0.3108343234929163,0.6567866540318877,0.35019467929502474,0.6451010816939968
628,35.496,35.32,2.08,0.38536046592357565,0.6169285578073149,0.31269706815782256,0.6565736865808531,0.353221929822453,0.644214086379291
629,35.538,35.37,2.12,0.38800429583229157,0.6180304413402651,0.31455875469032096,0.6563673373827127,0.35623258830126264,0.6433350559267835
630,35.6,35.42,2.15,0.39065526899589464,0.6191067719796073,0.3164194689550004,0.6561685794102793,0.35922650217415053,0.64246509293703
631,35.661,35.48,2.19,0.3933131188597501,0.6201578272805657,0.31827931126772463,0.6559783874023548,0.3622035488686636,0.6416052988937126
632,35.723,35.53,2.3,0.3959775896097804,0.6211839065604745,0.3201383960931416,0.6557977364680622,0.365163635404063,0.6407567728738415
633,35.827,35.59,2.3,0.3986484361340862,0.6221853303522825,0.321996851715673,0.6556276006779278,0.3681066979518568,0.6399206102530814
634,35.848,35.65,2.3,0.40132542395961956,0.6231624398359279,0.32385481988455794,0.6554689516440203,0.3710327013510163,0.639097901408071
635,35.889,35.7,2.45,0.40400832916404517,0.6241155962485779,0.32571245543357874,0.6553227570914559,0.3739416385789869,0.6382897304175773
636,35.931,35.76,2.41,0.406696938263053,0.6250451802746028,0.32756992587614536,0.6551899794235949,0.3768335301797095,0.6374971737643073
637,35.995,35.81,2.39,0.40939104807350873,0.6259515914160152,0.3294274109764581,0.6550715742832459,0.3797084236499612,0.636721299039167
638,36.058,35.87,2.47,0.41209046555294965,0.6268352473439184,0.3312851022975123,0.6549684891121996,0.382566392785416,0.6359631636497335
639,36.161,35.92,2.47,0.41479500761603666,0.6276965832313233,0.33314320272675363,0.6548816617114185,0.3854075369879093,0.6352238135346587
640,36.181,35.98,2.42,0.41750450092863944,0.6285360510676095,0.3350019259802376,0.6548120188041915,0.3882319805354537,0.6345042818857153
641,36.202,36.03,2.39,0.4202187816802875,0.6293541189548842,0.3368614960861611,0.6547604746045886,0.3910398718166044,0.63380558787918
642,36.264,36.09,2.45,0.42293769533574643,0.6301512703865917,0.33872214684863944,0.6547279293935706,0.39383138253080535,0.6331287354182323
643,36.326,36.14,2.4,0.4256610963664622,0.630928003508964,0.34058412129260446,0.6547152681050661,0.3966067068563678,0.6324747118880071
644,36.367,36.2,2.37,0.4283888479625916,0.6316848303661594,0.3424476710907154,0.6547233589242242,0.39936606058772794,0.6318444869248948
645,36.43,36.25,2.5,0.43112082172635746,0.6324222761300308,0.3443130559731801,0.6547530518999072,0.40210968024362803,0.6312390112016208
646,36.514,36.31,2.44,0.4338568973474828,0.6331408783155,0.3461805431213977,0.654805177573342,0.4048378221478584,0.6306592152295613
647,36.535,36.36,2.4,0.43659696226145983,0.6338411859825057,0.3480504065463405,0.6548805456247344,0.407550761484204,0.6301060081796759
648,36.597,36.42,2.47,0.43934091129143416,0.634523758925416,0.3499229264526046,0.6549799435395662,0.4102487913272532,0.6295802767233663
649,36.638,36.47,2.48,0.44208864627448696,0.6351891668507335,0.35179838858907037,0.6551041352962451,0.41293222165073884,0.6290828838944905
650,36.699,36.53,2.44,0.44484007567309475,0.6358379885439013,0.35367708358712663,0.6552538600767097,0.4156013783150899,0.6286146679737142
651,36.761,36.58,2.43,0.44759511417254705,0.6364708110260492,0.35555930628738913,0.6554298310015879,0.418256602035872,0.6281764413963322
652,36.823,36.64,2.5,0.4503536822650962,0.6370882287016139,0.35744535505580916,0.6556327338915178,0.42089824733479664,0.6277689896846405
653,36.904,36.69,2.44,0.4531157058215811,0.6376908424979603,0.3593355310900408,0.6558632260562245,0.4235266814749812,0.6273930704058807
654,36.925,36.75,2.4,0.45588111565126166,0.6382792589982718,0.36123013771693235,0.6561219351128886,0.4261422833821289,0.6270494121567447
655,36.987,36.8,2.52,0.4586498470506364,0.638854089568958,0.36312947968200743,0.6564094578352688,0.4287454425532868,0.6267387135753969
656,37.048,36.85,2.48,0.4614218393420444,0.6394159494827469,0.36503386243181063,0.6567263590349754,0.4313365579548178,0.6264616423819378
657,37.091,36.91,2.45,0.4641970354028583,0.6399654570385296,0.3669435913900029,0.6570731704762071,0.43391603691120717,0.6262188344481925
658,37.151,36.97,2.55,0.4669753811860977,0.6405032326788624,0.36885897122810346,0.6574503898251962,0.436484293986306,0.6260108928976584
659,37.212,37.02,2.58,0.4697568252333032,0.6410298981058854,0.3707803051318037,0.6578584796355352,0.4390417498586104,0.6258383872363972
660,37.253,37.08,2.56,0.47254131818051426,0.6415460753963192,0.3727078940638075,0.6582978663704753,0.44158883019217504,0.6257018525156239
661,37.313,37.13,2.57,0.47532881225822177,0.6420523861161817,0.374642036024173,0.6587689394632678,0.444125964504762,0.6256017885267318
662,37.375,37.19,2.65,0.4781192607861865,0.6425494504359083,0.3765830253091387,0.6592720504166292,0.4466535850348468,0.6255386590294574
663,37.416,37.24,2.6,0.4809126176640121,0.6430378862467416,0.37853115176943264,0.6598075119424142,0.4491721256091166,0.6255128910138802
664,37.479,37.3,2.57,0.4837088368583673,0.6435183082794105,0.3804867000690838,0.6603755971425588,0.45168202051210843,0.6255248739969445
665,37.52,37.35,2.68,0.4865078718877948,0.6439913272261502,0.38244994894576456,0.6609765387323343,0.45418370335963143,0.6255749593542106
666,37.624,37.41,2.6,0.48930967530606984,0.6444575488670847,0.38442117047371027,0.6616105283069192,0.45667760597760954,0.6256634596875486
667,37.645,37.46,2.53,0.4921141981850862,0.6449175732019325,0.3864006293302686,0.6622777156522455,0.45916415728796534,0.6257906482294918
668,37.728,37.52,2.61,0.4949213895982609,0.6453719935878656,0.38838858206714194,0.6629782081010204,0.46164378220313335,0.6259567582849576
669,37.77,37.57,2.62,0.49773119610544714,0.6458213958842219,0.3903852763873974,0.663712069934732,0.46411690053076493,0.6261619827110176
670,37.811,37.63,2.62,0.5005435612402903,0.6462663576047387,0.392390950429331,0.6644793218323324,0.4665839258901265,0.6264064734353849
671,37.873,37.68,2.63,0.5033584250008973,0.6467074470780293,0.3944058320582704,0.6652799403662218,0.4690452646416446,0.6266903410142762
672,37.934,37.74,2.72,0.5061757233446142,0.6471452226171935,0.39643013816737227,0.6661138575461472,0.47150131483101365,0.6270136542302961
673,37.997,37.79,2.69,0.5089953876876357,0.6475802316996981,0.3984640739884591,0.6669809604116489,0.4739524651492589,0.6273764397309644
674,38.017,37.85,2.72,0.5118173444101493,0.6480130101588665,0.4005078324139289,0.6678810906737052,0.47639909391013857,0.6277786817085116
675,38.08,37.9,2.83,0.5146415143677666,0.6484440813883462,0.40256159333076463,0.6688140444062403,0.4788415680462665,0.6282203216215543
676,38.142,37.96,2.77,0.5174678124100367,0.6488739555608994,0.4046255229676757,0.6697795717881557,0.4812802421253361,0.6287012579592169
677,38.184,38.01,2.72,0.5202961469068687,0.6493031288628244,0.4066997732564154,0.6707773768964893,0.48371545738783633,0.6292213460481749
678,38.245,38.07,2.78,0.5231264192837304,0.6497320827451931,0.4087844812083322,0.6718071175512372,0.48614754080764877,0.6297803979029792
679,38.307,38.12,2.77,0.5259585235665255,0.6501612831929557,0.410879768307231,0.6728684052122881,0.48857680417690036,0.6303781821199328
680,38.39,38.17,2.71,0.5287923459370472,0.6505911800128582,0.4129857399196281,0.6739608049288157,0.49100354321641426,0.6310144238147384
681,38.411,38.23,2.68,0.5316277642998898,0.6510222061410847,0.41510248472345956,0.6750838353414356,0.49342803671303775,0.6316888046041259
682,38.475,38.28,2.76,0.5344646478616542,0.6514547769715863,0.41723007415625163,0.676236968737419,0.49585054568507003,0.6324009626316176
683,38.516,38.34,2.72,0.5373028567231841,0.6518892897062187,0.4193685618836935,0.6774196311592376,0.49827131257693347,0.6331504926375386
684,38.598,38.4,2.7,0.5401422414855086,0.6523261227279336,0.42151798328948764,0.6786312025666484,0.5006905604841526,0.633936946073331
685,38.619,38.45,2.83,0.5429826428701479,0.652765634998207,0.4236783549872864,0.6798710170524542,0.5031084924096274,0.6347598312601792
686,38.721,38.51,2.78,0.5458238913544252,0.65320816547977,0.42584967435547516,0.6811383631119726,0.5055252905521246,0.6356186135918954
687,38.761,38.56,2.74,0.5486658068224203,0.6536540325855664,0.4280319190955263,0.6824324839661434,0.5079411156278618,0.6365127157819404
688,38.802,38.62,2.82,0.5515081982321999,0.6541035336546669,0.43022504681460627,0.6837525779381295,0.5103561062260146,0.6374415181543871
689,38.843,38.67,2.84,0.5543508632999525,0.6545569444556928,0.4324289946330891,0.6850977988831924,0.5127703781989409,0.6384043589785591
690,38.905,38.73,2.81,0.5571935882016156,0.655014518718201,0.43464367881759663,0.6864672566715431,0.5151840240878666,0.6394005348470189
691,38.966,38.78,2.81,0.5600361472925339,0.6554764876924637,0.4368689944401407,0.6878600177237933,0.5175971125847211,0.6404293010965385
692,39.007,38.84,2.87,0.5628783028456377,0.6559430597381541,0.43910481506389115,0.6892751055986057,0.5200096880307684,0.6414898722716228
693,39.109,38.89,2.81,0.5657198048085395,0.6564144199426313,0.4413509924560538,0.6907115016320696,0.5224217699526209,0.6425814226300998
694,39.13,38.95,2.78,0.5685603905799034,0.6568907297696321,0.4436073563283041,0.6921681456282524,0.5248333526361677,0.6437030866902541
695,39.173,39.0,2.91,0.5713997848054343,0.6573721267391366,0.4458737141051742,0.693643936600307,0.5272444047388778,0.644853959818953
696,39.233,39.06,2.87,0.5742376991938178,0.6578587241390172,0.4481498507207416,0.6951377335614419,0.5296548689408641,0.6460330988601788
697,39.294,39.11,2.87,0.5770738323529279,0.6583506107689264,0.4504355284439159,0.696648356364987,0.5320646616350193,0.6472395228033486
698,39.355,39.17,2.98,0.5799078696465907,0.6588478507166363,0.4527304867325777,0.6981745865927179,0.5344736726564655,0.6484722134907492
699,39.417,39.22,3.02,0.582739483072188,0.6593504831668396,0.45503444211681227,0.699715168490517,0.5368817650515143,0.6497301163633737
700,39.458,39.28,3.03,0.5855683311593473,0.659858522242278,0.4573470881114746,0.7012688099503446,0.5392887748862913,0.6510121412444104
701,39.519,39.33,3.05,0.5883940588899624,0.6603719568770039,0.459668095158326,0.7028341835374362,0.5416945110951589,0.652317163159618
702,39.581,39.39,3.15,0.5912162976397584,0.6608907507216577,0.46199711059796045,0.7044099275616208,0.5440987553690544,0.6536440231937928
703,39.643,39.44,3.13,0.5940346651415497,0.6614148420808735,0.4643337586717456,0.7059946471916287,0.5465012620838537,0.6549915293825351
704,39.664,39.5,3.12,0.5968487654703063,0.6619441438831213,0.4666776405539925,0.7075869156112274,0.5489017582688518,0.6563584576385362
705,39.726,39.55,3.25,0.5996581890501582,0.6624785436833189,0.4690283344145583,0.7091852752160034,0.551299943615438,0.6577435527116618
706,39.828,39.6,3.2,0.6024625126834918,0.6630179036984513,0.4713853955120682,0.7107882388496105,0.5536954905260174,0.6591455291821352
707,39.849,39.66,3.16,0.6052612996022909,0.6635620608763417,0.47374835631792267,0.7123942910782924,0.556088044203207,0.6605630724861339
708,39.891,39.72,3.26,0.6080540995418722,0.6641108269975644,0.47611672667123495,0.7140018895024871,0.5584772227793001,0.6619948399731093
709,39.953,39.77,3.29,0.610840448837132,0.6646639888103466,0.47848999396482733,0.7156094661043101,0.5608626174859578,0.6634394619941062
710,40.016,39.83,3.3,0.6136198705413559,0.6652213081982501,0.4808676233624026,0.7172154286296721,0.5632437928640361,0.6648955430203438
711,40.078,39.88,3.33,0.616391874567562,0.665782522380431,0.4832490580469711,0.71881816200379,0.5656202870134079,0.666361662791306
712,40.119,39.94,3.41,0.6191559578522721,0.6663473441443977,0.48563371950057277,0.7204160297788641,0.5679916118826094,0.6678363774915679
713,40.2,39.99,3.41,0.6219116045415057,0.6669154621114085,0.48802100781530283,0.7220073756126869,0.570357253598114,0.6693182209555667
714,40.221,40.05,3.41,0.6246582861987722,0.6674865410347877,0.49041030203563446,0.7235905247768946,0.5727166728330225,0.6708057058995299
715,40.282,40.1,3.54,0.6273954620348691,0.6680602221314013,0.49280096053200384,0.725163785693554,0.5750693052149357,0.6722973251797847
716,40.344,40.16,3.49,0.6301225791593346,0.6686361234464289,0.4951923214055919,0.7267254514987767,0.5774145617727628,0.6737915530766713
717,40.386,40.21,3.45,0.6328390728534188,0.6692138402514662,0.4975837029241968,0.7282738016320582,0.5797518294222024,0.6752868466032663
718,40.448,40.27,3.52,0.635544366864444,0.6697929454758466,0.49997440398905757,0.7298071034500412,0.582080471489611,0.6767816468380802
719,40.509,40.32,3.51,0.6382378737214162,0.6703729901709161,0.5023637046324628,0.7313236138633542,0.5843998282739462,0.6782743802808471
720,40.572,40.38,3.46,0.6409189950717017,0.6709535040069017,0.5047508665459592,0.7328215809951155,0.586709217646417,0.6797634602304955
721,40.615,40.43,3.44,0.6435871220385353,0.6715339958019793,0.5071351336389178,0.7342992458596574,0.5890079356874072,0.6812472881843641
722,40.677,40.49,3.5,0.6462416355990483,0.6721139540832105,0.5095157326271523,0.735754844060023,0.5912952573601539,0.6827242552576952
723,40.738,40.54,3.46,0.6488819069824088,0.6726928476791624,0.5118918736512035,0.7371866075027423,0.5935704372205847,0.6841927436223808
724,40.78,40.6,3.45,0.6515072980876047,0.6732701263441114,0.5142627509238392,0.7385927661283236,0.59583271016261,0.6856511279638929
725,40.843,40.65,3.58,0.6541171619203953,0.6738452214136187,0.5166275434062373,0.7399715496558216,0.5980812921980768,0.6870977769552932
726,40.968,40.71,3.53,0.6567108430489449,0.6744175464910886,0.5189854155122349,0.741321189339792,0.6003153812704995,0.6885310547471606
727,40.989,40.76,3.49,0.6592876780776539,0.6749864981647125,0.5213355178399559,0.7426399197378523,0.6025341581016079,0.6899493224722257
728,41.01,40.82,3.59,0.6618469961386931,0.6755514567539501,0.5236769879300576,0.7439259804870025,0.6047367870696865,0.691350939763422
729,41.051,40.87,3.63,0.6643881194007317,0.6761117870844733,0.526008951049785,0.745177618086753,0.6069224171186179,0.6927342662839893
730,41.112,40.92,3.6,0.6669103635942945,0.6766668392903591,0.5283305210019775,0.7463930876869838,0.609090182696478,0.6940976632681976
731,41.153,40.98,3.61,0.6694130385531138,0.6772159496422862,0.5306408009581153,0.747570654878371,0.6112392047224647,0.6954394950711986
732,41.214,41.03,3.66,0.6718954487707448,0.6777584414005643,0.5329388843144314,0.7487085974831444,0.6133685915808913,0.6967581307264221
733,41.296,41.09,3.62,0.6743568939716021,0.6782936256920208,0.5352238555700513,0.7498052073438672,0.6154774401409191,0.6980519455088506
734,41.317,41.15,3.6,0.6767966696955156,0.6788208024098533,0.53749479122606,0.7508587921078469,0.6175648368006399,0.6993193225024392
735,41.379,41.2,3.74,0.6792140678948891,0.6793392611354784,0.5397507607043133,0.751867677004731,0.6196298585540428,0.7005586541699048
736,41.44,41.26,3.73,0.6816083775435455,0.6798482820812465,0.5419908272847247,0.7528302066147478,0.6216715740793164,0.701768343923067
737,41.504,41.31,3.72,0.6839788852563006,0.6803471370527511,0.5442140490596876,0.7537447466249396,0.623689044846857,0.702946807691876
738,41.563,41.37,3.85,0.6863248759182677,0.680835090429296,0.5464194799042241,0.7546096855706198,0.6256813262452933,0.7040924754902069
739,41.604,41.42,3.88,0.6886456333228419,0.6813114001609343,0.5486061704604258,0.7554234365591971,0.6276474687237937,0.7052037929764406
740,41.665,41.48,3.89,0.6909404408172536,0.6817753187803858,0.5507731691347225,0.7561844389734502,0.6295865189488918,0.7062792230068043
741,41.727,41.53,3.92,0.6932085819545399,0.6822260944280811,0.5529195231064712,0.7568911601513669,0.6314975209740368,0.7073172471794049
742,41.789,41.59,4.02,0.6954493411507411,0.6826629718886301,0.5550442793463047,0.7575420970397362,0.6333795174200681,0.7083163673668471
743,41.83,41.64,4.01,0.6976620043460652,0.6830851936371736,0.5571464856426388,0.7581357778187391,0.6352315506647928,0.7092751072352815
744,41.892,41.7,4.01,0.6998458596687479,0.6834920008942061,0.5592251916347108,0.7586707634948101,0.6370526640398309,0.7101920137477361
745,41.953,41.75,4.15,0.70200019810036,0.6838826346874249,0.561279449850516,0.7591456494591035,0.6388419030328759,0.7110656586495795
746,42.035,41.81,4.12,0.7041243141413417,0.6842563369190865,0.5633083167480005,0.7595590670089476,0.6405983164934964,0.7118946399339875
747,42.056,41.86,4.11,0.7062175064755563,0.6846123514372449,0.5653108537578919,0.7599096848297389,0.6423209578405907,0.7126775832852983
748,42.098,41.92,4.25,0.7082790786326646,0.6849499251091054,0.5672861283265536,0.7601962104347977,0.6440088862695825,0.7134131434981654
749,42.16,41.97,4.31,0.7103083396471046,0.6852683088945979,0.5692332149572812,0.7604173915607971,0.6456611679574332,0.7141000058704573
750,42.201,42.03,4.34,0.7123046047124241,0.6855667589182354,0.5711511962484785,0.7605720175164559,0.6472768772635266,0.7147368875679005
751,42.263,42.08,4.41,0.7142671958296736,0.685844537537347,0.5730391639271599,0.7606589204823203,0.6488550979244847,0.715322538958533
752,42.326,42.14,4.52,0.7161954424485527,0.6861009144049232,0.5748962198762244,0.7606769767596316,0.6503949242409944,0.7158557449150798
753,42.408,42.19,4.54,0.7180886820999781,0.6863351675255529,0.5767214771539527,0.7606251079664045,0.6518954622547601,0.7163353260834072
754,42.429,42.25,4.57,0.719946261018804,0.6865465843030765,0.5785140610041984,0.7605022821789839,0.6533558309137459,0.7167601401152761
755,42.471,42.3,4.74,0.7217675347555514,0.6867344625784908,0.5802731098557622,0.7603075150174874,0.654775163223918,0.7171290828636754
756,42.534,42.35,4.74,0.7235518687761322,0.686898111656489,0.5819977763094668,0.7600398706736958,0.6561526073857517,0.7174410895390941
757,42.595,42.41,4.73,0.7252986390486482,0.6870368533188838,0.5836872281114958,0.7596984628800864,0.6574873279138281,0.7176951358251541
758,42.656,42.47,4.88,0.7270072326164291,0.6871500228230222,0.5853406491115958,0.7592824558188441,0.6587785067379038,0.7178902389520994
759,42.697,42.52,4.9,0.7286770481565324,0.687236969883191,0.5869572402047976,0.7587910649698317,0.6600253442838975,0.7180254587267112
760,42.781,42.58,4.91,0.7303074965229405,0.6872970596329943,0.5885362202553587,0.7582235578966231,0.6612270605332962,0.7180998985173206
761,42.843,42.63,4.99,0.7318980012736901,0.6873296735667473,0.5900768270016664,0.7575792549698888,0.6623828960595325,0.7181127061926922
762,42.863,42.69,5.09,0.7334479991811513,0.6873342104581288,0.5915783179408567,0.7568575300276149,0.6634921130399422,0.7180630750136386
763,42.924,42.74,5.11,0.7349569407246472,0.6873100872546265,0.5930399711919383,0.7560578109717941,0.6645539962419709,0.7179502444763008
764,42.985,42.8,5.13,0.7364242905646687,0.6872567399464997,0.5944610863362442,0.7551795803013805,0.6655678539823598,0.7177735011061198
765,43.027,42.85,5.29,0.7378495279980858,0.6871736244089549,0.5958409852340498,0.7542223755814841,0.6665330190581166,0.717532179201624
766,43.089,42.91,5.29,0.7392321473939203,0.6870602172161624,0.5971790128162344,0.7531857898489747,0.667448849648156,0.7172256615272534
767,43.153,42.96,5.27,0.740571658609377,0.6869160164257327,0.5984745378499061,0.7520694719548443,0.6683147301845845,0.7168533799545522
768,43.194,43.02,5.43,0.7418675873859624,0.6867405423322662,0.5997269536769699,0.7508731268438319,0.6691300721926893,0.7164148160511561
769,43.256,43.07,5.45,0.7431194757256098,0.6865333381886196,0.6009356789246999,0.7495965157719628,0.6698943150987846,0.7159095016171102
770,43.319,43.13,5.44,0.7443268822467917,0.6862939708936286,0.6021001581874612,0.7482394564627678,0.6706069270051581,0.7153370191681654
771,43.36,43.18,5.49,0.7454893825206591,0.6860220316451195,0.6032198626788047,0.7468018232030902,0.6712674054314394,0.7146970023658256
772,43.422,43.24,5.54,0.7466065693872956,0.6857171365572057,0.6042942908532224,0.7452835468795297,0.6718752780218078,0.7139891363940138
773,43.546,43.29,5.52,0.7476780532522106,0.6853789272410964,0.605322968996923,0.7436846149566517,0.6724301032175402,0.7132131582823014
774,43.567,43.35,5.51,0.748703462363291,0.6850070713487814,0.6063054517870463,0.7420050713981781,0.6729314708944573,0.7123688571757268
775,43.587,43.4,5.62,0.7496824430685879,0.6846012630788886,0.6072413228187711,0.7402450165324895,0.6733790029649017,0.7114560745513053
776,43.627,43.46,5.59,0.7506146600554326,0.6841612236439478,0.6081301950998029,0.738404606863887,0.6737723539439234,0.7104747043813933
777,43.689,43.51,5.55,0.7514997965714546,0.6836867016983207,0.6089717115117798,0.7364840548311079,0.6741112114794063,0.7094246932441414
778,43.749,43.57,5.68,0.7523375546281151,0.6831774737261131,0.609765545238185,0.7344836285145826,0.6743952968459168,0.7083060403813359
779,43.79,43.62,5.66,0.7531276551873998,0.6826333443884719,0.6105114001584407,0.7324036512938539,0.6746243654021133,0.7071187977040014
780,43.875,43.67,5.63,0.7538698383323198,0.6820541468297359,0.6112090112079178,0.7302445014565254,0.6747982070116011,0.7058630697462162
781,43.937,43.73,5.67,0.7545638634219064,0.6814397429419994,0.6118581447036499,0.728006611760134,0.6749166464271709,0.7045390135676619
782,43.976,43.78,5.71,0.7552095092313914,0.6807900235877913,0.6124585986355595,0.7256904689484251,0.6749795436384172,0.7031468386054536
783,44.038,43.84,5.68,0.7558065740782619,0.6801049087808356,0.6130102029230322,0.7232966132235595,0.6749867941827836,0.7016868064758162
784,44.12,43.9,5.64,0.7563548759349166,0.6793843478250265,0.6135128196367035,0.7208256376757902,0.6749383294201302,0.7001592307262026
785,44.14,43.95,5.7,0.7568542525287528,0.6786283194117242,0.613966343185367,0.7182781876721398,0.674834116770962,0.6985644765384658
786,44.181,44.01,5.63,0.7573045614305898,0.6778368316753873,0.6143707004679697,0.715654960205583,0.6746741599184957,0.69690296038373
787,44.264,44.06,5.56,0.7577056801323897,0.6770099222074788,0.6147258509907148,0.7129567032062074,0.674458498974765,0.6951751496296248
788,44.305,44.12,5.68,0.7580575061152686,0.6761476580284688,0.6150317869493319,0.7101842148158272,0.6741872106109789,0.6933815621005894
789,44.365,44.17,5.65,0.7583599569087875,0.6752501355176979,0.6152885332766106,0.7073383426275404,0.6738604081523508,0.6915227655919846
790,44.427,44.23,5.61,0.7586129701424691,0.6743174803008526,0.6154961476553346,0.7044199828917072,0.6734782416376162,0.6895993773387981
791,44.47,44.28,5.65,0.7588165035904345,0.6733498470948567,0.6156547204968158,0.7014300796898085,0.6730408978434683,0.6876120634397658
792,44.531,44.34,5.67,0.7589705352099936,0.6723474195101238,0.6157643748853019,0.6983696240775986,0.6725486002741661,0.6855615382377358
793,44.613,44.39,5.65,0.7590750631749484,0.6713104098103653,0.6158252664886211,0.6952396531988592,0.6720016091166003,0.683448563657111
794,44.634,44.45,5.62,0.7591301059043329,0.670239058630391,0.6158375834355071,0.6920412493709642,0.6714002211611317,0.681273948499219
795,44.675,44.5,5.69,0.7591357020872899,0.6691336346525202,0.6158015461601029,0.6887755391434023,0.6707447696885491,0.6790385476964833
796,44.756,44.56,5.62,0.7590919107047266,0.6679944342424394,0.6157174072142121,0.6854436923303325,0.6700356243235323,0.6767432615262835
797,44.797,44.61,5.55,0.7589988110483342,0.6668217810455247,0.6155854510479057,0.6820469210182081,0.6692731908550325,0.67438903478542
798,44.838,44.67,5.65,0.7588565027375235,0.6656160255446982,0.6154059937591241,0.6785864785494906,0.6684579110240009,0.6719768559261254
799,44.899,44.72,5.57,0.7586651057347921,0.6643775445809036,0.6151793828128929,0.675063658483521,0.6675902622789136,0.6695077561545898
800,44.98,44.78,5.52,0.7584247603599745,0.6631067408373176,0.614905996730765,0.6714797935356634,0.6666707574995352,0.6669828084930006
801,45.0,44.83,5.56,0.7581356273037507,0.6618040422884313,0.6145862447510674,0.6678362544959271,0.6656999446893686,0.6644031268061039
802,45.061,44.89,5.58,0.7577978876407002,0.6604699016152005,0.614220566460544,0.6641344491283087,0.6646784066372349,0.6617698647932855
803,45.123,44.94,5.56,0.7574117428420564,0.6591047955876075,0.6138094313980085,0.6603758210520542,0.6636067605484279,0.659084214947152
804,45.184,45.0,5.54,0.7569774147882163,0.6577092244161419,0.6133533386306568,0.6565618486059502,0.6624856576458887,0.6563474074795963
805,45.225,45.05,5.62,0.7564951457809667,0.6562837110738786,0.6128528163037231,0.6526940436966825,0.6613157827418616,0.6535607092163384
806,45.287,45.1,5.57,0.7559651985552869,0.6548288005910352,0.6123084211642078,0.6487739506322213,0.6600978537805308,0.6507254224609391
807,45.348,45.16,5.52,0.7553878562905307,0.653345059324042,0.6117207380594467,0.6448031449411407,0.6588326213521626,0.6478428838293031
808,45.389,45.22,5.62,0.7547634226207823,0.6518330742011264,0.6110903794113359,0.6407832321787461,0.6575208681793243,0.6449144630557034
809,45.451,45.27,5.56,0.7540922216441992,0.6502934519463072,0.6104179846670538,0.6367158467208628,0.6561634085757807,0.6419415617713853
810,45.513,45.33,5.48,0.7533745979311613,0.6487268182835692,0.6097042197271545,0.6326026505461114,0.6547610878787024,0.6389256122568364
811,45.575,45.38,5.51,0.7526109165310412,0.6471338171228506,0.6089497763519244,0.6284453320075044,0.653314781854844,0.6358680761688441
812,45.636,45.44,5.49,0.751801562977369,0.6455151097294144,0.6081553715469199,0.6242456045941716,0.6518253960813787,0.6327704432434869
813,45.718,45.49,5.44,0.7509469432910588,0.6438713738782501,0.6073217469286264,0.6200052056839594,0.6502938653020707,0.6296342299762361
814,45.738,45.55,5.42,0.7500474839812473,0.6422033029953005,0.6064496680711884,0.6157258952875692,0.6487211527594761,0.6264609782803982
815,45.779,45.6,5.49,0.7491036320431742,0.6405116052875148,0.6055399238351457,0.6114094547848555,0.6471082495038404,0.6232522541251686
816,45.842,45.66,5.45,0.748115854952398,0.6387970028639814,0.6045933256791066,0.6070576856538489,0.645456173679369,0.6200096461546134
817,45.882,45.71,5.42,0.7470846406545542,0.637060230850573,0.6036107069552858,0.6026724081930077,0.6437659697885472,0.6167347642889403
818,45.944,45.77,5.52,0.7460104975498401,0.6353020365005413,0.6025929221898133,0.5982554602371936,0.6420387079352067,0.6134292383094698
819,46.005,45.82,5.45,0.7448939544714029,0.6335231783034269,0.601540846348698,0.59380869586787,0.6402754830470756,0.6100947164287637
820,46.088,45.88,5.38,0.7437355606568,0.631724425094557,0.6004553740903144,0.5893339841180519,0.6384774140785783,0.606732863847402
821,46.128,45.93,5.43,0.7425358857117019,0.629906555167296,0.5993374190052788,0.5848332076725776,0.6366456431946929,0.6033453612989456
822,46.19,45.99,5.39,0.7412955195649991,0.6280703553901221,0.5981879128445975,0.5803082615643195,0.6347813349367075,0.5999339035846469
823,46.232,46.04,5.32,0.7400150724144493,0.6262166203305747,0.5970078047369877,0.575761051866958,0.6328856753707286,0.5965001980995195
824,46.295,46.1,5.26,0.7386951746619956,0.6243461513881043,0.5957980603962828,0.5711934943849684,0.6309598712198011,0.5930459633514236
825,46.358,46.15,5.27,0.7373364768378818,0.6224597559378715,0.5945596613198079,0.566607513341505,0.6290051489804978,0.5895729274748567
826,46.442,46.21,5.19,0.7359396495126782,0.6205582464876125,0.5932936039786121,0.5620050400648836,0.6270227540248191,0.5860828267411589
827,46.463,46.26,5.13,0.7345053831963293,0.6186424398497004,0.5920008990004128,0.557388011674348,0.6250139496882201,0.5825774040668726
828,46.505,46.32,5.23,0.7330343882233781,0.6167131563303764,0.5906825703460824,0.5527583697658268,0.6229800163445364,0.5790584075220223
829,46.569,46.37,5.15,0.7315273946235503,0.6147712189379041,0.5893396544804581,0.5481180590983867,0.6209222504685535,0.5755275888400845
830,46.609,46.42,5.09,0.7299851519768951,0.6128174526111617,0.5879731995382254,0.5434690262820923,0.618841963686931,0.5719867019314218
831,46.672,46.48,5.15,0.7284084292527117,0.6108526834699054,0.586584264485594,0.538813218468,0.6167404818181869,0.5684375014019362
832,46.734,46.53,5.13,0.7267980146315263,0.6088777380876581,0.5851739182784764,0.5341525820410243,0.6146191439024509,0.5648817410786807
833,46.817,46.59,5.08,0.7251547153094046,0.6068934427879898,0.5837432390178777,0.529489061316414,0.6124793012216996,0.561321172544161
834,46.837,46.65,5.06,0.7234793572839217,0.6049006229648307,0.5822933131031856,0.5248245972406336,0.6103223163111929,0.5577575436810548
835,46.879,46.7,5.09,0.7217727851211374,0.602900102427451,0.5808252343840203,0.5201611260975176,0.6081495619628483,0.5541925972290583
836,46.939,46.76,5.02,0.7200358617029412,0.6008927027708152,0.5793401033112728,0.5155005782206333,0.6059624202212952,0.5506280693555422
837,46.98,46.81,4.95,0.7182694679542021,0.5988792427719972,0.5778390260879405,0.5108448767128322,0.6037622813733656,0.5470656882416799
838,47.041,46.87,5.02,0.7164745025493005,0.5968605378131072,0.576323113820326,0.5061959361740608,0.6015505429317696,0.5435071726857017
839,47.102,46.92,4.93,0.7146518815977281,0.5948373993308914,0.5747934816701323,0.5015556614385811,0.5993286086137023,0.5399542307248957
840,47.184,46.98,4.86,0.7128025383085367,0.5928106342928763,0.5732512480079455,0.49692594632281817,0.5970978873151174,0.5364085582779325
841,47.205,47.03,4.96,0.7109274226334589,0.5907810446996914,0.5716975335685628,0.4923086723850903,0.5948597920813838,0.5328718378090441
842,47.267,47.09,4.94,0.7090275008885428,0.5887494271130178,0.5701334606086147,0.4877057076984727,0.5926157390750343,0.5293457370155189
843,47.328,47.14,4.89,0.7071037553541252,0.5867165722084948,0.5685601520669069,0.48311890563803156,0.5903671465412992,0.5258319075399336
844,47.368,47.2,4.91,0.7051571838529933,0.5846832643528016,0.5669787307278906,0.4785501036836861,0.5881154337721368,0.5223319837084861
845,47.449,47.25,4.95,0.7031887993066299,0.5826502812040562,0.5653903183886583,0.4740011222399998,0.5858620200694923,0.5188475812967219
846,47.49,47.31,4.9,0.7011996292695151,0.5806183933346685,0.5637960350298543,0.46947376347421804,0.5836083237085615,0.5153802963238701
847,47.553,47.36,4.85,0.6991907154415904,0.5785883638757208,0.562196997990907,0.46496981017386096,0.5813557609018682,0.5119317038769496
848,47.616,47.42,4.92,0.6971631131591712,0.576560948181771,0.5605943211499791,0.4604910246252208,0.5791057447650032,0.508503356965762
849,47.658,47.47,4.84,0.6951178908647471,0.5745368935147973,0.5589891141090328,0.4560391475141572,0.5768596842849064,0.5050967854098293
850,47.719,47.53,4.76,0.6930561295562356,0.5725169387458551,0.5573824813844038,0.45161589685060316,0.5746189832916017,0.5017134947582933
851,47.782,47.58,4.83,0.6909789222163525,0.5705018140728887,0.5557755216032749,0.44722296691819186,0.5723850394343134,0.4983549652437329
852,47.842,47.64,4.74,0.6888873732227857,0.568492240753091,0.5541693267064597,0.44286202725037854,0.5701592431629076,0.4950226507708009
853,47.924,47.69,4.67,0.6867825977398402,0.5664889308482622,0.5525649811579101,0.43853472163439133,0.5679429767155959,0.49171797794052824
854,47.945,47.75,4.69,0.6846657210921737,0.5644925869817013,0.5509635611613657,0.4342426671443474,0.565737613113843,0.48844234511109047
855,47.986,47.8,4.71,0.6825378781212083,0.5625039021053196,0.5493661338845507,0.4299874532048805,0.563544515165397,0.48519712149575533
856,48.029,47.85,4.66,0.6804002125247539,0.5605235592758814,0.5477737566913324,0.42577064068658504,0.5613650344763637,0.4819836462986674
857,48.092,47.91,4.62,0.6782538761804098,0.5585522314394356,0.5461874763822598,0.4215937610345083,0.5592005104732318,0.47880322788907187
858,48.154,47.97,4.68,0.6761000284533628,0.5565905812230557,0.5446083284439068,0.4174583154308647,0.557052269435773,0.47565714301454254
859,48.195,48.02,4.6,0.6739398354892464,0.5546392607330812,0.5430373363074541,0.41336577399307467,0.5549216235417581,0.4725466360537327
860,48.277,48.08,4.52,0.6717744694927447,0.5526989113591174,0.5414755106169684,0.4093175750081519,0.5528098699244548,0.46947291830913745
861,48.318,48.13,4.61,0.6696051079926763,0.5507701635830201,0.5399238485078561,0.4053151242043862,0.5507182897438849,0.4664371673403122
862,48.36,48.19,4.52,0.667432933094333,0.5488536367920138,0.5383833328959917,0.40135979406118244,0.5486481472728322,0.46344052633794647
863,48.423,48.24,4.43,0.6652591307198567,0.5469499390950483,0.5368549317780523,0.39745292315781944,0.5466006889985898,0.46048410353914426
864,48.485,48.3,4.42,0.6630848898374583,0.5450596671414438,0.5353395975435998,0.3935958155618109,0.5445771427414399,0.45756897168420313
865,48.546,48.35,4.37,0.6609114016803049,0.5431834059408684,0.5338382662994765,0.38978974025744567,0.5425787167908447,0.4546961675150967
866,48.608,48.41,4.28,0.658739858955914,0.5413217286837542,0.5323518572071028,0.38603593061491587,0.5406065990603164,0.4518666913157742
867,48.65,48.46,4.23,0.656571455046953,0.5394751965613048,0.530881271833285,0.38233558390026595,0.5386619562618824,0.44908150649430567
868,48.733,48.52,4.29,0.6544073832043755,0.5376443585842731,0.5294273935151397,0.3786898608262579,0.5367459331010265,0.44634153920681496
869,48.753,48.57,4.22,0.6522488357338133,0.5358297513997778,0.5279910867397457,0.3750998851441311,0.5348596514929287,0.4436476780230572
870,48.815,48.63,4.16,0.6500970031761103,0.5340318991055396,0.5265731965391417,0.3715667432761309,0.5330042098007898,0.4410007736334132
871,48.855,48.68,4.28,0.6479530734828826,0.5322513130609486,0.5251745479012875,0.36809148398859937,0.5311806820969939,0.4384016385970003
872,48.917,48.74,4.21,0.6458182311880141,0.5304884916943822,0.5237959451976215,0.3646751181053637,0.5293901174478554,0.43585104713052714
873,49.021,48.79,4.14,0.643693656576034,0.5287439203061833,0.5224381716278604,0.3613186182611009,0.5276335392227003,0.43334973493746365
