,Time_Host,Time_Arduino,easingdata,CH1_Oxy,CH1_Deoxy,CH2_Oxy,CH2_Deoxy,CH3_Oxy,CH3_Deoxy
0,1.354,0.04,0.0,0.007801184155369632,0.4208118947119611,0.235873090761702,0.8427465795019012,0.23934247846501763,0.24739244646624267
1,1.374,0.1,0.0,0.009233029926543212,0.4186599755051081,0.23532155927536713,0.8430037077811168,0.23891428528908862,0.24920655019337798
2,1.394,0.15,0.0,0.010696211499035341,0.41649913719016846,0.23479024355128875,0.8432578736217795,0.23851896268906997,0.2509933439448304
3,1.416,0.21,0.0,0.012190236930756278,0.41433015415874574,0.23427932947134134,0.8435089346997667,0.23815673288456682,0.2527518032474983
4,1.437,0.26,0.0,0.01371458778061155,0.41215380542649593,0.23378898169184273,0.8437567504534249,0.23782778680310296,0.2544809187972882
5,1.457,1.06,0.0,0.015268719599017027,0.4099708738737524,0.23331934342615093,0.8440011822186959,0.23753228379644414,0.25617969725702205
6,1.478,1.12,0.0,0.016852062458776084,0.4077821454827545,0.23287053626354967,0.8442420933628977,0.23727035140646682,0.25784716203726527
7,1.539,1.17,0.0,0.018464021525351263,0.4055884085729629,0.23244266002501263,0.8444793494170051,0.23704208518114753,0.25948235405997755
8,1.601,1.23,0.0,0.020103977665454124,0.40339045303596965,0.23203579265636048,0.8447128182062723,0.23684754854113316,0.2610843325049588
9,1.724,1.28,0.0,0.021771288092767214,0.40118906957154027,0.23164999015924762,0.8449423699790297,0.23668677269723368,0.2626521755391245
10,1.744,1.34,0.02,0.02346528704950109,0.3989850489263536,0.23128528656033925,0.8451678775334813,0.23655975661906423,0.2641849810287032
11,1.785,1.39,-0.01,0.02518528652238311,0.3967791811370336,0.2309416939189628,0.8453892163423192,0.23646646705495006,0.2656818672344963
12,1.806,1.45,-0.03,0.026930576991597982,0.394572254779066,0.23061920237344177,0.8456062646749557,0.2364068386030986,0.26714197349034385
13,1.869,1.5,-0.03,0.028700428211189632,0.3923650562231378,0.23031778022624208,0.8458189037171118,0.2363807738339335,0.2685644608648929
14,1.929,1.56,-0.04,0.030494090019492763,0.3901583689003096,0.2300373740679789,0.8460270176874075,0.2363881434633504,0.2699485128067025
15,2.01,1.61,-0.07,0.03231079317822612,0.3879529725772699,0.22977790894022165,0.846230493950494,0.2364287865764898,0.2712933357726728
16,2.03,1.67,-0.05,0.03414975023888314,0.3857496426427901,0.22953928853689365,0.8464292231262388,0.23650251090143237,0.2725981598397681
17,2.092,1.72,-0.03,0.03601015643499651,0.3835491494064115,0.22932139544389393,0.8466230991945274,0.23660909313202613,0.27386223929998893
18,2.132,1.78,-0.04,0.037891190598748965,0.38135225741035345,0.22912409141638762,0.8468120195953455,0.23674827929886602,0.27508485323852033
19,2.194,1.83,-0.04,0.039792016100275156,0.3791597247556249,0.22894721769303225,0.8469958853239397,0.2369197851872831,0.2762653060949707
20,2.257,1.89,0.01,0.041711781807896704,0.3769723024433205,0.22879059534625962,0.8471746010209793,0.23712329680107455,0.27740292820760604
21,2.297,1.94,0.01,0.0436496230675021,0.37479073373203925,0.22865402566763574,0.8473480750576841,0.2373584708706109,0.27849707634050264
22,2.379,2.0,0.01,0.04560466269930879,0.37261575351228193,0.2285372905872626,0.8475162196158836,0.23762493540388194,0.27954713419355126
23,2.421,2.05,0.05,0.04757601201028822,0.3704480876985658,0.22844015312614802,0.8476789507629244,0.23792229027899284,0.2805525128952254
24,2.463,2.11,0.06,0.04956277182059199,0.36828845263986365,0.22836235788043244,0.8478361885212887,0.23825010787658812,0.2815126514779488
25,2.525,2.16,0.05,0.05156403350237305,0.3661375545488285,0.22830363153632255,0.8479878569327488,0.2386079337506577,0.282427017335824
26,2.587,2.22,0.07,0.05357888002943845,0.3639960889501395,0.22826368341452868,0.8481338841168929,0.23899528733615769,0.2832951066644298
27,2.65,2.27,0.08,0.05560638703621046,0.36186474014819364,0.22824220604295736,0.8482742023238752,0.23941166269185418,0.28411644488237403
28,2.754,2.33,0.05,0.057645623884514725,0.3597441807142918,0.22823887575636717,0.8484087479812588,0.2398565292767557,0.2848905870343071
29,2.773,2.38,0.05,0.05969565473672865,0.35763507099342845,0.22825335332165494,0.8485374617348275,0.2403293327584363,0.28561711817515606
30,2.813,2.44,0.06,0.06175553963381387,0.3555380586308017,0.22828528458738445,0.8486602884832628,0.24082949585147226,0.2862956537353866
31,2.876,2.49,0.05,0.06382433557673278,0.3534537781181725,0.22833430115610504,0.8487771774065818,0.2413564191841102,0.28692583986714326
32,2.918,2.55,0.06,0.06590109760970489,0.3513828503601953,0.22840002107792692,0.8488880819882199,0.24190948219116934,0.28750735377114817
33,2.98,2.6,0.11,0.0679848799037104,0.349325882260808,0.22848204956372378,0.8489929600306277,0.24248804403105856,0.2880399040042355
34,3.021,2.66,0.12,0.07007473683865247,0.34728346632968493,0.22857997971624314,0.8490917736642201,0.24309144452469544,0.28852323076734965
35,3.123,2.71,0.13,0.07216972408265482,0.3452561803086237,0.22869339327733135,0.849184489349479,0.2437190051140538,0.28895710617377063
36,3.143,2.77,0.16,0.0742688996670609,0.34324458681760833,0.22882186138943345,0.849271077871995,0.2443700298380524,0.28934133449726057
37,3.184,2.82,0.19,0.07637132505578643,0.3412492330201682,0.228964945369515,0.8493515143302185,0.24504380632351552,0.28967575239977
38,3.244,2.88,0.18,0.07847606620774204,0.3392706503075705,0.22912219749356097,0.8494257781157163,0.2457396067889699,0.2899602291383309
39,3.305,2.93,0.22,0.08058219463107054,0.3373093540013441,0.22929316178982334,0.849493852885793,0.24645668905907903,0.29019466675080763
40,3.346,2.99,0.24,0.08268878842793684,0.33536584307365075,0.22947737483899686,0.8495557265284609,0.2471942975875605,0.2903790002202498
41,3.407,3.04,0.24,0.08479493332856133,0.3334405998850834,0.22967436657951323,0.8496113911198757,0.24795166448647546,0.2905131976176582
42,3.488,3.1,0.24,0.08689972371307275,0.3315340899395979,0.22988366111615638,0.8496608428744798,0.24872801055982158,0.2905972602230078
43,3.508,3.15,0.26,0.0890022636196208,0.32964676165641926,0.23010477753021283,0.8497040820881838,0.24952254633940077,0.2906312226243604
44,3.57,3.21,0.25,0.09110166773711986,0.3277790461588377,0.23033723068937967,0.8497411130749591,0.250334473120958,0.2906151527948398
45,3.63,3.26,0.23,0.09319706238101148,0.32593135707979126,0.23058053205564047,0.8497719440972025,0.251162983998589,0.2905491521471805
46,3.672,3.32,0.27,0.0952875864504862,0.3241040903840549,0.2308341904892909,0.8497965872901666,0.2520072648953948,0.2904333555654979
47,3.734,3.37,0.29,0.09737239236567212,0.32229762420675695,0.2310977130472531,0.8498150585806542,0.25286649558832347,0.2902679314138571
48,3.796,3.43,0.3,0.09945064698335492,0.3205123187078484,0.23137060577377483,0.8498273776000695,0.2537398507250961,0.29005308152118314
49,3.856,3.48,0.34,0.10152153248982161,0.3187485159420934,0.23165237448156661,0.8498335675918961,0.2546265008310973,0.28978904114203646
50,3.917,3.54,0.39,0.10358424726943502,0.31700653974413545,0.23194252552142522,0.849833655313702,0.25552561330413154,0.2894760788928137
51,3.978,3.59,0.39,0.10563800674754797,0.31528669562823153,0.232240566538426,0.8498276709338444,0.25643635339501253,0.28911449666300293
52,4.04,3.65,0.42,0.10768204420635961,0.3135892707023247,0.23254600721284438,0.8498156479231413,0.2573578851720573,0.2887046295012184
53,4.061,3.7,0.46,0.10971561157231775,0.31191453359623394,0.2328583599840659,0.8497976229418729,0.25828937246768685,0.28824684547582213
54,4.123,3.76,0.46,0.11173798017369899,0.3102627344038392,0.23317714075586285,0.8497736357225354,0.25922997980547574,0.2877415455100205
55,4.225,3.81,0.46,0.11374844146703436,0.3086341046392197,0.2335018695815409,0.8497437289488019,0.26017887330613065,0.2871891631914094
56,4.245,3.87,0.51,0.11574630773108704,0.3070288572067615,0.2338320713275834,0.8497079481311205,0.261135221570994,0.2865901645560251
57,4.287,3.92,0.5,0.11773091272716307,0.30544718638523977,0.23416727631454456,0.8496663414793205,0.262098196541786,0.28594504784702296
58,4.328,3.98,0.49,0.11970161232465694,0.3038892678258227,0.23450702093405287,0.8496189597725188,0.26306697433539455,0.28525434324814986
59,4.411,4.03,0.51,0.12165778509088707,0.30235525856384426,0.23485084824087538,0.849565856226571,0.26404073605261197,0.2845186125922028
60,4.472,4.09,0.51,0.12359883284445589,0.30084529704409946,0.23519830851906315,0.8495070863593045,0.26501866855980066,0.28373844904467865
61,4.513,4.14,0.48,0.12552418117153988,0.29935950315933324,0.23554895982125795,0.8494427078537705,0.26599996524252517,0.28291447676284687
62,4.594,4.2,0.49,0.1274332799046003,0.2978979783015816,0.23590236848027984,0.8493727804197856,0.2669838267302206,0.2820473505305149
63,4.615,4.25,0.53,0.12932560356299297,0.2964608054260758,0.23625810959214458,0.8492973656540673,0.2679694615909805,0.28113775536878743
64,4.677,4.31,0.53,0.1312006517548802,0.295048049127512,0.23661576746967677,0.8492165268993246,0.26895608699554785,0.2801864061231572
65,4.719,4.36,0.55,0.1330579495397372,0.2936597557286023,0.23697493606590608,0.8491303291027072,0.26994292934959935,0.27919404702730233
66,4.779,4.42,0.61,0.13489704775063788,0.29229595338093445,0.23733521936646698,0.8490388386740739,0.2709292248934554,0.2781614512439938
67,4.84,4.47,0.61,0.13671752327547831,0.29095665217821937,0.2376962317502835,0.8489421233445542,0.2719142202684361,0.27708942038352774
68,4.902,4.53,0.62,0.13851897929639204,0.28964184428197104,0.23805759831791182,0.8488402520258647,0.2728971730492102,0.2759787840000927
69,4.965,4.58,0.66,0.1403010454867979,0.2883515040595626,0.23841895518701875,0.848733294670808,0.2738773522416409,0.2748303990664701
70,5.027,4.64,0.68,0.14206337816575648,0.28708558823448543,0.23877994975460448,0.848621322135322,0.27485403874580383,0.27364514942744994
71,5.069,4.69,0.66,0.14380566040952403,0.2858440360485449,0.23914024092572472,0.8485044060423685,0.27582652578401906,0.2724239452323617
72,5.13,4.75,0.68,0.14552760212034613,0.2846267694356879,0.23949949930862457,0.8483826186478556,0.27679411929389736,0.27116772234717823
73,5.192,4.8,0.7,0.14722894005264697,0.283433693207171,0.2398574073763609,0.8482560327087117,0.27775613828654655,0.2698774417467212
74,5.232,4.86,0.68,0.1489094377968593,0.28226469524782294,0.2402136595951422,0.8481247213532163,0.2787119151702128,0.26855408888757554
75,5.335,4.91,0.68,0.1505688857211853,0.28111964672323725,0.24056796251973867,0.8479887579537424,0.27966079603973326,0.26719867306241357
76,5.355,4.97,0.7,0.15220710087159997,0.27999840229782647,0.24092003485641617,0.8478482160021549,0.28060214093226654,0.26581222673648314
77,5.396,5.02,0.67,0.15382392683047297,0.2789008003637062,0.24126960749392454,0.8477031689881597,0.2815353240498409,0.2643958048670257
78,5.457,5.08,0.65,0.15541923353430281,0.27782666328033756,0.24161642350312093,0.847553690280922,0.2824597339493181,0.26295048420633305
79,5.5,5.13,0.66,0.15699291705119187,0.27677579762476434,0.24196023810582548,0.8473998530142673,0.28337477370041303,0.2614773625890498
80,5.54,5.19,0.67,0.15854489931882323,0.2757479944521531,0.24230081861348965,0.8472417299757637,0.2842798610124248,0.2599775582041961
81,5.621,5.24,0.65,0.16007512784383493,0.27474302956619445,0.24263794433621977,0.8470793934999817,0.2851744283303318,0.25845220885225656
82,5.704,5.3,0.67,0.16158357536362916,0.2737606637987739,0.242971406462645,0.8469129153662683,0.2860579229008937,0.2569024711875696
83,5.724,5.35,0.69,0.16307023947179217,0.27280064329819986,0.2433010079110966,0.8467423667014226,0.28692980680941976,0.25532951994616016
84,5.765,5.41,0.67,0.16453514220840107,0.2718626998252297,0.24362656315259212,0.8465678178876846,0.2877895569879025,0.2537345471591343
85,5.825,5.46,0.68,0.1659783296165347,0.2709465510561786,0.24394789800620822,0.8463893384764626,0.2886366651952776,0.25211876135180034
86,5.887,5.52,0.71,0.16739987126630235,0.27005190089250414,0.24426484940754747,0.8462069971082008,0.2894706379706436,0.2504833867287761
87,5.927,5.57,0.7,0.168799859747696,0.2691784397763819,0.2445772651511434,0.8460208614387793,0.2902909965603499,0.24882966234544576
88,5.989,5.63,0.69,0.17017841013354382,0.26832584501191376,0.2448850036077715,0.845830998072794,0.2910972768199382,0.2471588412662252
89,6.071,5.68,0.72,0.1715356594137907,0.26749378109173644,0.24518793341773376,0.8456374725040623,0.2918890290919979,0.24547218971015602
90,6.132,5.74,0.71,0.17287176590227346,0.2666819000288959,0.24548593316126832,0.8454403490636451,0.2926658180610731,0.2437709861843688
91,6.152,5.79,0.68,0.17418690861710331,0.26588984169392643,0.24577889100730232,0.8452396908756044,0.29342722258682336,0.24205652060595167
92,6.212,5.85,0.68,0.17548128663573861,0.2651172341571091,0.24606670434181865,0.8450355598206425,0.294172835516701,0.24033009341271486
93,6.273,5.9,0.67,0.1767551184258575,0.26436369403588456,0.24634927937714643,0.8448280165077001,0.29490226347944976,0.23859301466327776
94,6.313,5.96,0.63,0.17800864115322956,0.26362882684735034,0.2466265307435259,0.8446171202535325,0.29561512666074596,0.23684660312686998
95,6.374,6.01,0.63,0.17924210996787895,0.2629122273657334,0.24689838106432513,0.8444029290702306,0.29631105856228457,0.23509218536325346
96,6.435,6.07,0.65,0.18045579726990296,0.26221347998470684,0.24716476051629807,0.8441854996606364,0.2969897057455662,0.23333109479321593
97,6.477,6.12,0.63,0.18164999195636133,0.26153215908440736,0.2474256063762663,0.8439648874215846,0.2976507275615869,0.23156467076012283
98,6.538,6.18,0.63,0.18282499865068255,0.2608678294029997,0.24768086255558025,0.8437411464549186,0.2982937958675782,0.22979425758304403
99,6.601,6.23,0.66,0.18398113691606613,0.2602200464126307,0.2479304791236943,0.8435143295862323,0.2989185947319179,0.22802120360198586
100,6.663,6.29,0.65,0.1851187404544147,0.2595883566995883,0.2481744118221913,0.8432844883912739,0.29952482012833226,0.2262468602157875
101,6.746,6.34,0.64,0.18623815629239923,0.2589722983484461,0.2484126215706257,0.8430516732298915,0.30011217962053194,0.22447258091329017
102,6.809,6.4,0.67,0.18733974395631975,0.2583714013299263,0.24864507396559468,0.8428159332873428,0.3006803920384581,0.22269972029844715
103,6.829,6.45,0.68,0.18842387463748592,0.2577851878921739,0.24887173877449878,0.8425773166227245,0.3012291871473645,0.22092963311009606
104,6.871,6.51,0.65,0.18949093034989317,0.2572131729550867,0.2490925894255065,0.8423358702242192,0.30175830531100745,0.2191636732371841
105,6.933,6.56,0.66,0.1905413030819965,0.25665486450733427,0.24930760249527925,0.8420916400708435,0.3022674971502597,0.21740319273030842
106,6.995,6.62,0.67,0.19157539394437118,0.2561097640057234,0.24951675719604458,0.8418446712004289,0.3027565231985104,0.21564954081050175
107,7.057,6.67,0.64,0.1925936123150031,0.2555773667766317,0.24972003486363095,0.8415950077836225,0.30322515355524754,0.2139040628762436
108,7.098,6.73,0.62,0.1935963749838729,0.25505716241932175,0.24991741844808502,0.8413426932037654,0.3036731675392359,0.21216809950972274
109,7.16,6.78,0.62,0.19458410529840534,0.254548635211043,0.2501088920084778,0.8410877701425652,0.3041003533427025,0.210442985483384
110,7.202,6.84,0.58,0.19555723231128871,0.25405126451388843,0.25029444021347996,0.840830280671506,0.3045065076879186,0.20873004876777207
111,7.243,6.89,0.54,0.19651618993210912,0.2535645251833906,0.2504740478492312,0.8405702663489258,0.3048914354875128,0.20703060954164176
112,7.305,6.95,0.56,0.1974614160841953,0.2530878879788209,0.25064769933595626,0.8403077683226365,0.30525494950976684,0.2053459792052571
113,7.367,7.0,0.56,0.19839335186803858,0.2526208199750989,0.25081537825468286,0.8400428274378606,0.3055968700500347,0.2036774593977394
114,7.408,7.06,0.54,0.19931244073263932,0.252162784976136,0.2509770668853126,0.839775484350131,0.3059170246093057,0.20202634101926167
115,7.47,7.11,0.56,0.20021912765610853,0.2517132439293669,0.25113274575719874,0.8395057796426935,0.3062152475808288,0.2003939032588178
116,7.533,7.17,0.58,0.20111385833683798,0.2512716553411759,0.25128239321332035,0.8392337539478575,0.3064913799456536,0.19878141262824214
117,7.594,7.22,0.56,0.20199707839654854,0.2508374756929178,0.2514259849891263,0.8389594480716928,0.30674526897791304,0.19719012200315456
118,7.636,7.28,0.57,0.20286923259652218,0.25041015985725656,0.2515634938071346,0.8386829031214492,0.3069767679606677,0.1956212696715523
119,7.699,7.33,0.59,0.20373076406830334,0.2499891615146144,0.25169488898839876,0.8384041606351137,0.3071857359131419,0.19407607839082885
120,7.76,7.39,0.57,0.2045821135601025,0.24957393356960525,0.2518201360819858,0.8381232627125497,0.3073720373301935,0.19255575445406217
121,7.802,7.44,0.56,0.2054237187000069,0.24916392856744396,0.2519391965136298,0.8378402521477142,0.30753554193486476,0.19106148676646956
122,7.904,7.5,0.59,0.20625601327691243,0.24875859911044976,0.25205202725472176,0.8375551725615094,0.3076761244448646,0.18959444593296057
123,7.924,7.55,0.57,0.20707942653990954,0.248357398274847,0.25215858051277107,0.8372680685348645,0.30779366435383015,0.18815578335771233
124,7.964,7.61,0.54,0.20789438251674872,0.2479597800280805,0.25225880344443247,0.8369789857416502,0.3078880457282075,0.18674663035665212
125,8.047,7.66,0.54,0.20870129935197013,0.24756519964682086,0.2523526378921375,0.836687971081004,0.3079591570205772,0.18536809728367534
126,8.088,7.72,0.53,0.20950058866529012,0.24717311413577064,0.2524400201453175,0.8363950728085702,0.30800689090021355,0.18402127267136065
127,8.128,7.77,0.47,0.21029265493085925,0.24678298264731485,0.25252088072715345,0.8361003406660709,0.3080311441016039,0.18270722238690343
128,8.251,7.83,0.47,0.21107789487800963,0.2463942669020118,0.25259514420772317,0.8358038260085706,0.30803181729156315,0.18142698880397673
129,8.272,7.88,0.47,0.21185669691407824,0.2460064316099023,0.2526627290443181,0.8355055819288236,0.3080088149554576,0.18018158999123404
130,8.292,7.94,0.46,0.212629440569841,0.24561894489260375,0.2527235474495767,0.8352056633781644,0.3079620453029142,0.17897201891817924
131,8.354,7.99,0.46,0.21339649596799798,0.24523127870615605,0.25277750528792586,0.8349041272834977,0.30789142019323773,0.17779924267912625
132,8.416,8.05,0.47,0.21415822331505618,0.24484290926458438,0.252824502000641,0.8346010326600595,0.3077968550806328,0.1766642017359226
133,8.458,8.1,0.46,0.2149149724169072,0.24445331746409674,0.2528644305596499,0.8342964407197154,0.3076782689792309,0.1755678091800469
134,8.52,8.16,0.45,0.21566708221840786,0.24406198930775636,0.25289717745003604,0.8339904149746674,0.307535584447855,0.17451095001465244
135,8.582,8.21,0.48,0.2164148803672901,0.24366841633037922,0.25292262268106996,0.8336830213364916,0.30736872759440087,0.1734944804571291
136,8.623,8.27,0.49,0.21715868280275402,0.24327209602331715,0.25294063982552867,0.8333743282104359,0.30717762809966864,0.17251922726278163
137,8.684,8.32,0.46,0.21789879336909793,0.2428725322587146,0.25295109608702804,0.8330644065848913,0.306962219260446,0.17158598707027056
138,8.748,8.38,0.48,0.2186355034547126,0.24246923571279128,0.2529538523950655,0.8327533301159675,0.3067224380516208,0.17069552576952957
139,8.789,8.43,0.49,0.2193690916567158,0.24206172428770487,0.2529487635274444,0.8324411752071533,0.30645822520708726,0.1698485778929563
140,8.852,8.49,0.47,0.22009982347143808,0.24164952353158803,0.25293567825972935,0.832128021084109,0.3061695253191888,0.1690458460307635
141,8.913,8.54,0.43,0.22082795101087033,0.24123216705642697,0.2529144395413565,0.8318139498646802,0.3058562869564083,0.1682880002714664
142,9.014,8.6,0.44,0.22155371274506366,0.24080919695353464,0.2528848846979803,0.8314990466242673,0.3055184627989713,0.16757567766852705
143,9.035,8.65,0.43,0.22227733327038496,0.24038016420641314,0.25284684565958304,0.8311833994566932,0.305156009791959,0.16690948173417264
144,9.076,8.71,0.41,0.22299902310349526,0.2399446291007735,0.2528001492137922,0.8308670995306955,0.30476888931542934,0.16628998196135747
145,9.117,8.76,0.44,0.22371897850091532,0.23950216163139562,0.2527446172837537,0.8305502411421158,0.30435706737092616,0.1657177133747421
146,9.18,8.82,0.45,0.22443738130406216,0.23905234190538732,0.2526800672298078,0.8302329217617412,0.3039205147836392,0.16519317611141726
147,9.243,8.87,0.43,0.22515439880965812,0.23859476054126305,0.25260631217411383,0.8299152420786201,0.30345920741938454,0.1647168350319301
148,9.369,8.93,0.44,0.22587018366541273,0.2381290190631538,0.25252316134727465,0.8295973060385629,0.3029731264155119,0.1642891193620293
149,9.39,8.98,0.46,0.22658487379086295,0.23765473028939788,0.25243042045594827,0.829279220877492,0.3024622584248138,0.1639104223654721
150,9.41,9.04,0.45,0.2272985923232451,0.23717151871475164,0.2523278920704032,0.8289610971493214,0.30192659587149423,0.1635811010482685
151,9.473,9.09,0.46,0.22801144758823744,0.2366790208854993,0.25221537603096644,0.8286430487481099,0.301366137218235,0.16330147589486815
152,9.535,9.15,0.5,0.22872353309537855,0.2361768857667998,0.2520926698723169,0.8283251929243254,0.3007808872433816,0.1630718306369543
153,9.577,9.2,0.49,0.22943492755795428,0.23566477510165668,0.25195956926458374,0.8280076502951517,0.3001708573272619,0.16289241205563235
154,9.659,9.26,0.49,0.23014569493714246,0.235142363760932,0.25181586847022736,0.8276905448488195,0.2995360657466526,0.16276342981786035
155,9.721,9.31,0.51,0.2308558845101961,0.2346093400838414,0.25166136081568774,0.8273740039429659,0.29887653797642516,0.16268505634793898
156,9.742,9.37,0.5,0.23156553096244797,0.23406540620835145,0.2514958391767988,0.8270581582970006,0.2981923069974264,0.16265742673478503
157,9.783,9.42,0.52,0.23227465450293913,0.2335102783908473,0.251319096476957,0.8267431419784101,0.2974834136096697,0.16268063867558333
158,9.844,9.48,0.52,0.23298326100347588,0.2329436873143807,0.25113092619700783,0.8264290923828872,0.29674990674992346,0.16275475245625262
159,9.905,9.53,0.5,0.23369134216091317,0.23236537838475982,0.2509311228957743,0.8261161502081602,0.29599184381279875,0.16287979096894145
160,9.967,9.59,0.48,0.23439887568244872,0.23177511201370565,0.2507194827401031,0.8258044594213919,0.2952092909744439,0.16305573976649956
161,10.029,9.64,0.5,0.23510582549367112,0.23117266388829194,0.2504958040432421,0.825494167220053,0.29440232351795065,0.16328254715359428
162,10.11,9.7,0.52,0.23581214196903014,0.23055782522591967,0.25025988781029496,0.8251854239862071,0.2935710261595383,0.1635601243139363
163,10.132,9.75,0.52,0.23651776218428305,0.22993040301414616,0.2500115382894388,0.824878383234156,0.2927154933745367,0.16388834547296582
164,10.173,9.81,0.53,0.23722261019033752,0.22929022023478898,0.24975056352755107,0.8245732015513928,0.29183582972214567,0.16426704809529682
165,10.235,9.86,0.57,0.23792659730777735,0.2286371160718268,0.2494767759288712,0.8242700385328136,0.29093215016795854,0.1646960331161694
166,10.296,9.92,0.58,0.23862962244126762,0.22797094610269203,0.24918999281533777,0.8239690567081226,0.29000458040327476,0.16517506520609931
167,10.337,9.97,0.57,0.23933157241299297,0.22729158247258813,0.24889003698728177,0.8236704214623208,0.2890532571602972,0.1657038730678591
168,10.4,10.03,0.6,0.24003232231428343,0.22659891405146942,0.2485767372832125,0.8233743009490913,0.2880783285223849,0.1662821497648702
169,10.482,10.08,0.6,0.24073173587464658,0.22589284657329714,0.2482499291375068,0.8230808659968103,0.287079954228616,0.16690955308004518
170,10.503,10.14,0.58,0.24142966584753403,0.225173302757145,0.24790945513488424,0.8227902900068621,0.2860583059719906,0.1675857059041287
171,10.563,10.19,0.59,0.24212595441225213,0.22444022240972025,0.2475551655606222,0.8225027488439257,0.2850135676906618,0.16831019665264854
172,10.605,10.25,0.59,0.24282043359144523,0.22369356250891712,0.24718691894552236,0.8222184207179509,0.2839459358516254,0.16908257971067409
173,10.668,10.3,0.57,0.24351292568353924,0.22293329726811856,0.2468045826046947,0.8219374860575828,0.2828556197263281,0.16990237590466506
174,10.73,10.36,0.56,0.24420324370946764,0.22215941818106402,0.24640803316926194,0.821660127374855,0.281742841657665,0.17076907300075486
175,10.771,10.41,0.56,0.24489119187297287,0.22137193404715919,0.2459971571101056,0.8213865291210214,0.28060783731783867,0.17168212622883153
176,10.873,10.47,0.54,0.24557656603381714,0.22057087097708114,0.24557185125277986,0.8211168775334351,0.2794508559565423,0.17264095883174477
177,10.894,10.52,0.5,0.2462591541932995,0.219756272378468,0.2451320232826898,0.8208513604734061,0.2782721606388976,0.17364496263889875
178,10.935,10.58,0.54,0.24693873699150706,0.21892819892141865,0.24467759223957922,0.8205901672549782,0.2770720284725281,0.1746934986633987
179,10.996,10.63,0.56,0.24761508821572742,0.21808672848348334,0.24420848900030562,0.8203334884645822,0.2758507508230857,0.1757858977218361
180,11.057,10.69,0.55,0.24828797531943728,0.21723195607380488,0.24372465674883595,0.8200815157715181,0.2746086335174844,0.1769214610757614
181,11.098,10.74,0.58,0.24895715995124856,0.21636399373609833,0.2432260514323873,0.8198344417292356,0.27334599703407436,0.17809946109389763
182,11.203,10.8,0.6,0.24962239849313791,0.2154829704302431,0.24271264220266903,0.8195924595674384,0.27206317667901725,0.17931914193417484
183,11.245,10.85,0.59,0.2502834426072083,0.21458903189241038,0.2421844118412481,0.8193557629751135,0.27076052274819895,0.18057972024471003
184,11.266,10.91,0.6,0.25094003979012613,0.2136823404738475,0.24164135716814417,0.819124545874672,0.26943840067410674,0.18188038588292318
185,11.327,10.96,0.62,0.25159193393425744,0.21276307495865807,0.2410834894328645,0.8188990021874549,0.2680971911571919,0.18322030265204986
186,11.388,11.02,0.61,0.25223886589445693,0.21183143036109053,0.24051083468720488,0.8186793255908512,0.2667372902813284,0.184598609054381
187,11.429,11.07,0.59,0.2528805740594471,0.21088761770294723,0.23992343413925804,0.8184657092672496,0.2653591096130544,0.18601441906061544
188,11.49,11.13,0.61,0.25351679492676893,0.20993186377175344,0.23932134448816264,0.8182583456450114,0.2639630762843599,0.18746682289472907
189,11.574,11.18,0.6,0.25414726368037,0.20896441086029535,0.23870463823919108,0.8180574261316376,0.2625496330588419,0.18895488783374478
190,11.595,11.24,0.57,0.25477171476998367,0.2079855164880821,0.23807340399882027,0.8178631408392849,0.26111923838109097,0.19047765902176603
191,11.657,11.29,0.57,0.2553898824915048,0.20699545310524825,0.23742774674944883,0.8176756783027902,0.2596723664091897,0.19203416029762319
192,11.719,11.35,0.55,0.2560015015675944,0.20599450777939973,0.23676778810344137,0.8174952251903644,0.25820950703021195,0.19362339503547954
193,11.76,11.4,0.52,0.256606307727752,0.20498298186591649,0.23609366653618702,0.8173219660071337,0.25673116585859285,0.19524434699775206
194,11.822,11.46,0.53,0.2572040382870661,0.20396119066227142,0.23540553759785357,0.8171560827917694,0.25523786421720834,0.19689598119971854
195,11.884,11.51,0.55,0.2577944327227999,0.202929463046986,0.23470357410349466,0.8169977548065424,0.2537301391009513,0.19857724478519045
196,11.945,11.57,0.54,0.2583772332479246,0.20188814110389203,0.2339879663011353,0.8168471582212513,0.252208543122547,0.2002870679126238
197,11.987,11.62,0.54,0.2589521853807063,0.2008375797323801,0.23325892201743584,0.8167044657915742,0.25067364444032125,0.20202436465101717
198,12.07,11.68,0.57,0.25951903850948854,0.1997781462443007,0.2325166667805319,0.8165698465324871,0.24912602666764697,0.20378803388490682
199,12.112,11.73,0.57,0.26007754645184716,0.19871021994817004,0.23176144391968206,0.8164434653874445,0.24756628876383413,0.20557696022771574
200,12.173,11.79,0.56,0.2606274680072602,0.19763419172137775,0.23099351464140822,0.8163254828940488,0.24599504490629376,0.20739001494267378
201,12.195,11.84,0.57,0.2611685675023479,0.19655046357119438,0.23021315808187956,0.8162160548469595,0.24441292434387937,0.2092260568704869
202,12.339,11.9,0.58,0.26170061532768674,0.19545944818546784,0.2294206713353693,0.8161153319588169,0.24282057123139034,0.2110839333628993
203,12.36,11.95,0.56,0.26222338846525245,0.19436156847394195,0.22861636945870337,0.8160234595199486,0.24121864444529645,0.21296248122129174
204,12.38,12.01,0.56,0.26273667100563886,0.1932572571011479,0.22780058545171178,0.8159405770576498,0.23960781738080142,0.2148605276394849
205,12.422,12.06,0.57,0.2632402546542829,0.19214695601183635,0.2269736702137672,0.8158668179958946,0.23798877773041283,0.21677689114994997
206,12.485,12.12,0.53,0.26373393922600896,0.19103111594992267,0.2261359924765467,0.8158023093164328,0.23636222724422914,0.21871038257261602
207,12.525,12.17,0.51,0.2642175331272691,0.1899101959719108,0.22528793871317399,0.815747171222339,0.23472888147218401,0.2206598059654258
208,12.587,12.23,0.51,0.26469085382550683,0.1887846629557316,0.22442991302388765,0.8157015168051823,0.23308946948850806,0.2226239595757169
209,12.668,12.28,0.49,0.2651537283051263,0.1876549911058781,0.22356233699835215,0.815665451717048,0.2314447335986668,0.22460163679143488
210,12.689,12.34,0.47,0.26560599350960395,0.18652166145563243,0.2226856495546776,0.8156390738486439,0.2297954290290037,0.22659162709110753
211,12.752,12.39,0.49,0.26604749676934,0.18538516136707112,0.22180030675515489,0.8156224730147008,0.2281423235992806,0.22859271699143516
212,12.814,12.45,0.5,0.2664780962149257,0.18424598402941186,0.2209067815986574,0.8156157306478076,0.22648619737825976,0.2306036909912893
213,12.855,12.5,0.48,0.2668976611755802,0.1831046279561465,0.2200055637896381,0.8156189195017464,0.2248278423224464,0.23262333251090336
214,12.917,12.56,0.5,0.2673060725625826,0.18196159648133292,0.21909715948365488,0.8156321033653748,0.22316806189810628,0.23465042482508763
215,12.978,12.61,0.51,0.26770322323758033,0.18081739725539733,0.21818209100939753,0.815655336788125,0.22150767068670665,0.23668375198938274
216,13.04,12.67,0.5,0.26808901836571425,0.17967254174081054,0.217260896567254,0.8156886648182635,0.2198474939739872,0.2387220997581666
217,13.102,12.72,0.49,0.2684633757535315,0.1785275447080432,0.2163341299045296,0.81573212275513,0.21818836732292965,0.24076425649385066
218,13.162,12.78,0.51,0.2688262261716719,0.17738292373225129,0.21540235996750998,0.8157857359166343,0.21653113613096373,0.24280901406640834
219,13.183,12.83,0.49,0.269177513662324,0.1762391986911685,0.21446617053063657,0.8158495194233156,0.21487665517180443,0.24485516874256574
220,13.244,12.89,0.46,0.2695171958314614,0.175096891264674,0.21352615980313433,0.8159234780002357,0.21322578812236267,0.24690152206404256
221,13.306,12.94,0.47,0.2698452441258782,0.17395652443646634,0.21258294001348002,0.8160076057979282,0.2115794070752037,0.24894688171426596
222,13.407,13.0,0.45,0.27016164409505505,0.1728186219982155,0.2116371369721367,0.8161018862335405,0.2099383920370505,0.25099006237298427
223,13.448,13.05,0.41,0.2704663956378755,0.1716837080565197,0.21068938961300165,0.8162062918531678,0.20830363041383212,0.2530298865582159
224,13.469,13.11,0.4,0.27075951323414826,0.17055230654299217,0.20974034951404907,0.8163207842161541,0.20667601648276304,0.25506518545498763
225,13.532,13.16,0.38,0.2710410261607864,0.16942494072784325,0.20879068039769416,0.8164453138017939,0.20505645085190544,0.2570947997303474
226,13.573,13.22,0.36,0.2713109786923795,0.1683021327373802,0.20784105761145297,0.8165798199384992,0.203445839907612,0.2591175803341884
227,13.654,13.27,0.36,0.2715694302857878,0.16718440307589869,0.2068921675894801,0.8167242307552492,0.20184509525016736,0.2611323892854906
228,13.695,13.33,0.39,0.27181645574830143,0.16607227015247128,0.20594470729552777,0.8168784631550648,0.20025513311786677,0.26313810044364117
229,13.817,13.38,0.37,0.2720521453888687,0.16496624981313057,0.20499938364781417,0.817042422810266,0.19867687379970306,0.2651336002645242
230,13.838,13.44,0.37,0.27227660515189644,0.16386685487890582,0.20405691292625155,0.817216004179265,0.19711124103680433,0.2671177885410777
231,13.879,13.49,0.4,0.2724899567331442,0.16277459469012096,0.20311802016247665,0.8173990905446101,0.19555916141277369,0.26908957912800435
232,13.92,13.55,0.4,0.27269233767725604,0.1616899746573112,0.20218343851314627,0.8175915540719243,0.19402156373311938,0.2710479006503206
233,13.96,13.6,0.38,0.27288390145648517,0.1606134958190787,0.2012539086169951,0.8177932558893323,0.19249937839401954,0.2729916971954454
234,14.023,13.66,0.4,0.2730648175301456,0.1595456544071997,0.20033017793619723,0.8180040461869288,0.19099353674072753,0.27491992898856066
235,14.066,13.71,0.41,0.2732352713843162,0.15848694141930006,0.19941300008264357,0.8182237643358286,0.18950497041600026,0.2768315730510103
236,14.148,13.77,0.38,0.2733954645513251,0.15743784219942838,0.19850313412984805,0.8184522390262912,0.18803461069899957,0.27872562384156646
237,14.21,13.82,0.37,0.27354561460854476,0.15639883602688553,0.19760134391130485,0.8186892884244062,0.186583387835176,0.2806010938804748
238,14.271,13.88,0.38,0.2736859551560096,0.155370395713715,0.19670839730620737,0.8189347203468411,0.18515223035769365,0.28245701435627524
239,14.292,13.93,0.35,0.27381673577236776,0.15435298721129767,0.1958250655134969,0.8191883324531981,0.18374206440098292,0.2842924357154659
240,14.354,13.99,0.33,0.2739382219487262,0.1533470692265125,0.19495212231522133,0.8194499124555809,0.1823538130070151,0.286106428235143
241,14.416,14.04,0.34,0.27405069500007523,0.15235309284789425,0.1940903433301651,0.8197192383450004,0.1809883954248822,0.28789808257876187
242,14.456,14.1,0.3,0.27415445195418564,0.15137150118213652,0.19324050525867323,0.8199960786342256,0.17964672640424748,0.2896665103351264
243,14.518,14.15,0.27,0.27424980541805216,0.15040272900116625,0.19240338511954674,0.8202801926166131,0.17832971548319676,0.2914108445406267
244,14.58,14.21,0.29,0.274337083422058,0.14944720239989304,0.19157975947982916,0.8205713306403544,0.1770382662709767,0.29313024018464073
245,14.622,14.26,0.3,0.2744166292420855,0.14850533846462383,0.19077040367824918,0.820869234397498,0.17577327572605086,0.2948238746978963
246,14.725,14.32,0.28,0.27448880119984287,0.14757754495202743,0.18997609104303845,0.8211736372270125,0.17453563342985204,0.29649094842350443
247,14.746,14.37,0.3,0.27455397244171514,0.14666421997847626,0.1891975921048151,0.8214842644311184,0.1733262208565784,0.29813068507033624
248,14.787,14.43,0.32,0.2746125306964629,0.14576575171959308,0.1884356738052204,0.8218008336041231,0.1721459106393826,0.29974233214842194
249,14.89,14.48,0.3,0.2746648780120795,0.14488251811990227,0.18769109870202322,0.8221230549730267,0.17099556583333805,0.3013251613861066
250,14.91,14.54,0.3,0.27471143047205565,0.14401488661259326,0.18696462417144655,0.8224506317492376,0.16987603917561336,0.3028784691287737
251,14.972,14.59,0.34,0.2747526178912331,0.1431632138495132,0.1862570016085084,0.8227832604908056,0.16878817234334603,0.3044015767190174
252,15.013,14.65,0.32,0.27478888349141345,0.14232784544154847,0.18556897562621066,0.8231206314746345,0.16773279520977288,0.3058938308581939
253,15.074,14.7,0.3,0.2748206835569502,0.14150911570951785,0.18490128325444624,0.8234624290781302,0.16671072509923796,0.3073546039493214
254,15.115,14.76,0.31,0.27484848707065235,0.14070734744561078,0.18425465313953482,0.8238083321697031,0.16572276604176286,0.30878329442132324
255,15.177,14.81,0.31,0.27487277533042126,0.13992285168531507,0.18362980474533783,0.8241580145074638,0.16476970802792737,0.3101793270346303
256,15.259,14.87,0.27,0.2748940415470957,0.1391559274897252,0.1830274475569351,0.8245111451453631,0.16385232626484594,0.31154215316820777
257,15.28,14.92,0.28,0.2749127904239606,0.13840686173812863,0.1824482802878597,0.8248673888459852,0.16297138043404902,0.3128712510881336
258,15.342,14.98,0.27,0.2749295377183303,0.1376759289308051,0.181892990091886,0.8252264064992108,0.162127613952086,0.3141661261979061
259,15.402,15.03,0.23,0.2749448097855789,0.13696339100201635,0.18136225178035864,0.8255878555460001,0.16132175323466053,0.3154263112706922
260,15.463,15.09,0.21,0.27495914310595904,0.13626949714319608,0.18085672704603117,0.8259513904066013,0.16055450696508783,0.31665136666373817
261,15.504,15.14,0.23,0.27497308379451935,0.13559448363637183,0.18037706369434853,0.826316662912517,0.15982656536782408,0.3178408805151584
262,15.566,15.2,0.22,0.2749871870944296,0.13493857369784257,0.1799238948830606,0.8266833227415659,0.15913859948775932,0.3189944689232851
263,15.609,15.25,0.21,0.2750020168540384,0.13430197733208687,0.17949783837099748,0.8270510178553233,0.15849126047590356,0.32011177610871866
264,15.67,15.31,0.23,0.2750181449880144,0.13368489119581933,0.17909949577678552,0.8274193949381631,0.15788517888205073,0.3211924745591699
265,15.731,15.36,0.23,0.2750361509229551,0.13308749847205498,0.1787294518482626,0.8277880998370453,0.15732096395500092,0.32223626515712317
266,15.772,15.42,0.21,0.27505662102788747,0.13250996875400878,0.17838827374335345,0.828156778001132,0.15679920295093383,0.3232428772903336
267,15.833,15.47,0.27,0.2750801480300909,0.13195245793866534,0.17807651032318025,0.8285250749203047,0.15632046045055792,0.3242120689451857
268,15.895,15.53,0.28,0.2751073304166612,0.13141510812990453,0.1777946914582066,0.8288926365616888,0.15588527768569524,0.3251436267829705
269,16.02,15.58,0.25,0.27513877182220847,0.13089804755114026,0.17754332734824757,0.8292591098033243,0.15549417187601827,0.3260373661991228
270,16.061,15.64,0.25,0.27517508040304295,0.13040139046751667,0.177322907857211,0.829624142864183,0.15514763557673628,0.32689313136536186
271,16.081,15.69,0.26,0.27521686819817337,0.1299252371177877,0.17713390186345743,0.8299873857297861,0.15484613603812347,0.3277107952545043
272,16.123,15.75,0.22,0.27526475047745946,0.12946967365605,0.17697675662667733,0.8303484905727068,0.1545901145778569,0.32849025964755807
273,16.184,15.8,0.19,0.27531934507731876,0.12903477210349393,0.17685189717217506,0.8307071121672381,0.15437998596716263,0.32923145512258783
274,16.245,15.86,0.18,0.27538127172448124,0.12862059031028464,0.17675972569342027,0.8310629082974634,0.15421613783176424,0.3299343410247592
275,16.286,15.91,0.16,0.275451151348405,0.1282271719275906,0.1767006209736818,0.8314155401578991,0.15409893006859063,0.3305989054168777
276,16.389,15.97,0.14,0.275529605383067,0.12785454638966956,0.17667493782749402,0.8317646727458167,0.1540286942791301,0.33122516500968385
277,16.409,16.02,0.16,0.27561725505888773,0.1275027289058404,0.17668300656262212,0.8321099752443022,0.1540057332202275,0.3318131650711448
278,16.451,16.08,0.18,0.2757147206855546,0.12717172046212477,0.17672513246311056,0.8324511213951021,0.15403032027303187,0.3323629793139974
279,16.493,16.13,0.16,0.27582262092647647,0.12686150783235112,0.17680159529393652,0.8327877898603115,0.15410269893073691,0.3328747097608282
280,16.555,16.19,0.16,0.2759415720655498,0.12657206359858278,0.17691264882774976,0.8331196645720179,0.1542230823057321,0.3333484865860203
281,16.619,16.24,0.19,0.27607218726684013,0.12630334618084943,0.17705852039417558,0.8334464350691051,0.15439165265679403,0.3337844679339474
282,16.659,16.3,0.17,0.2762150758277287,0.1260552998762866,0.17723941045216407,0.8337677968205284,0.15460856093697203,0.3341828397128681
283,16.721,16.35,0.16,0.27637084242602594,0.12582785490790227,0.17745549218588083,0.8340834515344995,0.15487392636284666,0.3345438153640729
284,16.783,16.41,0.19,0.2765400863615296,0.1256209274832595,0.17770691112462933,0.8343931074531559,0.155187836005864,0.3348676356059189
285,16.824,16.46,0.17,0.27672340079254737,0.12543441986335355,0.17799378478729394,0.8346964796323663,0.1555503444064744,0.335154568152446
286,16.886,16.52,0.14,0.2769213719680246,0.12526822044187355,0.17831620235179876,0.8349932902063366,0.15596147321182838,0.3354049074063079
287,16.948,16.57,0.15,0.27713457845605816,0.1251222038349156,0.17867422435008068,0.8352832686366695,0.15642121083780067,0.3356189741257747
288,17.012,16.63,0.14,0.2773635903697256,0.12499623098109454,0.17906788238907773,0.8355661519455279,0.1569295121561214,0.33579711506557003
289,17.094,16.68,0.1,0.2776089685912912,0.12489014925190312,0.17949717889822345,0.835841684932588,0.15748629820737486,0.3359397025913236
290,17.115,16.74,0.08,0.27787126399594736,0.12480379257210403,0.1799620869039099,0.8361096203755092,0.1580914559405834,0.33604713426746374
291,17.157,16.79,0.08,0.27815101667631814,0.12473698154990458,0.18046254983133245,0.8363697192137148,0.15874483798002317,0.3361198324184448
292,17.218,16.85,0.05,0.27844875516898926,0.12468952361664333,0.18099848133405738,0.8366217507153407,0.15944626241982485,0.33615824366329355
293,17.259,16.9,0.04,0.2787649956843193,0.12466121317572104,0.1815697651515597,0.8368654926272623,0.16019551264679452,0.3361628384235614
294,17.32,16.96,0.08,0.27910024134073563,0.12465183176052089,0.1821762549948694,0.837100731308168,0.160992337191768,0.33613411040486124
295,17.38,17.01,0.09,0.27945498140468134,0.12466114820105519,0.18281777446037104,0.8373272618446513,0.1618364496097077,0.3360725760522591
296,17.464,17.07,0.09,0.27982969053737294,0.12468891879904188,0.18349411697173332,0.8375448881502772,0.16272752838868051,0.3359787739798768
297,17.484,17.12,0.11,0.28022482804953297,0.12473488751107649,0.18420504574991356,0.8377534230475471,0.16366521688783137,0.3358532643751348
298,17.546,17.18,0.13,0.2806408371652744,0.12479878613953382,0.18495029381117892,0.8379526883326635,0.16464912330448908,0.3356966283780996
299,17.587,17.23,0.11,0.2810781442963192,0.12488033453082163,0.1857295639931051,0.8381425148229785,0.1656788206705833,0.33550946743643856
300,17.65,17.29,0.13,0.28153715832771903,0.1249792407806294,0.18654252900853519,0.8383227423870451,0.16675384687860154,0.335292402636538
301,17.711,17.34,0.14,0.2820182699162117,0.12509520144587447,0.18738883152750482,0.8384932199572466,0.16787370473736093,0.3350460740114162
302,17.753,17.4,0.12,0.2825218508023111,0.1252279017631299,0.18826808428716485,0.838653805525074,0.16903786205790527,0.3347711398261497
303,17.836,17.45,0.11,0.2830482531371678,0.12537701587342107,0.18917987022974642,0.8388043661192183,0.17024575176986528,0.33446827584162026
304,17.876,17.51,0.12,0.2835978088251764,0.12554220705336633,0.19012374266862092,0.8389447777667371,0.17149677206863015,0.3341381745574414
305,17.939,17.56,0.1,0.28417082888326717,0.12572312795267648,0.1910992254824947,0.8390749254376109,0.17279028659367415,0.3337815444349522
306,18.001,17.62,0.08,0.28476760281780517,0.12591942083801008,0.1921058133377484,0.8391947029730207,0.17412562463834524,0.3333991091011758
307,18.022,17.67,0.08,0.285388398020015,0.1261307178431226,0.19314297193887092,0.8393040129976764,0.17550208139136733,0.33299160653463394
308,18.084,17.73,0.09,0.28603345918085193,0.12635664122516577,0.19421013830686548,0.8394027668164928,0.17691891821023872,0.33255978823386273
309,18.188,17.78,0.07,0.28670300772622737,0.1265968036269127,0.1953067210854131,0.8394908842958567,0.17837536292662876,0.332104418369398
310,18.208,17.84,0.09,0.2873972412734347,0.1268508083446494,0.19643210087447704,0.8395682937297354,0.1798706101837948,0.3316262729199185
311,18.29,17.89,0.11,0.28811633310952156,0.12711824960148926,0.1975856305909302,0.8396349316909467,0.18140382180597853,0.3311261387931848
312,18.31,17.95,0.09,0.288860431692253,0.12739871282592946,0.19876663585571513,0.8396907428680687,0.1829741271996987,0.3306048129324229
313,18.372,18.0,0.1,0.2896296601742296,0.12769177493555112,0.19997441540699878,0.8397356798886991,0.1845806237868357,0.33006310140888645
314,18.412,18.06,0.13,0.29042411595069834,0.12799700462582297,0.20120824153877256,0.8397697031300085,0.18622237746939432,0.32950181850146026
315,18.474,18.11,0.12,0.29124387023164017,0.1283139626639701,0.20246736056436246,0.8397927805176958,0.18789842312582236,0.3289217857643037
316,18.556,18.17,0.11,0.2920889676387991,0.128642202187822,0.20375099330434537,0.8398048873145205,0.18960776513875613,0.32832383108365176
317,18.597,18.22,0.14,0.29295942582840206,0.12898126900948073,0.20505833559839037,0.8398060058995918,0.1913493779540598,0.327708787724955
318,18.638,18.28,0.14,0.29385523514039746,0.1293307019235609,0.20638855884055707,0.839796125539586,0.19312220667103094,0.32707749337154685
319,18.699,18.33,0.12,0.294776358275082,0.12969003301967705,0.20774081053757437,0.8397752421530668,0.19492516766364368,0.3264307891559931
320,18.761,18.39,0.13,0.29572272999797256,0.13005878799882098,0.20911421488960086,0.8397433580690857,0.19675714923269821,0.32576951868522874
321,18.824,18.44,0.12,0.2966942568737202,0.13043648649326908,0.2105078733929377,0.8397004817812478,0.19861701228873552,0.32509452706053676
322,18.948,18.5,0.08,0.29769081702978917,0.13082264238969052,0.21192086546413863,0.8396466276984346,0.20050359106554455,0.32440665989340506
323,18.969,18.55,0.09,0.29871225995054107,0.13121676415517255,0.21335224908492462,0.8395818158934107,0.20241569386403194,0.3237067623183213
324,18.99,18.61,0.12,0.29975840630230116,0.13161835516592169,0.21480106146726535,0.8395060718505872,0.2043521038261396,0.3229956780036136
325,19.032,18.66,0.11,0.3008290477899564,0.13202691403841094,0.2162663197379572,0.839419426214165,0.20631157973840086,0.3222742481614938
326,19.073,18.72,0.11,0.3019239470456264,0.1324419349627399,0.21774702164202003,0.8393219145377115,0.20829285686463556,0.32154331055850544
327,19.138,18.77,0.15,0.3030428375499245,0.1328629080379576,0.21924214626426103,0.8392135770359525,0.2102946478072288,0.32080369852759205
328,19.198,18.83,0.15,0.3041854235863149,0.1332893196090656,0.22075065476839242,0.8390944583393258,0.21231564339641276,0.32005623998299254
329,19.302,18.88,0.15,0.3053513802290798,0.1337206526053626,0.22227149115312284,0.8389646072516979,0.21435451360696328,0.3193017564391608
330,19.323,18.94,0.18,0.30654035336543367,0.1341563868797283,0.22380358302466608,0.8388240765115793,0.21640990850173392,0.3185410620348866
331,19.364,18.99,0.18,0.307751959752381,0.13459599954837245,0.22534584238514238,0.8386729225571646,0.2184804592014679,0.3177749625637646
332,19.405,19.05,0.16,0.3089857871089738,0.1350389653305212,0.22689716643639202,0.8385112052954911,0.22056477888034856,0.3170042545121478
333,19.466,19.1,0.15,0.3102413942446046,0.13548475688753908,0.22845643839876714,0.8383389878760295,0.22266146378675497,0.31622972410573347
334,19.528,19.16,0.16,0.31151831122382795,0.1359328451611092,0.23002252834450662,0.8381563364690452,0.2247690942886809,0.31545214636597485
335,19.569,19.21,0.13,0.3128160395679784,0.13638269971027805,0.2315942940453243,0.8379633200491057,0.22688623594323143,0.3146722841775835
336,19.653,19.27,0.12,0.31413405249362975,0.13683378904732924,0.23317058183383585,0.8377600101841516,0.22901144058953282,0.31389088736848675
337,19.692,19.32,0.13,0.31547179518777974,0.13728558097253624,0.23475022747841362,0.8375464808305887,0.231143247464293,0.3131086918036789
338,19.734,19.38,0.12,0.31682868511956347,0.13773754290784096,0.23633205707099458,0.8373228081348789,0.2332801843391352,0.31232641849440756
339,19.794,19.43,0.11,0.3182041123882552,0.1381891422294474,0.23791488792728585,0.8370890702420678,0.2354207686787098,0.31154477272407555
340,19.856,19.49,0.14,0.3195974401072794,0.13863984659923692,0.23949752949872802,0.8368453471115793,0.2375635088184717,0.31076444319213115
341,19.919,19.54,0.16,0.3210080048239222,0.13908912429482834,0.24107878429551535,0.8365917203404185,0.239706905160904,0.30998610117711833
342,20.041,19.6,0.15,0.32243511697440774,0.13953644453803024,0.24265744881994752,0.8363282729936948,0.24184945138888858,0.30921039971999975
343,20.061,19.65,0.19,0.32387806137397107,0.13998127782140057,0.24423231450939445,0.8360550894421989,0.2439896356948729,0.30843797282887175
344,20.081,19.71,0.21,0.32533609774150274,0.140423096232643,0.24580216868818505,0.8357722552066842,0.24612594202447002,0.30766943470621644
345,20.122,19.76,0.22,0.32680846125828,0.1408613737766188,0.24736579552778132,0.8354798568084829,0.24825685133313918,0.3069053789998642
346,20.226,19.82,0.23,0.32829436316023797,0.14129558669481895,0.24892197701465674,0.8351779816261021,0.25038084285462175,0.3061463780788518
347,20.247,19.87,0.26,0.32979299136319046,0.14172521378220004,0.25046949392535284,0.8348667177574862,0.25249639537984314,0.30539298233533607
348,20.307,19.93,0.25,0.3313035111204115,0.14214973670130918,0.25200712680823534,0.8345461538876429,0.2546019885450288,0.3046457195136539
349,20.41,19.98,0.24,0.33282506571202014,0.14256864029359265,0.2535336569715004,0.8342163791613217,0.25669610412781074,0.30390509406752636
350,20.43,20.04,0.26,0.3343567771656562,0.1429814128877162,0.25504786747698116,0.8338774830604224,0.25877722735011494,0.30317158654629
351,20.472,20.09,0.26,0.3358977470079821,0.14338754660463904,0.25654854413928646,0.8335295552857979,0.2608438481866146,0.3024456530109225
352,20.513,20.15,0.23,0.337447057046559,0.14378653765910823,0.25803447652976214,0.8331726856431325,0.26289446267750677,0.3017277244805363
353,20.575,20.2,0.23,0.3390037701816016,0.1441778866572112,0.25950445898469726,0.8328069639326298,0.2649275742443186,0.3010182064099357
354,20.635,20.26,0.24,0.3405669312469951,0.14456109888964586,0.26095729161710546,0.8324324798423761,0.2669416950073844,0.30031747819876553
355,20.697,20.31,0.23,0.34213556787978194,0.14493568462044,0.2623917813313046,0.8320493228453963,0.26893534710354866,0.2996258927327284
356,20.759,20.37,0.24,0.3437086914171106,0.145301159370956,0.263806742839404,0.8316575821005754,0.27090706400254727,0.2989437759573246
357,20.78,20.42,0.29,0.3452852978194437,0.14565704419912037,0.26520099967871597,0.8312573463577116,0.2728553918204224,0.29827142648456106
358,20.842,20.48,0.28,0.346864368618685,0.14600286597388318,0.2665733852290464,0.8308487038669727,0.2747788906282571,0.2976091152330804
359,20.904,20.53,0.29,0.3484448718897956,0.1463381576449592,0.26792274372878927,0.8304317422929859,0.2766761357544768,0.296957085102176
360,20.965,20.59,0.34,0.3500257632444066,0.14666245850791812,0.26924793128874347,0.8300065486337476,0.27854571907896725,0.29631555068015364
361,21.006,20.64,0.36,0.351605986844908,0.14697531446468065,0.27054781690257645,0.8295732091444833,0.28038625031727993,0.29568469798747726
362,21.067,20.7,0.36,0.3531844764375108,0.1472762782794261,0.2718212834528838,0.8291318092665093,0.28219635829323364,0.29506468425509963
363,21.129,20.75,0.39,0.35476015640281733,0.1475649098298585,0.27306722871181405,0.8286824335610798,0.28397469219827,0.2944556377383377
364,21.211,20.81,0.41,0.35633194282248093,0.14784077635373294,0.2742845663352627,0.8282251656481252,0.2857199228359895,0.2938576575665809
365,21.232,20.86,0.38,0.35789874456055326,0.14810345269053807,0.2754722268496844,0.8277600881496926,0.2874307438503604,0.293270813629055
366,21.273,20.92,0.4,0.3594594643580503,0.14835252151829167,0.27662915863061244,0.827287282637835,0.28910587293614604,0.2926951464968208
367,21.355,20.97,0.41,0.3610129999391451,0.14858757358551808,0.27775432887200896,0.8268068295866648,0.29074405303012435,0.2921306673811622
368,21.417,21.03,0.39,0.36255824512726875,0.14880820793857985,0.27884672454558257,0.8263188083283026,0.2923440534816719,0.29157735812851343
369,21.439,21.08,0.38,0.3640940909693126,0.14901403214460454,0.2799053533491939,0.8258232970124794,0.2939046712012591,0.29103517125207284
370,21.522,21.14,0.42,0.365619426866051,0.14920466251026968,0.2809292446434242,0.8253203725695765,0.29542473178536705,0.2905040300002099
371,21.563,21.19,0.43,0.36713314170688477,0.14937972429667193,0.28191745037530563,0.8248101106768811,0.2969030906162825,0.28998382846168846
372,21.605,21.25,0.43,0.3686341250070172,0.14953885193042438,0.2828690459881216,0.8242925857277841,0.2983386339351829,0.2894744317076146
373,21.668,21.3,0.47,0.3701212680452116,0.14968168921101954,0.2837831313161092,0.8237678708035618,0.2997302798868923,0.28897567596987844
374,21.709,21.36,0.5,0.3715934650003419,0.14980788951440296,0.2846588314628574,0.8232360376472768,0.30107697953470525,0.28848736885572795
375,21.772,21.41,0.49,0.3730496140849984,0.1499171159926452,0.2854952976622149,0.8226971566392038,0.30237771784371675,0.28800928959803096
376,21.874,21.47,0.52,0.374488618674415,0.15000904176961355,0.2862917081205676,0.8221512967731207,0.30363151463116694,0.28754118934076595
377,21.894,21.52,0.55,0.37590938842896504,0.15008335013260388,0.2870472688394083,0.8215985256327862,0.30483742548238574,0.28708279145931903
378,21.937,21.58,0.56,0.3773108404084633,0.15013973471996914,0.28776121441718316,0.8210389093679772,0.3059945426310059,0.2866337919152215
379,21.999,21.63,0.56,0.37869190017650056,0.15017789970486473,0.2884328088294565,0.8204725126695228,0.30710199580219033,0.28619385964503236
380,22.06,21.69,0.6,0.38005150289302875,0.15019755997531153,0.28906134618647367,0.8198993987428557,0.30815895301770585,0.28576263698309173
381,22.122,21.74,0.59,0.3813885943934237,0.15019844131082272,0.28964615146724243,0.8193196292796224,0.30916462136176215,0.2853397401178368
382,22.182,21.8,0.58,0.3827021322522927,0.15018028055583,0.2901865812292754,0.8187332644268787,0.31011824770661706,0.2849247595812791
383,22.243,21.85,0.59,0.38399108683035976,0.15014282579007962,0.29068202429315104,0.8181403627533335,0.3110191193970162,0.2845172607711179
384,22.285,21.91,0.59,0.3852544423028545,0.1500858364960667,0.29113190240105347,0.8175409812120301,0.31186656489258613,0.2841167845048279
385,22.345,21.96,0.58,0.3864911976679188,0.15000908372347388,0.29153567084844006,0.8169351750987669,0.3126599543673174,0.2837228476049691
386,22.386,22.02,0.62,0.38770036773360683,0.14991235025050112,0.2918928190879571,0.816322998005533,0.31339870026527133,0.2833349435149121
387,22.426,22.07,0.65,0.38888098408208993,0.14979543074193136,0.2922028713046894,0.8157045017682484,0.31408225781163474,0.282952542944152
388,22.509,22.13,0.66,0.3900320960097195,0.14965813190375138,0.29246538696180174,0.8150797364081727,0.3147101254782628,0.2825750945423784
389,22.613,22.18,0.68,0.39115277144164823,0.1495002726341526,0.2926799613156144,0.814448750066559,0.3152818454029,0.28220202560148744
390,22.634,22.24,0.74,0.3922420978197598,0.14932168417077288,0.2928462258991353,0.8138115889325347,0.315797003761368,0.28183274278474085
391,22.694,22.29,0.74,0.3932991829627447,0.14912221023407032,0.2929638489730704,0.8131682971646751,0.3162552310921385,0.2814666328822927
392,22.714,22.35,0.74,0.3943231558972747,0.14890170716673562,0.2930325359433567,0.8125189168071146,0.3166562025728537,0.28110306359230497
393,22.755,22.4,0.79,0.39531316765935054,0.14866004406902927,0.2930520297443239,0.8118634877011923,0.3169996382485139,0.2807413843268482
394,22.815,22.46,0.8,0.3962683920650169,0.1483971029298995,0.2930221111866752,0.8112020473936299,0.3172853032112111,0.2803809270417374
395,22.898,22.51,0.79,0.3971880264497319,0.14811277875370585,0.2929425992695675,0.8105346310421704,0.3175130077314377,0.28002100708941774
396,22.98,22.57,0.81,0.3980712923757328,0.1478069796823642,0.29281335145616105,0.8098612713195611,0.31768260734114606,0.2796609240939772
397,23.001,22.62,0.81,0.39891743630678284,0.1474796271127366,0.29263426391209296,0.8091819983167194,0.317794002868873,0.27929996284731473
398,23.041,22.68,0.77,0.3997257302497248,0.1471306558091133,0.2924052717064201,0.8084968394459087,0.3178471404273619,0.27893739422545183
399,23.101,22.73,0.77,0.4004954723622846,0.14676001401068803,0.2921263489746442,0.8078058193447556,0.31784201135420337,0.2785724761239661
400,23.142,22.79,0.77,0.40122598752655325,0.14636766353400915,0.29179750904348406,0.8071089597819923,0.31777865210606876,0.2782044544115275
401,23.203,22.84,0.74,0.40191662788757065,0.14595357987045932,0.29141880451708646,0.8064062795658503,0.3176571441071365,0.277832563900527
402,23.266,22.9,0.74,0.40256677335640767,0.14551775227887484,0.29099032732436797,0.8056977944560629,0.3174776135522981,0.2774560293337631
403,23.327,22.95,0.78,0.40317583207711305,0.1450601838734569,0.2905122087271556,0.80498351708044,0.3172402311657126,0.2770740663860832
404,23.369,23.01,0.78,0.40374324085686975,0.1445808917071234,0.289984619288753,0.8042634568569448,0.3169452119152592,0.27668588267975236
405,23.429,23.06,0.78,0.40426846555873064,0.14407990685039954,0.28940776880253233,0.8035376199221442,0.31659281468343736,0.2762906788121995
406,23.47,23.12,0.82,0.40475100145635673,0.14355727446587574,0.2887819061801554,0.8028060090668344,0.3161833418953121,0.2758876493946851
407,23.533,23.17,0.83,0.40519037355028426,0.1430130538781977,0.2881073192990989,0.802068623679568,0.3157171391041847,0.2754759841003701
408,23.594,23.23,0.82,0.4055861368453845,0.1424473186395105,0.2873843348092755,0.8013254596987349,0.31519459453578713,0.2750548687202526
409,23.654,23.28,0.85,0.40593787658933805,0.14186015659026463,0.2866133178986897,0.8005765095738021,0.3146161385919244,0.2746234862254865
410,23.715,23.34,0.85,0.4062452084720876,0.14125166991531074,0.28579467201821257,0.7998217622363302,0.31398224331462615,0.27418101783467647
411,23.756,23.39,0.82,0.4065077787863405,0.14062197519526043,0.28492883856570156,0.7990612030814276,0.3132934218119965,0.27372664408484404
412,23.819,23.45,0.82,0.40672526454921815,0.13997120345318922,0.284016296529819,0.7982948139603749,0.3125502276470579,0.27325954590486307
413,23.86,23.5,0.84,0.4068973735851371,0.13929950019686463,0.28305756209400557,0.7975225731852258,0.3117532541909729,0.27277890569024615
414,23.921,23.56,0.81,0.40702384457002416,0.13860702545674142,0.282053188201167,0.7967444555461887,0.31090313394208147,0.27228390837821453
415,23.984,23.61,0.78,0.4071044470371109,0.13789395381991554,0.28100376407973365,0.7959604323424239,0.3100005378122361,0.27177374252201053
416,24.085,23.67,0.78,0.4071389813447806,0.13716047446008037,0.27990991473187515,0.7951704714265048,0.30904617438194115,0.27124760136338977
417,24.106,23.72,0.76,0.4071272786072154,0.13640679116333787,0.2787723003847775,0.7943745372622945,0.3080407891258244,0.27070468390219016
418,24.167,23.78,0.71,0.40706920058879315,0.1356331223495626,0.27759161590598647,0.7935725909955618,0.3069851636099563,0.2701441959618343
419,24.23,23.83,0.71,0.40696463956327994,0.13483970108893803,0.27636859018385074,0.7927645905364727,0.30588011466249987,0.269565351249613
420,24.251,23.89,0.72,0.40681351813888084,0.1340267751132713,0.27510398547408105,0.7919504906530694,0.3047264935191129,0.2689673724105975
421,24.312,23.94,0.7,0.406615789050192,0.1331946068217129,0.27379859671339196,0.791130243074917,0.30352518494444936,0.2683494920740385
422,24.354,24.0,0.7,0.4063714349180499,0.1323434732805514,0.27245325080114235,0.7903037966061989,0.30227710633103094,0.26771095389111726
423,24.435,24.05,0.73,0.4060804679782186,0.13147366621681525,0.2710688058498468,0.7894710972476527,0.3009832067767125,0.2670510135628941
424,24.477,24.11,0.71,0.4057429297798355,0.1305854920054612,0.26964615040542994,0.7886320883268285,0.2996444661419554,0.266368939857272
425,24.517,24.16,0.7,0.4053588908545543,0.12967927164995668,0.268186202638131,0.7877867106361721,0.2982618940881457,0.2656640156137768
426,24.579,24.22,0.73,0.4049284503573624,0.12875534075606102,0.26668990950502375,0.7869349025784305,0.29683652909823116,0.26493553873495523
427,24.642,24.27,0.73,0.4044517356800957,0.12781404949859698,0.2651582458851935,0.7860766003188222,0.29536943748100286,0.2641828231631989
428,24.683,24.33,0.7,0.40392890203871074,0.12685576258098438,0.2635922136886789,0.7852117379433822,0.2938617123603941,0.26340519984183314
429,24.745,24.38,0.71,0.40336013203537346,0.12588085918732445,0.2619928409403532,0.7843402476228741,0.2923144726512251,0.26260201765934155
430,24.806,24.44,0.7,0.4027456351964005,0.12488973292687479,0.26036118083997367,0.7834620597817038,0.2907288620228785,0.2617726443756261
431,24.869,24.49,0.66,0.4020856474870595,0.12388279177083096,0.25869831079968897,0.7825771032713091,0.28910604785243194,0.2609164675292407
432,24.91,24.55,0.64,0.4013804308041883,0.12286045798142448,0.257005331460337,0.7816853055475788,0.2874472201687878,0.2600328953246121
433,24.972,24.6,0.63,0.4006302724475342,0.12182316803344048,0.25528336568790155,0.7807865928519252,0.2857535905893203,0.2591213574983402
434,25.034,24.66,0.59,0.39983548457065693,0.12077137252833561,0.2535335575515008,0.7798808903957043,0.2840263912505071,0.2581813061637626
435,25.096,24.71,0.58,0.3989964036121603,0.11970553610119478,0.25175707128426095,0.7789681225477151,0.282266873733931,0.2572122166330356
436,25.176,24.77,0.61,0.39811338970794946,0.11862613732078774,0.249955090228376,0.7780482130245391,0.2804763079889428,0.2562135882160095
437,25.197,24.82,0.6,0.397186826085159,0.11753366858296126,0.2481288157655908,0.7771210850834367,0.278655981253185,0.2551849449951418
438,25.239,24.88,0.59,0.39621711843838786,0.11642863599753826,0.2462794662342941,0.776186661717434,0.2768071969721109,0.2541258365756258
439,25.322,24.93,0.61,0.39520469428888366,0.11531155926882847,0.24440827583439123,0.7752448658521409,0.27493127371859877,0.25303583880985187
440,25.362,24.99,0.62,0.3941500023273814,0.11418297156978718,0.2425164935211572,0.7742956205437466,0.2730295441137693,0.2519145544953041
441,25.403,25.04,0.6,0.393053511741418,0.1130434194098039,0.24060538188934205,0.7733388491775866,0.27110335375014033,0.2507616140450398
442,25.465,25.1,0.61,0.39191571152805643,0.11189346249607773,0.23867621604887604,0.7723744756666833,0.26915406011829407,0.24957667612997883
443,25.545,25.15,0.62,0.39073710979303367,0.11073367358855929,0.23673028249358571,0.7714024246497413,0.26718303153828143,0.24835942829230634
444,25.566,25.21,0.6,0.38951823303742567,0.10956463834847284,0.23476887796438706,0.770422621688185,0.26519164609704254,0.24710958752935097
445,25.628,25.26,0.58,0.3882596254330371,0.10838695518045786,0.23279330830845743,0.7694349934619366,0.26318129059316536,0.24582690084734435
446,25.67,25.32,0.59,0.38696184808791056,0.10720123506835738,0.23080488733590837,0.7684394679637255,0.2611533594903401,0.24451114578449162
447,25.731,25.37,0.57,0.38562547830357935,0.10600810140463136,0.22880493567549257,0.7674359746917481,0.2591092538808859,0.2431621309027669
448,25.794,25.43,0.51,0.3842511088258615,0.1048081898132992,0.22679477963087052,0.7664244448404913,0.25705038046072276,0.24177969624780143
449,25.855,25.48,0.51,0.38283934709107736,0.10360214796624016,0.2247757500389428,0.7654048114894819,0.25497815051714073,0.24036371377616378
450,25.896,25.54,0.48,0.3813908144696095,0.10239063539260006,0.22274918113172035,0.7643770097896597,0.2528939789306684,0.23891408774926884
451,25.957,25.59,0.42,0.3799061455087244,0.10117432328097564,0.22071640940317186,0.7633409771469981,0.2507992831922533,0.23743075509314757
452,26.019,25.65,0.42,0.3783859871765401,0.0999538942740085,0.21867877248244147,0.7622966534029472,0.24869548243683864,0.23591368572335547
453,26.081,25.7,0.43,0.37683099810893084,0.09873004225502606,0.21663760801477816,0.7612439810112609,0.24658399649427437,0.23436288283436074
454,26.124,25.76,0.41,0.3752418478610556,0.0975034721264031,0.21459425255144915,0.7601829052107745,0.24446624495834854,0.23277838315282862
455,26.187,25.81,0.41,0.3736192161650694,0.09627489957938261,0.21255004044984183,0.7591133741937164,0.24234364627459434,0.2311602571543042
456,26.269,25.87,0.44,0.371963792195445,0.09504505085518054,0.2105063027849102,0.7580353392691854,0.24021761684744267,0.22950860924289004
457,26.289,25.92,0.43,0.37027627384321943,0.09381466249728371,0.20846436627310347,0.7569487550214616,0.2380895701672476,0.22782357789360708
458,26.351,25.98,0.41,0.3685573670003998,0.09258448109490962,0.2064255522099183,0.7558535794628483,0.23596091595769683,0.22610533575721353
459,26.392,26.03,0.44,0.3668077848557295,0.09135526301761537,0.20439117542222748,0.7547497741807515,0.23383305934412468,0.22435408972731966
460,26.454,26.09,0.43,0.36502824720304794,0.0901277741410014,0.20236254323655947,0.7536373044786607,0.23170740004326057,0.22257008096966252
461,26.517,26.14,0.4,0.3632194797635303,0.0889027895633928,0.2003409544645189,0.7525161395106535,0.22958533157496677,0.22075358491343758
462,26.557,26.2,0.4,0.36138221352310435,0.08768109331335029,0.1983276984065459,0.7513862524090517,0.22746824049653483,0.21890491120462574
463,26.66,26.25,0.4,0.3595171840862993,0.08646347804788165,0.19632405387521132,0.75024762040491,0.22535750566011936,0.2170244036213277
464,26.701,26.31,0.36,0.3576251310477162,0.08525074474127547,0.19433128823924298,0.7491002249410859,0.22325449749387702,0.2151124399512222
465,26.722,26.36,0.34,0.3557067973822103,0.0840437023645581,0.19235065648946206,0.7479440517777184,0.22116057730733737,0.21316943183139855
466,26.784,26.42,0.34,0.3537629288547676,0.0828431675556611,0.19038340032777562,0.7467790910900285,0.21907709662147742,0.21119582455094008
467,26.846,26.47,0.29,0.351794273450976,0.08164996428044335,0.1884307472803262,0.7456053375584013,0.217005396523891,0.20919209681673792
468,26.907,26.53,0.26,0.3498015808289259,0.08046492348472326,0.18649390983583974,0.7444227904507162,0.21494680704934438,0.2071587604830828
469,26.947,26.58,0.27,0.3477856017933166,0.07928888273745316,0.1845740846101366,0.7432314536968622,0.21290264658589259,0.20509636024559405
470,27.009,26.64,0.27,0.3457470877924549,0.07812268586514073,0.18267245153768005,0.7420313359552895,0.21087422130660094,0.2030054733000101
471,27.07,26.69,0.25,0.3436867904386985,0.07696718257761546,0.18079017309093362,0.7408224506713619,0.20886282462678293,0.20088670896631014
472,27.131,26.75,0.27,0.34160546105272843,0.07582322808526887,0.1789283935281892,0.7396048161271976,0.2068697366865535,0.1987407082785868
473,27.173,26.8,0.28,0.3395038502318749,0.07469168270795301,0.1770882381704546,0.7383784554826389,0.2048962238584249,0.19656814354106852
474,27.234,26.86,0.26,0.33738270744260945,0.07357341147578605,0.17527081270795597,0.7371433968069608,0.20294353827963457,0.1943697178507356
475,27.275,26.91,0.27,0.3352427806372281,0.0724692837221912,0.17347720253681123,0.7358996731009686,0.2010129174088838,0.19214616458707653
476,27.336,26.97,0.3,0.33308481589466643,0.07138017266958219,0.17170847212643883,0.734647322309212,0.19910558360716712,0.18989824686965884
477,27.378,27.02,0.27,0.33090955708530395,0.07030695500819513,0.1699656644182711,0.7333863873221506,0.19722274374238175,0.18762675698431064
478,27.44,27.08,0.27,0.32871774555949373,0.0692505104686577,0.1682498002563337,0.7321169159682025,0.1953655888174163,0.18533251577881987
479,27.503,27.13,0.3,0.32651011985941436,0.06821172138896385,0.16656187785022597,0.7308389609956961,0.19353529362143254,0.1830163720291131
480,27.545,27.19,0.27,0.3242874154537262,0.06719147227655649,0.16490287227100245,0.7295525800447805,0.19173301640407678,0.18067920177687466
481,27.605,27.24,0.24,0.32205036449445124,0.06619064936619623,0.1632737349804053,0.7282578356093641,0.1899598985723716,0.1783219076395171
482,27.687,27.3,0.24,0.3197996955954875,0.06521014017421778,0.16167539339382747,0.7269547949891481,0.18821706441004316,0.17594541809335845
483,27.747,27.35,0.22,0.3175361336322198,0.0642508330496565,0.16010875047730327,0.7256435302318336,0.18650562081901936,0.1735506867308221
484,27.768,27.41,0.19,0.3152603995617897,0.06331361672257896,0.158574684378735,0.7243241180655813,0.1848266570827845,0.17113869149250252
485,27.828,27.46,0.16,0.31297321026366515,0.06239937984982644,0.15707404809347172,0.7229966398218302,0.1831812446511919,0.1687104338750195
486,27.89,27.52,0.17,0.31067527840016695,0.061509010558306605,0.15560766916425908,0.7216611813486264,0.18157043694623956,0.16626693811567259
487,27.953,27.57,0.15,0.3083673122965774,0.060643395985941935,0.15417634941548045,0.7203178329146476,0.17999526918819797,0.1638092503549752
488,28.015,27.63,0.15,0.3060500158403699,0.059803421820390376,0.15278086472150032,0.7189666891041182,0.17845675824135926,0.16133843777818418
489,28.117,27.68,0.19,0.30372408839899667,0.05898997183567687,0.15142196480881845,0.717607848702788,0.17695590247856618,0.158855587736935
490,28.158,27.74,0.18,0.301390224755597,0.058203927426876585,0.15010037309165924,0.7162414145750635,0.17549368166360496,0.15636180685205706
491,28.179,27.79,0.16,0.2990491150619644,0.05744616714295385,0.14881678654056377,0.7148674935322936,0.17407105685051155,0.1538582200985934
492,28.221,27.85,0.18,0.29670144480813576,0.056717566217794876,0.14757187558351548,0.7134861961921317,0.17268897029884492,0.15134596987399024
493,28.282,27.9,0.2,0.29434789480801393,0.056018996099396354,0.14636628403911375,0.7120976368288122,0.17134834540399857,0.1488262150503739
494,28.343,27.96,0.18,0.29198914120045966,0.05535132397712674,0.14520062908129364,0.7107019332141326,0.17005008664163831,0.146300130011831
495,28.404,28.01,0.2,0.2896258554652497,0.05471541230699504,0.14407550123506999,0.7092992064489413,0.16879507952537193,0.14376890367764472
496,28.424,28.07,0.2,0.2872587044532263,0.05411211833493114,0.1429914644027562,0.7078895807850152,0.1675841905767815,0.1412337385124853
497,28.486,28.12,0.18,0.2848883504298794,0.05354229361816893,0.1419490559200879,0.7064731834373046,0.166418267306984,0.13869584952458888
498,28.547,28.18,0.17,0.28251545113151866,0.05300678354491184,0.1409487866416581,0.7050501443866334,0.16529813820890604,0.13615646325298314
499,28.588,28.23,0.17,0.2801406598331008,0.05250642685253468,0.13999114105503643,0.703620596173031,0.16422461275947325,0.1336168167448195
500,28.65,28.29,0.14,0.27776462542671904,0.0520420551446136,0.1390765774228999,0.7021846736799304,0.1631984814309076,0.13107815652384835
501,28.713,28.34,0.12,0.2753879925097291,0.051614492407059884,0.138205527952437,0.7007425139094697,0.16222051571029664,0.1285417375510366
502,28.754,28.4,0.15,0.27301140148147435,0.051224554523585965,0.13737839899120535,0.6992942557490995,0.16129146812654654,0.1260088221782743
503,28.857,28.45,0.16,0.2706354886475674,0.0508730487906552,0.13659557124852195,0.6978400397296272,0.16041207228376458,0.12348067909604672
504,28.878,28.51,0.15,0.26826088633068546,0.05056077343198161,0.13585740004135816,0.6963800077747527,0.1595830429000505,0.12095858227586397
505,28.919,28.56,0.18,0.2658882229868361,0.05028851711257254,0.1351642155636077,0.6949143029421189,0.1588050758506374,0.1184438099081521
506,29.003,28.62,0.2,0.2635181233260796,0.05005705845225819,0.13451632317752688,0.6934430691558948,0.15807884821433277,0.11593764333623341
507,29.045,28.67,0.19,0.2611512084367447,0.0498671655386281,0.1339140037261185,0.6919664509309583,0.15740501832225662,0.11344136598700304
508,29.107,28.73,0.2,0.2587880959122285,0.04971959543931759,0.13335751386523167,0.690484593088826,0.1567842258079449,0.11095626229895589
509,29.212,28.78,0.23,0.25642939997949954,0.04961509371364845,0.13284708641415724,0.6889976404656608,0.15621709165796255,0.10848361664829897
510,29.232,28.84,0.22,0.2540757316284538,0.04955439392370317,0.13238293072349688,0.6875057376129362,0.15570421826224348,0.10602471227397992
511,29.275,28.89,0.22,0.2517276987412893,0.04953821714497667,0.13196523305907465,0.6860090284916186,0.15524618946344432,0.10358083020253822
512,29.337,28.95,0.22,0.2493859062210943,0.04956727147679094,0.13159415700064506,0.68450765616094,0.15484357060467122,0.10115324817371377
513,29.357,29.0,0.2,0.2470509561188978,0.049642251552656454,0.1312698438541488,0.6830017624629187,0.15449690857500933,0.09874323956773118
514,29.418,29.06,0.18,0.24472344775852586,0.049763838050718,0.1309924130762683,0.6814914877037642,0.1542067318523339,0.0963520723351757
515,29.479,29.11,0.19,0.24240397785870849,0.04993269720436536,0.1307619627100303,0.6799769703332489,0.15397355054289916,0.0939810079304285
516,29.561,29.17,0.18,0.24009314065195145,0.05014948031306313,0.1305785698302061,0.6784583466230419,0.15379785641719115,0.09163130024971966
517,29.582,29.22,0.15,0.23779152799968475,0.05041482325348553,0.13044229099726085,0.6769357503449147,0.15368012294150485,0.08930419457494264
518,29.643,29.28,0.15,0.23549972950311426,0.05072934599114036,0.1303531627185944,0.6754093124496847,0.1536208053046734,0.08700092652441041
519,29.704,29.33,0.17,0.23321833260910363,0.05109365209277228,0.13031120191578363,0.6738791607477747,0.15362034043934517,0.08472272101172465
520,29.744,29.39,0.16,0.23094792271035022,0.051508328239907676,0.13031640639648182,0.6723454195923143,0.15367914703716287,0.08247079121389872
521,29.807,29.44,0.17,0.22868908323909065,0.05197394374394573,0.13036875532956174,0.6708082095657537,0.15379762555716128,0.08024633754984078
522,29.869,29.5,0.21,0.2264423957535293,0.05249105006323844,0.13046820972202364,0.6692676471710192,0.15397615822668906,0.07805054667026226
523,29.951,29.55,0.22,0.2242084400161716,0.05306018032263403,0.13061471289615792,0.6677238445282492,0.15421510903418845,0.07588459046003689
524,29.971,29.61,0.22,0.22198779406327443,0.053681848835959015,0.13080819096546586,0.6661769090781287,0.15451482371323022,0.07374962505400526
525,30.013,29.66,0.25,0.219781034264716,0.0543565506318822,0.13104855330788925,0.6646269432927877,0.15487562971729357,0.07164678986718445
526,30.075,29.72,0.27,0.21758873537372572,0.0550847609835406,0.1313356930349733,0.6630740443951608,0.15529783618488885,0.06957720664029265
527,30.137,29.77,0.25,0.21541147056607116,0.055866934942233375,0.13166948745567694,0.6615183040876171,0.1557817338947353,0.06754197850146261
528,30.179,29.83,0.27,0.21324981146844135,0.05670350687544676,0.1320497985336484,0.6599598082905443,0.1563275952108185,0.06554218904500507
529,30.241,29.88,0.28,0.211104328175875,0.05759489000946642,0.1324764733369091,0.6583986368913857,0.15693567401726177,0.06357890142808846
530,30.344,29.94,0.25,0.20897558925816245,0.05854147597687134,0.1329493444790283,0.6568348635044072,0.15760620564304345,0.061653157486209476
531,30.364,29.99,0.24,0.20686416175519468,0.05954363436926151,0.13346823055098672,0.6552685552413251,0.15833940677666758,0.059765976868339954
532,30.405,30.05,0.26,0.20477061116126538,0.0606017122956307,0.13403293654299933,0.6536997724929038,0.15913547537095124,0.0579183561926307
533,30.468,30.1,0.23,0.20269550139838197,0.06171603394681375,0.13464325425560136,0.6521285687216737,0.15999459053811976,0.05611126822353209
534,30.53,30.16,0.2,0.20063939477871232,0.06288690016641031,0.13529896269930466,0.6505549902659586,0.16091691243540757,0.05434566107114721
535,30.572,30.21,0.21,0.19860285195635172,0.06411458802853007,0.13599982848211764,0.64897907615541,0.1619025821413495,0.052622457413550455
536,30.697,30.27,0.23,0.19658643186863684,0.06539935042263827,0.13674560618420553,0.6474008579381811,0.1629517215229223,0.05094255374268881
537,30.717,30.32,0.22,0.19459069166724782,0.06674141564571334,0.13753603871894843,0.645820359519791,0.1640644330936616,0.04930681963437826
538,30.759,30.38,0.25,0.19261618663931865,0.06814098700189815,0.1383708576796397,0.6442375970136672,0.16524079986285314,0.04771609704283537
539,30.82,30.43,0.28,0.19066347011873186,0.06959824240984668,0.13924978367107227,0.6426525786033676,0.16648088517590728,0.046171199620148776
540,30.84,30.49,0.27,0.1887330933877223,0.07111333401805103,0.14017252662530627,0.6410653044165374,0.16778473254607693,0.044672912061090406
541,30.902,30.54,0.28,0.18682560556882735,0.07268638782858122,0.14113878610099173,0.6394757664107397,0.16915236547776583,0.043221989473675865
542,30.964,30.6,0.31,0.1849415535071327,0.07431750332985244,0.14214825156573316,0.6378839482713808,0.17058378728178036,0.04181915677588494
543,31.088,30.65,0.3,0.18308148164271365,0.07600675313918404,0.14320060266111267,0.6362898253219914,0.172078980882985,0.040465108118956754
544,31.109,30.71,0.29,0.18124593187320437,0.07775418265597968,0.14429550945012173,0.634693364447104,0.17363790862091644,0.039160506337676634
545,31.15,30.76,0.32,0.1794354434065458,0.07955980972632717,0.14543263264687212,0.6330945240279335,0.17526051204399856,0.03790598242805865
546,31.171,30.82,0.31,0.17765055260415083,0.08142362431969898,0.14661162382856718,0.6314932538909769,0.17694671169807932,0.03670213505277335
547,31.233,30.87,0.28,0.17589179281492168,0.08334558821828653,0.14783212562980685,0.6298894952695658,0.17869640691007835,0.03554953007460109
548,31.295,30.93,0.28,0.17415969420070657,0.08532563471938501,0.14909377191937223,0.6282831807783334,0.18050947556758853,0.03444870011811276
549,31.336,30.98,0.27,0.17245478355388072,0.08736366835117128,0.15039618795969392,0.6266742344005098,0.1823857738953136,0.03340014415970565
550,31.418,31.04,0.24,0.17077758410779226,0.08945956460219216,0.1517389905492555,0.6250625714879289,0.18432513622923413,0.03240432714608545
551,31.479,31.09,0.26,0.1691286153408175,0.0916131696648966,0.15312178814821037,0.6234480987736328,0.18632737478936962,0.03146167964128809
552,31.521,31.15,0.28,0.16750839277473253,0.09382430019359429,0.15454418098750505,0.6218307143969857,0.1883922794519619,0.03057259750236271
553,31.584,31.2,0.27,0.1659174277680645,0.09609274307727994,0.15600576116182213,0.6202103079412257,0.1905196175218609,0.02973744158387648
554,31.624,31.26,0.27,0.1643562273050439,0.09841825522781902,0.15750611270670156,0.6185867604833928,0.19270913350587437,0.028956537471445224
555,31.687,31.31,0.3,0.16282529378074392,0.10080056338403928,0.15904481166026796,0.6169599446565618,0.19496054888786202,0.028230175244519103
556,31.729,31.37,0.31,0.16132512478298316,0.10323936393228934,0.1606214261100755,0.6153297247242919,0.19727356190639653,0.027558609268656973
557,31.79,31.42,0.3,0.15985621287159088,0.10573432274400248,0.16223551622566867,0.6136959566671488,0.19964784733586852,0.026942058017516455
558,31.851,31.48,0.32,0.15841904535566365,0.10828507503075673,0.16388663427753464,0.6120584882811213,0.20208305627197068,0.02638070392476933
559,31.892,31.53,0.32,0.15701410406947874,0.11089122521727265,0.16557432464320668,0.6104171592876877,0.20457881592256286,0.025874693266129282
560,31.954,31.59,0.29,0.15564186514775377,0.1135523468327509,0.16729812380136352,0.6087718014552372,0.20713472940497754,0.025424136071674586
561,32.015,31.64,0.3,0.15430279880094167,0.11626798242094603,0.1690575603148401,0.6071222387315224,0.20975037555086765,0.025029106068681226
562,32.098,31.7,0.29,0.152997369091217,0.11903764346940511,0.17085215480351942,0.6054682873868426,0.21242530871971232,0.024689640655222164
563,32.158,31.75,0.26,0.15172603370977175,0.12186081035834116,0.1726814199081048,0.6038097561677294,0.2151590586220926,0.02440574090482555
564,32.178,31.81,0.24,0.15048924375598924,0.12473693232965846,0.1745448602457741,0.6021464464610128,0.21795113015381468,0.024177371602499963
565,32.22,31.86,0.25,0.14928744351901999,0.12766542747666773,0.17644197235869638,0.6004781524682772,0.22080100324190988,0.0240044613124273
566,32.282,31.92,0.25,0.14812107026225593,0.1306456827550143,0.1783722446563502,0.59880466139078,0.22370813270346196,0.023886902477589966
567,32.365,31.97,0.27,0.14699055401118366,0.1336770540152838,0.18033515735253852,0.5971257536249105,0.2266719481181201,0.02382455155154452
568,32.385,32.03,0.29,0.1458963173450864,0.13675886605767232,0.18233018239794987,0.5954412029681968,0.2296918537150761,0.023817229162469547
569,32.447,32.08,0.3,0.1448387751930648,0.13989041270901562,0.18435678340909575,0.5937507768357653,0.23276722827524604,0.02386472030948697
570,32.529,32.14,0.28,0.14381833463485,0.14307095692239719,0.18641441559446031,0.5920542364870623,0.23589742504940672,0.02396677459110687
571,32.549,32.19,0.31,0.14283539470686174,0.14629973089951182,0.18850252567872022,0.5903513372626185,0.2390817716930793,0.024123106465507044
572,32.611,32.25,0.32,0.14189034621392513,0.14957593623595875,0.19062055182591456,0.5886418288306746,0.24231957021899814,0.02433339554227801
573,32.653,32.3,0.3,0.1409835715470145,0.15289874408965765,0.19276792356247266,0.5869254554435801,0.24561009696803157,0.024597286905274556
574,32.715,32.36,0.3,0.14011544450734817,0.15626729537261486,0.19494406170103618,0.5852019562039554,0.24895260259942917,0.02491439146628176
575,32.777,32.41,0.32,0.13928633013711836,0.15968070096629886,0.19714837826604406,0.5834710653406973,0.2523463121012764,0.025284286349265717
576,32.902,32.47,0.3,0.13849658455713548,0.16313804196088247,0.19938027642207845,0.5817325124949406,0.25579042482202685,0.02570651530500728
577,32.923,32.52,0.28,0.1377465548116872,0.16663836991856182,0.20163915040598704,0.5799860230160951,0.2592841145239618,0.02618058915591306
578,32.965,32.58,0.29,0.13703657872095112,0.17018070716107528,0.2039243854637967,0.5782313182680366,0.26282652945937773,0.02670598627075602
579,33.007,32.63,0.26,0.13636698474134576,0.17376404708142465,0.20623535779341542,0.5764681159454694,0.2664167924702435,0.027282153069021774
580,33.068,32.69,0.24,0.13573809183424654,0.17738735447965956,0.20857143449408527,0.5746961304004016,0.27005400111198186,0.027908504554442427
581,33.11,32.74,0.27,0.13515020934352392,0.1810495659224456,0.21093197352348492,0.5729150729786319,0.2737372278019272,0.028584424877206815
582,33.172,32.8,0.29,0.13460363688237575,0.1847495901260113,0.21331632366331865,0.5711246523660766,0.27746551999289776,0.02930926792425248
583,33.254,32.85,0.27,0.13409866422990097,0.18848630836199473,0.21572382449418953,0.5693245749446599,0.28123790037220436,0.030082357936994614
584,33.275,32.91,0.3,0.1336355712377634,0.19225857488571502,0.2181538063805441,0.5675145451573512,0.28505336708632795,0.030902990155836845
585,33.317,32.96,0.33,0.13321462774715004,0.19606521738646238,0.2206055904664907,0.5656942658818515,0.2889108939914407,0.03177043149081986
586,33.379,33.02,0.32,0.13283609351609293,0.19990503745947694,0.22307848868331145,0.5638634388124149,0.2928094309299229,0.03268392121779243
587,33.441,33.07,0.33,0.13250021815712326,0.20377681109934626,0.22557180376949215,0.562021764849354,0.29674790403302254,0.03364267169952189
588,33.482,33.13,0.35,0.1322072410851633,0.207679289214577,0.22808482930408433,0.5601689444958747,0.30072521604980706,0.034645869131167566
589,33.543,33.18,0.35,0.13195739147553484,0.21161119816308688,0.23061684975420194,0.558304678261969,0.30474024670256256,0.03569267430952536
590,33.666,33.24,0.34,0.13175088823195205,0.2155712403083274,0.23316714053744053,0.5564286670751203,0.30879185306878437,0.03678222342543334
591,33.687,33.29,0.35,0.13158793996435433,0.21955809459570338,0.23573496809999409,0.5545406126975744,0.31287886998988335,0.03791362887870696
592,33.728,33.35,0.35,0.13146874497644553,0.2235704171488867,0.23831959001122568,0.5526402181498754,0.31700011050669413,0.039085980114934415
593,33.77,33.4,0.31,0.13139349126283809,0.22760684188553504,0.24092025507542555,0.5507271881402774,0.3211543663218154,0.04029834448343556
594,33.831,33.46,0.32,0.1313623565157348,0.23166598115183654,0.24353620346144272,0.5488012294995602,0.32534040828872923,0.04154976811567254
595,33.891,33.51,0.31,0.1313755081411079,0.23574642637522142,0.24616666685081093,0.5468620516207062,0.329556986927545,0.04283927682338733
596,33.995,33.57,0.31,0.13143310328434488,0.2398467487345204,0.24881086860489585,0.5449093669028345,0.33380283296707985,0.04416587701572636
597,34.016,33.62,0.32,0.13153528886528842,0.2439654998468296,0.2514680239514663,0.5429428911987587,0.3380766579128503,0.04552855663457367
598,34.057,33.68,0.36,0.1316822016225304,0.24810121247034042,0.25413734019094697,0.5409623442655267,0.3423771546403973,0.046926286107236204
599,34.098,33.73,0.36,0.1318739681667874,0.2522524012223657,0.2568180169224663,0.5389674502172964,0.34670299801324966,0.04835801931551258
600,34.16,33.79,0.37,0.13211070504320702,0.2564175633117365,0.2595092462896939,0.5369579379798618,0.35105284552473,0.049822694580044
601,34.201,33.84,0.42,0.13239251880247396,0.26059517928469544,0.2622102132463704,0.5349335417460965,0.35542533796276005,0.05131923565870954
602,34.283,33.9,0.44,0.13271950608058644,0.26478371378339405,0.26492009584137133,0.5328940014315227,0.35981910009680246,0.052846552757698805
603,34.365,33.95,0.43,0.13309175368713141,0.2689816163161156,0.2676380655230997,0.5308390631291713,0.36423274138607004,0.05440354355379354
604,34.385,34.01,0.48,0.13350933870180906,0.27318732203839463,0.2703632874629593,0.5287684795628876,0.36866485670814375,0.05598909422630972
605,34.426,34.06,0.5,0.1339723285788808,0.2773992525442566,0.2730949208976232,0.5266820105382527,0.3731140271071521,0.05760208049709179
606,34.487,34.12,0.47,0.13448078125915697,0.28161581666685864,0.2758321194897898,0.5245794233902988,0.37757882056068104,0.059241368676921355
607,34.527,34.17,0.48,0.1350347452890704,0.2858354112878771,0.27857403170708667,0.5224604934272201,0.3820577927645894,0.06090581671670001
608,34.588,34.23,0.51,0.13563425994630382,0.2900564221550684,0.28131980121875805,0.5203250043692913,0.386549487934902,0.06259427526177352
609,34.649,34.28,0.49,0.13627935537136124,0.2942772247074926,0.28406856730972346,0.5181727487822056,0.3910524396259177,0.06430558870778247
610,34.773,34.34,0.49,0.13697005270439286,0.29849618490795293,0.2868194653115369,0.5160035285040182,0.3955651715636076,0.0660385962564425
611,34.793,34.39,0.5,0.13770636422649582,0.3027116600822342,0.2895716270496853,0.5138171550648569,0.40008619849329297,0.0677921329696405
612,34.814,34.45,0.5,0.1384882935046625,0.30692199976471873,0.2923241813065539,0.5116134500985331,0.40461402704049926,0.06956503082015918
613,34.855,34.5,0.5,0.13931583553954927,0.3111255465498869,0.29507625429925816,0.5093922457451298,0.4091471565837787,0.07135611973723485
614,34.918,34.56,0.55,0.1401889769152799,0.31532063694911755,0.2978269701713984,0.5071533850435885,0.41368408013818103,0.07316422864504901
615,34.981,34.61,0.59,0.14110769595056752,0.3195056022520991,0.30057545149766207,0.5048967223132541,0.4182232852479532,0.07498818649218993
616,35.043,34.67,0.61,0.14207196285050877,0.32367876939208223,0.30332081980009146,0.5026221235232896,0.42276325488697464,0.07682682327013012
617,35.105,34.72,0.66,0.14308173985843667,0.32783846181419085,0.3060621960747805,0.5003294666488849,0.42730246836540664,0.0786789710188422
618,35.145,34.78,0.71,0.14413698140720424,0.33198300034607575,0.30879870132775006,0.4980186420132486,0.4318394022410719,0.08054346481778185
619,35.207,34.83,0.73,0.14523763426922373,0.3361107040703205,0.3115294571187887,0.4956895526144691,0.43637253123414566,0.08241914376058918
620,35.268,34.89,0.76,0.14638363770450522,0.34021989119819307,0.3142535861120948,0.49334211443644876,0.44090032914384564,0.08430485191198712
621,35.31,34.94,0.82,0.14757492360585578,0.3443088799445208,0.3169702126326205,0.49097625674321804,0.44542126976592505,0.08619943924546808
622,35.374,35.0,0.82,0.14881141664039219,0.34837598940359304,0.31967846322709825,0.4885919223560073,0.44993382780989355,0.08810176256045013
623,35.496,35.05,0.83,0.150093034386587,0.3524195404260323,0.32237746722881333,0.48618906791247996,0.454436479815019,0.09001068637764678
624,35.516,35.11,0.87,0.15141968746618664,0.35643785649654214,0.32506635732525463,0.4837676641075357,0.45892770506427477,0.09192508381141729
625,35.537,35.16,0.87,0.15279127967047224,0.3604292646123616,0.3277442701278405,0.4813276959150813,0.463405986495497,0.09384383741787618
626,35.577,35.22,0.85,0.15420770808045103,0.3643920961621725,0.3304103467429591,0.4788691627901672,0.4678698116090813,0.09576584001757327
627,35.64,35.27,0.87,0.15566886318063955,0.36832468780515276,0.33306373334358375,0.47639207885093404,0.47231767337157876,0.09768999549162428
628,35.682,35.33,0.87,0.15717462896614248,0.3722253823498461,0.33570358174072873,0.4738964730398941,0.47674807111456063,0.09961521955027007
629,35.744,35.38,0.86,0.1587248830427717,0.3760925296325127,0.3383290499539956,0.47138238926417025,0.4811595114280877,0.10154044047296858
630,35.828,35.44,0.88,0.16031949671998066,0.37992448739463275,0.34093930278042195,0.468849886514429,0.485550509048063,0.10346459981925696
631,35.848,35.49,0.91,0.16195833509640892,0.3837196221592555,0.34353351236079216,0.4662990389623903,0.4899195877366721,0.10538665310973694
632,35.911,35.55,0.92,0.1636412571378358,0.3874763101059171,0.3461108587425128,0.4637299360369525,0.4942652811550506,0.10730557047665129
633,35.973,35.6,0.95,0.16536811574731664,0.3911929379439086,0.348670530438126,0.46114268247912393,0.4985861337272622,0.10922033728365199
634,36.035,35.66,1.01,0.1671387578272229,0.39486790378374376,0.35121172497853076,0.4585373983760851,0.5028807014946635,0.11112995471450321
635,36.096,35.71,1.04,0.16895302433287798,0.39849961800673034,0.3537336494600343,0.4559142191747728,0.5071475529597481,0.11303344033059598
636,36.138,35.77,1.06,0.17081075031749735,0.40208650413254465,0.3562355210844278,0.4532732956753682,0.5113852699186325,0.11492982859725591
637,36.222,35.82,1.09,0.17271176496818502,0.4056269996846988,0.3587165676913833,0.4506147940049949,0.5155924482814456,0.11681817137887993
638,36.243,35.88,1.11,0.17465589163280426,0.40911955705375364,0.36117602828258766,0.44793889557180133,0.5197676988800196,0.11869753840295537
639,36.285,35.93,1.1,0.17664294783761156,0.41256264435810336,0.36361315353714946,0.4452457969994725,0.5239096482623993,0.12056701769303538
640,36.346,35.99,1.13,0.17867274529558141,0.41595474630215445,0.3660272063179145,0.4425357100421334,0.5280169394737906,0.12242571597079802
641,36.407,36.04,1.15,0.18074508990533603,0.41929436503175765,0.36841746216838545,0.43980886147958437,0.5320882328236445,0.12427275902739669
642,36.449,36.1,1.14,0.18285978174052955,0.4225800209868332,0.37078320979997664,0.43706549299280556,0.5361222066386085,0.1261072920644089
643,36.51,36.15,1.14,0.185016615029417,0.4258102537512376,0.3731237515693293,0.43430586101969537,0.5401175580011042,0.12792848000479992
644,36.572,36.21,1.16,0.18721537812421762,0.42898362290002273,0.3754384039453847,0.43153023659106554,0.544073003473285,0.12973550777440115
645,36.614,36.26,1.15,0.18945585345982252,0.4320987088442818,0.37772649796585817,0.4287389051469797,0.5479872798061308,0.13152758055444833
646,36.675,36.32,1.16,0.19173781750140295,0.4351541136737517,0.3799873796826921,0.4259321663335796,0.5518591446334027,0.1333039240057311
647,36.738,36.37,1.23,0.1940610406805371,0.43814846199725416,0.3822204105959784,0.42311033378059437,0.5556873771501625,0.1350637844648886
648,36.801,36.43,1.25,0.19642528731956202,0.4410804017809469,0.3844249680757721,0.42027373485976105,0.559470778775539,0.13680642911335383
649,36.843,36.48,1.26,0.19883031554396857,0.4439486051842464,0.38660044577117114,0.41742271042441614,0.5632081737994333,0.13853114611942471
650,36.924,36.54,1.29,0.2012758771827631,0.4467517693932105,0.38874625400603857,0.414557614530584,0.5668984100129202,0.14023724475391508
651,36.944,36.59,1.31,0.20376171765685103,0.4494886174511075,0.3908618201607978,0.4116788141399757,0.5705403593221883,0.14192405547983347
652,37.007,36.65,1.31,0.20628757585566865,0.45215789908582543,0.3929465890398226,0.40878668880542485,0.5741329183459782,0.14359093001658213
653,37.071,36.7,1.34,0.20885318400246997,0.4547583915336925,0.3950000232240403,0.4058816303394349,0.5776750089965489,0.14523724137928343
654,37.11,36.76,1.37,0.21145826750883112,0.4572889003592221,0.39702160340846543,0.4029640424666699,0.5811655790442811,0.1468623838939908
655,37.172,36.81,1.37,0.21410254481906466,0.45974826027024956,0.39901082872447086,0.4000343404613584,0.5846036026660815,0.14846577318968793
656,37.234,36.87,1.37,0.21678572724532094,0.4621353359279186,0.400967217046695,0.39709295077068185,0.5879880809778116,0.15004684616809238
657,37.316,36.92,1.39,0.21950751879421934,0.4644490227509531,0.40289030528456155,0.3941403106253111,0.5913180425510369,0.15160506095234128
658,37.357,36.98,1.38,0.22226761598595068,0.46668824771359724,0.404779649658449,0.3911768676383217,0.5945925439144427,0.1531398968156526
659,37.398,37.03,1.34,0.22506570766692002,0.4688519701364803,0.40663482596059575,0.3882030793937402,0.5978106700402939,0.15465085409105164
660,37.483,37.09,1.35,0.22790147481713866,0.4709391824695097,0.4084554298008491,0.3852194130259453,0.6009715348163124,0.15613745406323098
661,37.505,37.14,1.35,0.23077459035369177,0.4729489110657192,0.41024107683738115,0.3822263447910785,0.6040742815033034,0.15759923884361007
662,37.566,37.2,1.34,0.23368471893168466,0.47488021694484434,0.41199140299248704,0.3792243596315359,0.6071180831787816,0.15903577122971405
663,37.607,37.25,1.37,0.2366315167440823,0.47673219654529475,0.4137060646535472,0.3762139507345573,0.6101021431667402,0.16044663455007852
664,37.669,37.31,1.4,0.23961463132179214,0.4785039824631884,0.4153847388591902,0.37319561908590837,0.6130256954536107,0.1618314324959515
665,37.73,37.36,1.4,0.24263370133519369,0.4801947441772248,0.4170271234706651,0.37016987301964177,0.6158880050903942,0.1631897889410984
666,37.791,37.42,1.42,0.24568835639808695,0.4818036887584126,0.4186329373284484,0.36713722776493013,0.6186883685809255,0.16452134775105653
667,37.833,37.47,1.46,0.24877821687477353,0.4833300615639697,0.42020192039418286,0.364098204990972,0.621426114256249,0.1658257725832354
668,37.893,37.53,1.46,0.2519028936908019,0.4847731469149928,0.4217338338781585,0.3610533323509736,0.6241006026351331,0.1671027466792968
669,37.955,37.58,1.47,0.25506198814779474,0.48613226875769777,0.42322846035267453,0.3580031430261921,0.6267112267708116,0.16835197265125434
670,38.056,37.64,1.5,0.2582550917427096,0.48740679130818965,0.42468560385174015,0.3549481752710019,0.6292574125841002,0.16957317226269053
671,38.077,37.69,1.5,0.26148178599183863,0.48859611968081357,0.42610508995766055,0.351888971959898,0.6317386191831023,0.1707660862064267
672,38.118,37.75,1.49,0.26474164225983304,0.4896997005001893,0.4274867658751234,0.34882608013730293,0.6341543391697474,0.17193047387991528
673,38.18,37.8,1.51,0.26803422159402596,0.4907170224970501,0.42883050049343013,0.3457600505710008,0.6365040989334443,0.1730661131595683
674,38.24,37.86,1.5,0.2713590745643324,0.49164761708800403,0.43013618443753165,0.342691437309986,0.6387874589321392,0.174172800175173
675,38.302,37.91,1.47,0.27471574110901853,0.49249105893933554,0.43140373010852223,0.33962079724749294,0.6410040139610627,0.175250349085493
676,38.343,37.97,1.47,0.27810375038662655,0.49324696651498096,0.4326330717142409,0.3365486896899663,0.6431533934094223,0.17629859185610988
677,38.405,38.02,1.48,0.28152262063429656,0.4939150026088461,0.433824165290593,0.3334756759327484,0.6452352615052487,0.17731737804052022
678,38.466,38.08,1.47,0.2849718590326639,0.4944948748616708,0.4349769887141499,0.3304023188432863,0.6472493175485204,0.17830657456546878
679,38.507,38.13,1.48,0.28845096157746203,0.49498633626265365,0.43609154170647824,0.3273291824527046,0.6491952961326012,0.17926606552145738
680,38.548,38.19,1.51,0.2919594129579589,0.4953891856360048,0.4371678458305257,0.32425683155663,0.6510729673539213,0.18019575195929835
681,38.63,38.24,1.51,0.29549668644243343,0.49570326811249743,0.43820594447931754,0.32118583132613143,0.6528821370097736,0.18109555169348257
682,38.712,38.3,1.51,0.29906224377102786,0.4959284755859243,0.43920590285719574,0.31811674692955266,0.6546226467840511,0.18196539911303128
683,38.795,38.35,1.55,0.3026555350564736,0.49606474715418736,0.4401678079538675,0.31505014316589486,0.6562943744207503,0.182805245000403
684,38.815,38.41,1.54,0.3062759986933462,0.49611206954454795,0.4410917685115745,0.3119865841102785,0.6578972338850667,0.18361505635892195
685,38.835,38.46,1.52,0.30992306127665364,0.49607047752237,0.4419779149857344,0.308926632771896,0.6594311755119183,0.18439481624910078
686,38.877,38.52,1.53,0.3135961375306516,0.4959400542825327,0.4428263994994371,0.3058708507648065,0.6608961861417403,0.1851445236341565
687,38.938,38.57,1.54,0.31729463024884147,0.4957209318225577,0.44363739579218486,0.3028197979919069,0.6622922892433645,0.185864193234973
688,38.988,38.63,1.51,0.32101793024615494,0.49541329129638495,0.4444110991632633,0.29977403234243244,0.663619545023768,0.18655385539473945
689,39.046,38.68,1.5,0.3247654163243541,0.4950173633476268,0.44514772641009853,0.29673410940336553,0.6648780505243886,0.18721355595346156
690,39.128,38.74,1.48,0.3285364552516652,0.4945334284210484,0.4458475157618933,0.2937005821851664,0.6660679397036401,0.18784335613246145
691,39.148,38.79,1.46,0.33233040175763084,0.49396181705092407,0.44651072680874293,0.2906740008622759,0.6671893835051564,0.1884433324288641
692,39.209,38.85,1.47,0.336146598544098,0.49330291012480587,0.4471376404262863,0.28765491252886655,0.6682425899111729,0.18901357651992406
693,39.272,38.9,1.51,0.33998437631316464,0.49255713912109306,0.4477285586957601,0.2846438609703085,0.6692278039803043,0.18955419517684724
694,39.313,38.96,1.52,0.3438430538128035,0.4917249863186185,0.44828380481911795,0.28164138645071685,0.6701453078688306,0.19006531018750383
695,39.395,39.01,1.54,0.3477219379007796,0.4908069849762992,0.4488037230286877,0.27864802551677104,0.6709954208344934,0.19054705828713092
696,39.435,39.07,1.57,0.35162032362740386,0.48980371948076673,0.4492886784907048,0.27566431081779713,0.6717784992217486,0.19099959109584455
697,39.496,39.12,1.6,0.35553749433762943,0.48871582545981473,0.4497390572019829,0.2726907709418995,0.6724949364274364,0.19142307506158035
698,39.557,39.18,1.6,0.359472721793001,0.48754398985947267,0.4501552658789619,0.26972793026775493,0.6731451628458605,0.19181769140698637
699,39.619,39.23,1.63,0.36342526631395905,0.4862889509825779,0.45053773183839196,0.2667763088315492,0.673729645792334,0.19218363607880543
700,39.68,39.29,1.65,0.3673943769429347,0.48495149848687136,0.45088690286895133,0.26383642220846354,0.6742488894043271,0.19252111969835056
701,39.701,39.34,1.65,0.3713792916285395,0.48353247334088884,0.4512032470931539,0.260908781408097,0.6747034345194102,0.19283036751177227
702,39.764,39.4,1.65,0.3753792374309566,0.4820327677362268,0.451487252818943,0.257993892783228,0.6750938585292635,0.193111619338918
703,39.826,39.45,1.68,0.37939343074843923,0.4804533249550623,0.45173942838040804,0.25509225795133295,0.6754207752090708,0.19336512951966417
704,39.887,39.51,1.65,0.3834210775646952,0.47879513919206623,0.45196030196708964,0.25220437372824733,0.6756848345216511,0.1935911668566653
705,39.969,39.56,1.67,0.3874613737168701,0.4770592553300182,0.452150421441362,0.24933073207325923,0.6758867223957054,0.19379001455350195
706,39.99,39.62,1.72,0.3915135051837827,0.4752467686685692,0.45231035414337256,0.2464718200448155,0.6760271604775567,0.19396197014722288
707,40.053,39.67,1.74,0.39557664839399054,0.4733588246057027,0.4524406866830011,0.24362811976591428,0.6761069058557639,0.19410734543426814
708,40.096,39.73,1.75,0.3996499705531679,0.4713966182715651,0.45254202471827626,0.24080010839818786,0.6761267507580013,0.19422646638876567
709,40.159,39.78,1.79,0.403732629990165,0.46936139411450856,0.4526149927197159,0.23798825812363084,0.6760875222196618,0.19431967307223072
710,40.241,39.84,1.82,0.40782377652100005,0.46725444543943545,0.4526602337201351,0.23519303613290068,0.675990081723734,0.19438731953378063
711,40.262,39.89,1.82,0.41192255182981763,0.4650771138989087,0.452678409049597,0.23241490461910536,0.6758353248116413,0.19442977370010042
712,40.303,39.95,1.85,0.416028089865426,0.4628307889380572,0.45267019805531383,0.22965432077603945,0.6756241806648743,0.19444741725453873
713,40.366,40.0,1.86,0.42013951725148974,0.46051690719494476,0.45263629780643005,0.22691173679992555,0.6753576116573887,0.1944406455048417
714,40.428,40.06,1.85,0.4242559537080548,0.4581369518585796,0.45257742278373086,0.2241875998938409,0.6750366128788855,0.19440986723914136
715,40.469,40.11,1.84,0.4283765124819218,0.4556924519869988,0.4524943045544021,0.22148235227414306,0.6746622116291962,0.19435550456991485
716,40.531,40.17,1.85,0.43250030078342133,0.45318498178793387,0.4523876914320372,0.2187964311783154,0.6742354668840919,0.19427799276570604
717,40.615,40.22,1.82,0.43662642022727294,0.45061615986449777,0.4522583481221296,0.21613026887371717,0.6737574687329067,0.19417778007044828
718,40.658,40.28,1.79,0.440753967275384,0.44798764842819283,0.4521070553533068,0.2134842926667192,0.67322933778838,0.19405532751023816
719,40.7,40.33,1.81,0.444882033679617,0.44530115248133556,0.45193460949454567,0.21085892491166883,0.6726522245691322,0.19391110868737962
720,40.763,40.39,1.82,0.4490097069227258,0.4425584189707537,0.45174182215854974,0.20825458301907473,0.6720273088551469,0.19374560956145723
721,40.805,40.44,1.82,0.4531360706558285,0.43976123591436117,0.45152951979139094,0.20567167946235543,0.6713557990165941,0.19355932821715371
722,40.867,40.5,1.86,0.4572602051309154,0.4369114315020095,0.45129854324845153,0.20311062178245906,0.6706389313162928,0.19335277461851452
723,40.93,40.55,1.87,0.4613811876269978,0.4340108731718499,0.4510497473566905,0.20057181258963372,0.6698779691861217,0.1931264703493841
724,40.991,40.61,1.86,0.4654980928686149,0.431061466663341,0.450784000463305,0.19805564956160143,0.6690742024777442,0.19288094833979136
725,41.032,40.66,1.87,0.46960999343551446,0.4280651550479795,0.45050218397095604,0.19556252543739128,0.6682289466880966,0.19261675257813687
726,41.094,40.72,1.89,0.4737159601624297,0.42502391773880643,0.4502051918598336,0.19309282800610927,0.6673435421602006,0.19233443780912352
727,41.157,40.77,1.87,0.477815062527993,0.42193976947970696,0.4498939301969375,0.1906469400899753,0.6664193532599443,0.19203456921747267
728,41.198,40.83,1.87,0.48190636903196143,0.4188147593154739,0.4495693166330206,0.18822523952106573,0.6654577675295673,0.19171772209757731
729,41.283,40.88,1.89,0.48598894756008076,0.41565096954352626,0.44923227988768116,0.185828099111362,0.6644601948186547,0.19138448150932497
730,41.385,40.94,1.85,0.490061865736124,0.4124505146480251,0.44888375922310086,0.1834558866158759,0.6634280663934967,0.19103544192037816
731,41.405,40.99,1.82,0.49412419126091184,0.4092155402169183,0.44852470390690397,0.18110896468878565,0.6623628340257123,0.19067120683521288
732,41.426,41.05,1.81,0.49817499223842016,0.40594822184216817,0.4481560726645845,0.17878769083266674,0.6612659690610472,0.1902923884112056
733,41.466,41.1,1.8,0.5022133374893483,0.4026507640031561,0.44777883312189964,0.17649241734101478,0.6601389614692422,0.1898996070620393
734,41.528,41.16,1.79,0.5062382968526971,0.3993253989330423,0.4473939612375849,0.17422349123431682,0.6589833188758111,0.18949349104869473
735,41.57,41.21,1.81,0.5102489414759526,0.39597438546774516,0.44700244072668527,0.17198125418995103,0.6578005655764936,0.1890746760583194
736,41.632,41.27,1.83,0.5142443440944626,0.3926000078771619,0.44660526247475074,0.1697660424661949,0.6565922415350867,0.18864380477130005
737,41.713,41.32,1.83,0.5182235793005422,0.3892045746782908,0.4462034239431259,0.1675781868206272,0.655359901365324,0.18820152641692664
738,41.733,41.38,1.84,0.5221857238027887,0.38579041743002024,0.44579792856558254,0.16541801242324697,0.6541051132975005,0.1877484963181209
739,41.797,41.43,1.87,0.526129856676034,0.38235988950950867,0.4453897851366042,0.16328583876470157,0.6528294581306074,0.1872853754257961
740,41.859,41.49,1.86,0.5300550596023631,0.3789153648702127,0.44498000719171205,0.16118197956007257,0.6515345281708373,0.18681282984350064
741,41.9,41.54,1.87,0.5339604171036897,0.3754592367817181,0.44456961238032705,0.15910674264868507,0.6502219261574248,0.18633153034307623
742,41.984,41.6,1.89,0.5378450167664586,0.3719939165515703,0.44415962183177427,0.15706042989038366,0.6488932641768838,0.18584215187210784
743,42.003,41.65,1.87,0.5417079494591507,0.3685218322293212,0.4437510595151393,0.1550433370586644,0.6475501625668068,0.18534537305396082
744,42.085,41.71,1.85,0.545548309543326,0.36504542729303147,0.44334495159378856,0.15305575373097838,0.6461942488104805,0.18484187568119378
745,42.127,41.76,1.84,0.5493651950789689,0.3615671593185154,0.4429423257754464,0.1510979631764573,0.6448271564236506,0.18433234420311398
746,42.188,41.82,1.82,0.5531577080249346,0.35808949863165446,0.4425442106587926,0.14917024224126113,0.6434505238348327,0.18381746520822753
747,42.249,41.87,1.76,0.5569249544354204,0.3546149269440881,0.44215163507758115,0.14727286123171032,0.6420659932605683,0.18329792690236066
748,42.29,41.93,1.75,0.5606660446535743,0.35114593597250526,0.44176562744328296,0.1454060837953459,0.6406752095770103,0.18277441858328328
749,42.352,41.98,1.76,0.5643800935035423,0.3476850260416527,0.4413872150872105,0.1435701668000651,0.6392798191891426,0.18224763011272743
750,42.455,42.04,1.75,0.5680662204823517,0.3442347046711291,0.44101742360298685,0.14176536021147187,0.637881468898856,0.18171825138672992
751,42.475,42.09,1.75,0.5717235499529489,0.34079748514607683,0.4406572761901148,0.13999190696856323,0.6364818047729948,0.1811869718052332
752,42.517,42.15,1.77,0.5753512113395884,0.3373758850719793,0.4403077929992953,0.1382500428578247,0.6350824710124336,0.18065447974184445
753,42.558,42.2,1.76,0.5789483393266431,0.33397242491386153,0.4399699904800846,0.13653999638574188,0.6336851088232179,0.1801214620146078
754,42.662,42.26,1.75,0.5825140740618342,0.3305896265202751,0.4396448807314695,0.13486198864967106,0.6322913552908223,0.17958860335862173
755,42.682,42.31,1.77,0.586047561364807,0.3272300116325199,0.4393334708559527,0.1332162332069798,0.6309028422586097,0.1790565859013246
756,42.724,42.37,1.76,0.5895479529419217,0.32389610037961664,0.4390367623177672,0.1316029359423625,0.6295211952116273,0.17852608864125163
757,42.807,42.42,1.74,0.5930144066080786,0.3205904097595852,0.43875575030585784,0.13002229493324222,0.6281480321669043,0.17799778693104082
758,42.829,42.48,1.75,0.596446086516328,0.31731545210762657,0.4384914231022814,0.1284745003132086,0.6267849625714609,0.17747235196543867
759,42.89,42.53,1.74,0.5998421633959672,0.3140737335518624,0.4382447614566843,0.1269597341335051,0.6254335862092647,0.17695045027502845
760,42.952,42.59,1.69,0.6032018147997832,0.31086775245734566,0.4380167379675159,0.12547817022265537,0.6240954921183788,0.17643274322637628
761,43.014,42.64,1.67,0.6065242253610467,0.3076999978591505,0.43780831647062796,0.12402997404439463,0.6227722575195501,0.17591988652925472
762,43.054,42.7,1.66,0.6098085870607737,0.30457294788545786,0.4376204514358732,0.12261530255413651,0.6214654467574531,0.17541252975154575
763,43.115,42.75,1.63,0.6130540995056628,0.3014890681716742,0.4374540873722529,0.12123430405426172,0.6201766102557374,0.17491131584236094
764,43.178,42.81,1.62,0.6162599702169406,0.2984508102667387,0.43731015824205,0.11988711804856951,0.6189072834869294,0.1744168806638505
765,43.28,42.86,1.65,0.6194254149301512,0.29546061003288726,0.437189586884254,0.11857387509628065,0.6176589859581274,0.17392985253209367
766,43.3,42.92,1.64,0.6225496579057518,0.2925208860402097,0.4370932844474701,0.11729469666598984,0.6164332202133325,0.17345085176737624
767,43.342,42.97,1.63,0.6256319322502771,0.28963403795734655,0.4370221498324335,0.11604969498992805,0.6152314708531954,0.1729804902540947
768,43.383,43.03,1.65,0.628671480247825,0.2868024449396426,0.4369770691442435,0.11483897291884643,0.6140552035729396,0.17251937101048223
769,43.446,43.08,1.65,0.631667553701669,0.2840284640160114,0.43695891515445767,0.11366262377779392,0.6129058642192311,0.1720680877683226
770,43.549,43.14,1.62,0.6346194142858894,0.2813144284757068,0.4369685467732352,0.11252073122304738,0.6117848778667906,0.1716272245628038
771,43.569,43.19,1.63,0.6375263339069395,0.27866264625618953,0.4370068085317669,0.11141336910047703,0.6106936479155607,0.17119735533266575
772,43.612,43.25,1.63,0.6403875950750316,0.27607539833333544,0.43707453007527275,0.11034060130569068,0.6096335552092585,0.17077904353081141
773,43.672,43.3,1.59,0.6432024912851417,0.2735549371153271,0.43717252566688813,0.10930248164638284,0.6086059571761477,0.17037284174559073
774,43.713,43.36,1.57,0.6459703274073343,0.27110348484168273,0.43730159370278265,0.10829905370740073,0.6076121869928409,0.16997929133302422
775,43.774,43.41,1.56,0.6486904200860005,0.2687232319889738,0.43746251623886434,0.10733035071912467,0.6066535527719162,0.16959892206027213
776,43.834,43.47,1.51,0.6513620981475088,0.26641633568485656,0.4376560585294015,0.10639639542979176,0.6057313367740604,0.16923225176065423
777,43.936,43.52,1.48,0.6539847030156867,0.26418491813206785,0.437882968577848,0.10549719998237236,0.6048467946453681,0.16887978600048315
778,43.978,43.58,1.51,0.6565575891344999,0.2620310650440161,0.4381439767000699,0.10463276579655721,0.6040011546802976,0.16854201775788105
779,43.998,43.63,1.49,0.659080124397261,0.2599568240935261,0.43843979510004855,0.1038030834563622,0.6031956171106473,0.16821942711363247
780,44.061,43.69,1.48,0.6615516905817018,0.2579642033762012,0.4387711174580075,0.10300813260381503,0.6024313534207818,0.16791248095401898
781,44.122,43.74,1.5,0.6639716837902431,0.25605516988976024,0.43913861853080066,0.10224788183916354,0.6017095056892271,0.16762163268551525
782,44.164,43.8,1.51,0.6663395148948481,0.2542316480306273,0.43954295376435315,0.10152228862800776,0.6010311859566799,0.16734732196121124
783,44.225,43.85,1.5,0.6686546099859181,0.2524955181089957,0.43998475891797323,0.10083129921571182,0.6003974756204469,0.1670899744188713
784,44.286,43.91,1.52,0.6709164108247634,0.2508486148835774,0.4404646497004299,0.10017484854941212,0.5998094248553123,0.16685000143062134
785,44.347,43.96,1.52,0.6731243752992258,0.24929272611728176,0.44098322141777985,0.0995528602079313,0.5992680520608471,0.1666277998643399
786,44.369,44.02,1.51,0.6752779778820257,0.24782959115513917,0.4415410486330234,0.09896524633991241,0.5987743433351874,0.16642375185690908
787,44.431,44.07,1.5,0.6773767100913536,0.24646089952589073,0.44213868483774454,0.0984119076105109,0.59832925197533,0.1662382245995625
788,44.493,44.13,1.51,0.6794200809531352,0.2451882895687856,0.4427766621359549,0.09789273315700218,0.5979336980040012,0.16607157013563154
789,44.575,44.18,1.49,0.6814076174643187,0.24401334708721756,0.44345549094039965,0.09740760055366338,0.5975885677231473,0.1659241251710186
790,44.595,44.24,1.46,0.683338865056463,0.24293760403088693,0.44417565968160067,0.09695637578626211,0.597294713294071,0.16579621089769764
791,44.657,44.29,1.46,0.6852133880588461,0.24196253720818847,0.4449376345298792,0.09653891323644605,0.5970529523442051,0.16568813283045652
792,44.719,44.35,1.44,0.6870307701602775,0.24108956703048479,0.44574185913054304,0.09615505567628592,0.5968640676004522,0.16560018065696608
793,44.759,44.4,1.42,0.6887906148688472,0.24032005628980652,0.4465887543523234,0.09580463427317809,0.5967288065489481,0.16553262810113323
794,44.82,44.46,1.44,0.690492545968968,0.23965530897131399,0.4474787180490316,0.09548746860527785,0.5966478811209925,0.1654857327995775
795,44.883,44.51,1.46,0.6921362079752109,0.23909656910162408,0.44841212483428117,0.09520336668762232,0.5966219674047895,0.1654597361909668
796,44.925,44.57,1.46,0.6937212665825083,0.23864501963394613,0.44938932586903974,0.09495212500908494,0.5966517053825532,0.1654548634178878
797,45.028,44.62,1.48,0.6952474091122395,0.23830178137092717,0.45041064866173836,0.09473352858031563,0.5967376986924834,0.16547132324092945
798,45.049,44.68,1.51,0.6967143449535789,0.2380679119261519,0.4514763968806952,0.09454735099284822,0.5968805144151128,0.16550930796470928
799,45.09,44.73,1.5,0.6981218059993676,0.2379444047253312,0.45258685017867445,0.0943933544895997,0.5970806828835593,0.16556899337563577
800,45.172,44.79,1.49,0.6994695470756369,0.2379321880483292,0.4537422640294798,0.09427129004702156,0.5973386975172648,0.16565053869125027
801,45.213,44.84,1.52,0.7007573463638049,0.2380321241132947,0.454942869576554,0.09418089746917904,0.5976550146788688,0.16575408652101567
802,45.274,44.9,1.51,0.7019850058144865,0.2382450082042363,0.4561888734936245,0.09412190549400692,0.5980300535539107,0.16587976283844777
803,45.378,44.95,1.49,0.7031523515518363,0.23857156784339445,0.4574804578574985,0.09409403191192998,0.5984641960530929,0.16602767696454687
804,45.419,45.01,1.5,0.7042592342673476,0.23901246200974757,0.4588177800331547,0.09409698369695982,0.598957786736845,0.1661979215625668
805,45.439,45.06,1.49,0.705305529602053,0.23956828040494585,0.46020097257132153,0.09413045715030226,0.5995111327619412,0.16639057264420692
806,45.481,45.12,1.45,0.7062911385160994,0.2402395427679071,0.4616301431187438,0.09419413805642551,0.6001245038498986,0.16660568958733554
807,45.543,45.17,1.46,0.7072159876446914,0.24102669823924988,0.4631053743413251,0.09428770185148865,0.6007981322768593,0.16684331516535328
808,45.604,45.23,1.47,0.7080800296393895,0.24193012477669096,0.46462672386028775,0.09441081380400498,0.6015322128845979,0.16710347558829777
809,45.666,45.28,1.47,0.7088832434937289,0.24295012862250492,0.46619422420141815,0.0945631292076048,0.6023269031122221,0.16738618055578086
810,45.748,45.34,1.49,0.7096256348520451,0.24408694382415866,0.467807882757392,0.09474429358576143,0.6031823230480678,0.16769142332184486
811,45.77,45.39,1.53,0.7103072363002847,0.24534073180930546,0.46946768176312315,0.09495394290833,0.6040985555012459,0.16801918077182876
812,45.811,45.45,1.53,0.7109281076374846,0.24671158101640422,0.4711735782840733,0.09519170381970382,0.6050756460923,0.16836941351134754
813,45.872,45.5,1.54,0.7114883361265807,0.24819950658227688,0.4729255042174972,0.09545719387831916,0.6061136033624763,0.16874206596750452
814,45.934,45.56,1.58,0.7119880367232478,0.24980445008791313,0.4747233663066565,0.09575002180715951,0.6072123989011708,0.16913706650244145
815,45.975,45.61,1.58,0.7124273522815475,0.2515262793637778,0.47656704616809753,0.09606978775481766,0.6083719674912145,0.16955432753927882
816,46.036,45.67,1.57,0.71280645373524,0.2533647883557908,0.47845640033214554,0.09641608356659008,0.6095922072717394,0.1699937457004366
817,46.117,45.72,1.58,0.7131255402536795,0.2553196970530549,0.48039126029681944,0.0967884930650093,0.6108729799184672,0.17045520195827402
818,46.137,45.78,1.58,0.7133848393712764,0.25739065147830087,0.4823714325954151,0.09718659233916987,0.6122141108413285,0.17093856179796368
819,46.198,45.83,1.54,0.7135846070895803,0.2595772237419121,0.48439669887804193,0.09760995004216837,0.6136153893993723,0.17144367539252697
820,46.258,45.89,1.54,0.7137251279510649,0.2618789121603122,0.48646681600740055,0.09805812769597619,0.6150765691329443,0.171970377789994
821,46.299,45.94,1.52,0.7138067150837014,0.2642951414394363,0.4885815161690641,0.09853068000307762,0.6165973680130896,0.17251848911266743
822,46.36,46.0,1.5,0.7138297102153698,0.2668252629239373,0.4907405069964744,0.09902715516420446,0.6181774687080935,0.17308781476845875
823,46.482,46.05,1.51,0.7137944836571444,0.26946855491269284,0.4929434717107754,0.09954709520147927,0.6198165188669885,0.1736781456742275
824,46.502,46.11,1.55,0.713701434254505,0.27222422304106086,0.4951900692755006,0.10009003628624519,0.6215141314197633,0.17428925849098387
825,46.523,46.16,1.55,0.7135509893056419,0.2750914007301976,0.49747993456601575,0.10065550907080617,0.6232698848939262,0.17492091587071384
826,46.586,46.22,1.56,0.7133436044461899,0.2780691497035876,0.4998126785535235,0.10124303902322829,0.6250833237470214,0.17557286671448238
827,46.648,46.27,1.59,0.7130797634999101,0.28115646057077587,0.5021878885033886,0.10185214676426668,0.6269539587147088,0.17624484644137353
828,46.731,46.33,1.61,0.7127599782949905,0.28435225347813364,0.5046051281875561,0.1024823484053905,0.6288812671740616,0.17693657726777257
829,46.772,46.38,1.6,0.7123847884457732,0.28765537882634395,0.5070639381108959,0.10313315588680068,0.6308646935218087,0.17764776849649308
830,46.854,46.44,1.63,0.7119547610998007,0.29106461805420564,0.5095638357513753,0.10380407731431565,0.6329036495673251,0.17837811681530213
831,46.875,46.49,1.64,0.7114704906501007,0.294578684488335,0.5121043158140278,0.10449461729407579,0.6349975149402453,0.17912730660447296
832,46.916,46.55,1.63,0.7109325984125947,0.2981962242583823,0.5146848504987296,0.10520427726416665,0.6371456375126501,0.17989501025309124
833,46.979,46.6,1.62,0.7103417322684856,0.30191581727744704,0.5173048897818142,0.10593255582245159,0.6393473338358312,0.18068088848394165
834,47.02,46.66,1.64,0.7096985662714914,0.305735978287416,0.5199638617115728,0.10667894905008084,0.641601889591691,0.18148459068688758
835,47.082,46.71,1.61,0.7090038002198858,0.3096551579689314,0.5226611727176811,0.10744295083028144,0.6439085600588611,0.18230575526071519
836,47.164,46.77,1.58,0.7082581591934487,0.31367174411561816,0.525396207934577,0.10822405316213149,0.6462665705936279,0.1831440099634333
837,47.225,46.82,1.59,0.7074623930555662,0.31778406287205896,0.5281683315387637,0.10902174646909321,0.6486751171257291,0.18399897227099704
838,47.246,46.88,1.57,0.7066172759209037,0.32199038003479713,0.5309768870999365,0.10983551990210538,0.6511333666690334,0.18487024974435962
839,47.287,46.93,1.57,0.705723605589255,0.3262889024153796,0.5338211979457256,0.11066486163701716,0.6536404578470212,0.18575744040468714
840,47.349,46.99,1.6,0.7047822029463872,0.33067777926415065,0.5367005675397446,0.11150925916609425,0.6561955014328915,0.1866601331164974
841,47.41,47.04,1.62,0.7037939113329009,0.33515510375321206,0.5396142798725412,0.11236819958324891,0.6587975809040233,0.18757790797842155
842,47.451,47.1,1.63,0.7027595958822467,0.33971891451673997,0.5425615998650043,0.11324116986257277,0.6614457530104625,0.18851033672126802
843,47.513,47.15,1.66,0.7016801428289976,0.34436719724673975,0.5455417737838014,0.11412765712971844,0.6641390483571016,0.18945698311309328
844,47.595,47.21,1.69,0.7005564587883402,0.34909788634232053,0.5485540296684652,0.11502714892572695,0.6668764719992467,0.19041740337102372
845,47.614,47.26,1.7,0.6993894700076271,0.3539088666106183,0.5515975777698352,0.11593913346299727,0.6696570040513509,0.19139114657960926
846,47.675,47.32,1.71,0.6981801215907834,0.35879797501756056,0.5546716109996344,0.11686309987323035,0.6724796003087703,0.19237775511551636
847,47.737,47.37,1.74,0.6969293766964085,0.36376300248669596,0.5577753053910465,0.11779853844731925,0.6753431928825141,0.19337676507838564
848,47.779,47.43,1.73,0.6956382157105279,0.36880169574430804,0.5609078205702297,0.1187449408672666,0.678246690847041,0.1943877067276871
849,47.841,47.48,1.72,0.6943076353950921,0.37391175920896425,0.5640683002387678,0.1197018004302836,0.6811889809012491,0.19541010492538913
850,47.903,47.54,1.74,0.6929386480134957,0.37909085692355676,0.5672558726671099,0.12066861226527839,0.6841689280428724,0.1964434795842179
851,47.965,47.59,1.72,0.6915322804345642,0.3843366145277584,0.5704696511990767,0.12164487354196332,0.6871853762565453,0.19748734612123237
852,48.006,47.65,1.69,0.6900895732166523,0.3896466212686563,0.5737087347675155,0.12263008367283164,0.6902371492157979,0.1985412159163958
853,48.088,47.7,1.68,0.688611579673669,0.39501843204716414,0.57697220842117,0.12362374450829443,0.6933230509992322,0.19960459677580006
854,48.13,47.76,1.68,0.6870993649249773,0.4004495694976711,0.5802591438627687,0.12462536052533248,0.6964418668210536,0.2006769933991748
855,48.193,47.81,1.67,0.6855540049311848,0.40593752609829115,0.5835685999982693,0.12563443901010335,0.6995923637760468,0.20175790785130338
856,48.256,47.87,1.66,0.6839765855178086,0.41147976630905436,0.5868996234970982,0.12665049023503755,0.7027732915989552,0.20284684003694173
857,48.319,47.92,1.7,0.6823682013887193,0.41707372873539517,0.5902512493631484,0.1276730276310258,0.7059833834381144,0.2039432881788006
858,48.361,47.98,1.69,0.6807299551312165,0.42271682831431057,0.5936225015162516,0.12870156795532314,0.7092213566430989,0.2050467492981244
859,48.402,48.03,1.7,0.6790629562145517,0.42840645852056,0.5970123933838175,0.12973563145579906,0.7124859135660669,0.2061567196974215
860,48.445,48.09,1.75,0.6773683199837065,0.43413999359026595,0.6004199285023117,0.13077474203216324,0.7157757423764592,0.20727269544493332
861,48.506,48.14,1.74,0.6756471666502374,0.43991479075923046,0.6038441011282312,0.13181842739477234,0.7190895178886904,0.2083941728604178
862,48.567,48.2,1.74,0.6739006202820385,0.44572819251320583,0.6072838968582285,0.13286621922154881,0.7224259024024844,0.20952064900176784
863,48.607,48.25,1.76,0.6721298077939111,0.4515775288472832,0.610738293258043,0.1339176533134348,0.725783546555541,0.21065162215189384
864,48.688,48.31,1.76,0.6703358579408552,0.4574601195315041,0.6142062604999207,0.13497226974867163,0.7291610901882376,0.21178659230522165
865,48.73,48.36,1.73,0.6685199003159931,0.463373276379783,0.6176867620082442,0.13602961303605327,0.7325571632200913,0.2129250616531335
866,48.771,48.42,1.73,0.6666830643549669,0.46931430551928033,0.6211787551131142,0.13708923226720862,0.7359703865376842,0.21406653506770684
867,48.833,48.47,1.73,0.6648264783485401,0.4752805096574626,0.624681191711617,0.13815068126791993,0.739399372893714,0.21521052058316095
868,48.894,48.53,1.7,0.6629512684650148,0.4812691903442016,0.6281930189364682,0.13921351874848148,0.7428427278167677,0.21635652987447573
