,Time_Host,Time_Arduino,easingdata,CH1_Oxy,CH1_Deoxy,CH2_Oxy,CH2_Deoxy,CH3_Oxy,CH3_Deoxy
0,1.03,0.04,0.0,0.07944090011219099,0.28771984522190724,0.15320618345994302,0.9631254552654109,0.19958410703045346,0.0
1,1.05,0.1,0.0,0.07894100109337303,0.28662992491276695,0.15238195831469536,0.9573987074484576,0.19689782949424722,0.01672477560637325
2,1.072,0.16,0.0,0.07843278190549653,0.28552349576576264,0.15154323800607758,0.9517284264829267,0.19422217413341095,0.03338811274390953
3,1.092,0.21,0.0,0.07791622611477149,0.28440110374641003,0.15069002905347562,0.9461171515653886,0.19155794099794848,0.04998360185694916
4,1.113,0.27,0.0,0.07739132063073487,0.283263310354417,0.14982234442614167,0.9405673669142741,0.1889059121611367,0.06650489204745541
5,1.134,1.05,0.0,0.07685805583576369,0.2821106920150049,0.1489402036538817,0.9350814990132407,0.18626685099731252,0.08294569633198628
6,1.155,1.11,0.0,0.07631642571739468,0.28094383945414625,0.14804363293541717,0.9296619139364869,0.18364150149354364,0.09929979679023823
7,1.196,1.16,0.0,0.07576642800324598,0.2797633570598108,0.14713266524417173,0.924310914760691,0.18103058759613197,0.1155610496001662
8,1.279,1.22,0.0,0.07520806429831936,0.27856986223136554,0.14620734043123484,0.91903073906805,0.1784348125928192,0.13172338995499183
9,1.301,1.27,0.0,0.07464134022444534,0.2773639847193306,0.14526770532526131,0.9138235565447168,0.17585485853148566,0.14778083685770274
10,1.382,1.33,0.04,0.07406626556161916,0.2761463659577518,0.14431381382907157,0.9086914666787462,0.17329138567606053,0.1637274977889185
11,1.444,1.38,-0.04,0.07348285439096351,0.2749176583914866,0.14334572701272724,0.903636496561457,0.1707450320002918,0.17955757324424163
12,1.484,1.44,-0.11,0.07289112523905396,0.2736785248006679,0.14236351320288457,0.8986605987958108,0.16821641271995968,0.1952653611374123
13,1.546,1.5,-0.01,0.07229110122335569,0.27242963762442934,0.1413672480682775,0.8937656495148625,0.165706119864044,0.21084526106576923
14,1.607,1.55,-0.05,0.07168281019853422,0.27117167828564204,0.14035701470125228,0.8889534465125313,0.1632147218852538,0.22629177843477027
15,1.648,1.6,-0.12,0.0710662849033898,0.26990533651805815,0.13933290369533008,0.8842257074881248,0.16074276331019977,0.2415995284386688
16,1.751,1.66,-0.04,0.0704415631081245,0.26863130969697524,0.1382950132188077,0.87958406840541,0.15829076442937157,0.25676323989479866
17,1.772,1.71,-0.03,0.06980868776160255,0.2673503021743188,0.13724344908442887,0.8750300819665873,0.15585922102698557,0.2717777589292313
18,1.813,1.77,-0.13,0.06916770713823671,0.2660630246188586,0.1361783248151817,0.8705652162011701,0.15344860415068512,0.28663805251186825
19,1.875,1.82,-0.15,0.06851867498412692,0.26477019336214047,0.13509976170628193,0.8661908531695542,0.15105935992099748,0.3013392118393225
20,1.937,1.88,-0.07,0.06786165066209537,0.2634725297506037,0.1340078888833876,0.8619082877809813,0.14869190938037335,0.3158764555642051
21,1.979,1.93,-0.12,0.06719669929529144,0.2621707595042032,0.13290284335706246,0.8577187267256331,0.14634664838153938,0.3302451328697151
22,2.02,1.99,-0.17,0.06652389190906288,0.26086561208169773,0.13178477007344966,0.8536232875207362,0.14402394751477796,0.3444407263887483
23,2.123,2.04,-0.09,0.06584330557079839,0.25955782005261896,0.13065382196103092,0.8496229976708349,0.14172415207364455,0.35845885496699453
24,2.143,2.1,-0.07,0.06515502352744805,0.2582481184757646,0.1295101599732644,0.8457187939426013,0.13944758205855118,0.37229527626962244
25,2.185,2.15,-0.16,0.06445913534042012,0.2569372442839133,0.12835395312683973,0.8419115217545597,0.1371945322175782,0.3859458892312756
26,2.246,2.21,-0.07,0.06375573701752615,0.2556259356744323,0.12718537853526324,0.8382019346819602,0.13496527212382256,0.39940673634926926
27,2.309,2.27,-0.05,0.0630449311416035,0.25431493150556184,0.1260046214374875,0.8345906940768265,0.132760046288556,0.4126740058200797
28,2.369,2.32,-0.13,0.06232682699538767,0.25300497069836314,0.12481187522131917,0.8310783688030089,0.13057907430943935,0.4257440335194215
29,2.432,2.37,-0.14,0.06160154068214548,0.2516967916445915,0.12360734144135746,0.8276654350860367,0.12842255105301334,0.4386133048263805
30,2.473,2.43,-0.04,0.060869195241532385,0.2503911316209733,0.12239122983122419,0.8243522764776621,0.12629064687065936,0.45127845629213026
31,2.554,2.48,-0.09,0.060129920760118104,0.24908872621042955,0.12116375830986362,0.821139183934965,0.12418350784718389,0.4637362771537576
32,2.575,2.54,-0.11,0.05938385447602108,0.24779030873074623,0.11992515298170314,0.8180263560136685,0.12210125608112563,0.4759837106936935
33,2.659,2.6,-0.01,0.05863114087708989,0.2464966096711649,0.11867564813046518,0.8150138991749952,0.12004398999584535,0.4880178554452123
34,2.741,2.65,0.03,0.057871931792073825,0.24520835613736475,0.11741548620641644,0.812101828205068,0.11801178468044354,0.4998359662444051
35,2.761,2.7,-0.08,0.05710638647424091,0.2439262713053073,0.11614491780684912,0.8092900667454981,0.11600469225955544,0.511435455129032
36,2.802,2.76,-0.04,0.05633467167692788,0.24265107388444382,0.11486420164960877,0.806578447933496,0.11402274229109892,0.5228138920847043
37,2.844,2.81,0.01,0.05555696172054513,0.2413834775908648,0.1135736045395181,0.8039667151496005,0.11206594219109074,0.5339690056389261
38,2.906,2.87,-0.09,0.05477343855060567,0.2401241906311054,0.1122734013275848,0.8014545228709533,0.11013427768466577,0.544898683303699
39,2.968,2.92,-0.13,0.05398429178638848,0.23887391519749704,0.11096387486289945,0.7990414376280519,0.10822771328242106,0.5556009718676945
40,3.009,2.98,-0.05,0.05318971875988393,0.2376333469760735,0.10964531593712395,0.7967269390630345,0.10634619278117052,0.5660740775392998
41,3.069,3.04,-0.09,0.05238992454469892,0.2364031746679872,0.10831802322146727,0.7945104210875431,0.10448963978814119,0.5763163659420878
42,3.129,3.09,-0.11,0.051585121974610855,0.2351840795251898,0.10698230319604715,0.7923911931380166,0.1026579582675706,0.5863263619644864
43,3.253,3.14,-0.04,0.05077553165145045,0.23397673490087414,0.1056384700715309,0.7903684815260331,0.100851033108601,0.5961027494655753
44,3.273,3.2,-0.04,0.049961381941990395,0.2327818058148697,0.10428684570294249,0.7884414308811379,0.09906873071333379,0.6056443708390358
45,3.316,3.25,-0.13,0.049142908963541794,0.23159994853389082,0.1029277594955214,0.7866091056834443,0.09731089960390162,0.6149502264373758
46,3.336,3.31,-0.12,0.04832035655801508,0.23043181016635772,0.10156154830252753,0.7848704918832617,0.09557737104742368,0.6240194738587287
47,3.398,3.37,0.01,0.047493976254280396,0.22927802827150554,0.10018855631490596,0.7832244986050654,0.09386795969771519,0.632851427098798
48,3.459,3.42,-0.05,0.04666402721874239,0.22813923048263993,0.09880913494276074,0.7816699599332091,0.09218246425260726,0.6414455555708733
49,3.5,3.47,-0.09,0.045830776194101544,0.22701603414465904,0.09742364268861338,0.7802056367768543,0.09052066812571431,0.6498014829971274
50,3.583,3.53,0.01,0.04499449742630587,0.22590904596623662,0.09603244501242944,0.7788302188116606,0.08888234013150113,0.6579189861744799
51,3.644,3.58,0.0,0.04415547257971998,0.22481886168718299,0.09463591418840922,0.777542326495726,0.08726723518254499,0.6657979936181843
52,3.685,3.64,-0.09,0.04331399064056129,0.22374606576145661,0.09323442915356431,0.7763405131570107,0.08567509499793423,0.6734385840861461
53,3.745,3.69,-0.06,0.04247034780867839,0.22269123105616795,0.09182837534813183,0.7752232671491714,0.08410564882178119,0.6808409849868668
54,3.786,3.75,-0.02,0.041624847377780855,0.2216549185667609,0.09041814454791587,0.7741890140724378,0.08255861415085662,0.6880055706738513
55,3.847,3.81,-0.11,0.04077779960426992,0.22063767714843693,0.08900413468869044,0.7732361190559282,0.08103369747035555,0.6949328606293674
56,3.95,3.86,-0.11,0.03992952156485177,0.21964004326387554,0.08758674968283406,0.7723628890976852,0.0795305949967865,0.7016235175406328
57,3.969,3.91,-0.01,0.03908033700313916,0.21866254074738087,0.08616639922838927,0.771567575458668,0.07804899342695333,0.7080783452716989
58,4.033,3.97,-0.07,0.03823057616546777,0.2177056805856708,0.08474349861076567,0.7708483761068062,0.07658857069198095,0.7142982867344535
59,4.053,4.03,-0.06,0.03738057562617537,0.2167699607155682,0.08331846849732595,0.7702034382069862,0.07514899671532546,0.7202844216622346
60,4.116,4.08,0.0,0.03653067810262233,0.21585586583879252,0.08189173472510025,0.7696308606525852,0.07372993417372337,0.7260379642894764
61,4.178,4.13,-0.01,0.03568123226027571,0.21496386725382102,0.0804637280818755,0.7691286966339271,0.07233103926007778,0.7315602609406429
62,4.219,4.19,-0.11,0.03483259250821958,0.21409442270453144,0.07903488408090278,0.7686949562388885,0.07095196244733337,0.7368527875315629
63,4.321,4.25,-0.06,0.03398511878547332,0.21324797624524816,0.07760564272944574,0.7683276090809764,0.06959234925244609,0.7419171469862748
64,4.342,4.3,-0.02,0.03313917633850294,0.21242495812192055,0.07617644829136277,0.7680245869505388,0.06825184099959115,0.7467550665726194
65,4.383,4.36,-0.11,0.03229513549031037,0.21162578466937504,0.07474774904389005,0.7677837864851641,0.06693007558176182,0.7513683951600761
66,4.444,4.41,-0.13,0.03145337140148229,0.2108508582248327,0.07331999702877122,0.7676030718557133,0.06562668821989888,0.7557591004036036
67,4.506,4.46,-0.03,0.03061426382357691,0.21010056705811087,0.07189364779786285,0.7674802774647239,0.06434131221868254,0.759929265857403
68,4.568,4.52,-0.11,0.02977819684522957,0.20937528531901517,0.07046916015334173,0.7674132106540089,0.06307357971811357,0.7638810880225321
69,4.63,4.58,-0.15,0.028945558631361272,0.2086753730023591,0.06904699588265001,0.7673996544181058,0.061823122440002175,0.7676168733322629
70,4.691,4.63,-0.07,0.028116741155876684,0.20800117593082953,0.06762761948832138,0.7674373701200283,0.060589572428484936,0.7711390350790176
71,4.732,4.68,-0.06,0.02729213992824844,0.20735302575558676,0.06621149791284503,0.767524100205644,0.05937256278369713,0.774450090286696
72,4.793,4.74,-0.16,0.02647215371440184,0.2067312399741354,0.06479910025874219,0.767657570912975,0.05817172838773527,0.7775526565322655
73,4.834,4.79,-0.14,0.025657184252335485,0.20613612196477094,0.0633908975040508,0.7678354949728619,0.05698670662205887,0.7804494487205191
74,4.875,4.85,-0.1,0.024847635962943506,0.2055679610367934,0.061987362213445134,0.7680555742976056,0.05581713807550478,0.7831432758159171
75,4.937,4.91,-0.14,0.024043915656542243,0.20502703249562715,0.060588968245268084,0.7683155026543548,0.05466266724209661,0.7856370375354311
76,4.998,4.96,-0.18,0.023246432235630683,0.2045135977219765,0.05919619045479534,0.7686129683201318,0.05352294320781966,0.787933721006399
77,5.039,5.01,-0.1,0.02245559639441799,0.20402790426417083,0.057809504394067256,0.7689456567155808,0.05239762032552171,0.7900363973934169
78,5.122,5.07,-0.12,0.021671820315627442,0.20357018594288018,0.0564293860086188,0.7693112530146357,0.05128635887710442,0.7919482184981785
79,5.163,5.12,-0.17,0.02089551736503289,0.20314066296740574,0.05505631133141582,0.7697074447273645,0.05018882572218332,0.7936724133359067
80,5.204,5.18,-0.13,0.020127101784115087,0.20273954206273,0.05369075617426918,0.7701319242533153,0.0491046949324202,0.795212284691657
81,5.286,5.24,-0.12,0.019366988381168196,0.2023670166063793,0.05233319581697275,0.7705823914027891,0.048033648410766794,0.7965712056593666
82,5.328,5.29,-0.21,0.018615592221154133,0.2020232667739126,0.05098410469440548,0.7710565558835918,0.04697537649488593,0.7977526161662262
83,5.412,5.34,-0.21,0.01787332831459138,0.20170845969161957,0.04964395608184308,0.7715521397510268,0.045929578544029764,0.7987600194848329
84,5.431,5.4,-0.14,0.017140611305771953,0.2014227495948581,0.04831322177874174,0.7720668798191549,0.04489596350865532,0.7995969787356004
85,5.492,5.45,-0.21,0.01641785516061165,0.201166277990419,0.04699237179128962,0.7725985300315378,0.0438742504820447,0.8002671133820016
86,5.534,5.51,-0.27,0.015705472854427114,0.20093917382143767,0.045681874014042015,0.7731448637898277,0.042864169233178075,0.8007740957213644
87,5.594,5.57,-0.18,0.01500387605988716,0.20074155363367086,0.04438219391094339,0.7737036762387519,0.04186546072009997,0.8011216473740135
88,5.655,5.62,-0.2,0.014313474835321293,0.20057352174229906,0.04309379419600887,0.7742727865061857,0.040877877583016545,0.8013135357735567
89,5.718,5.67,-0.28,0.013634677313503695,0.20043517039871994,0.04181713451389952,0.7748500398970822,0.039901184616353,0.8013535706611037
90,5.82,5.73,-0.2,0.012967889390978168,0.20032657995705702,0.04055267112058274,0.775433310040154,0.03893515921899449,0.801245600586221
91,5.841,5.79,-0.15,0.012313514417955869,0.2002478190402789,0.03930085656422814,0.7760205009863876,0.03797959182194272,0.8009935094174387
92,5.882,5.84,-0.26,0.011671952888795864,0.20019894470590688,0.03806213936647135,0.7766095492586306,0.03703428629263574,0.8006012128651703
93,5.944,5.89,-0.25,0.011043602133055318,0.2001800026113451,0.03683696370418334,0.7771984258515735,0.036099060315204774,0.8000726550199685
94,5.985,5.95,-0.15,0.010428856007075176,0.20019102717892298,0.03562576909192433,0.7777851381814226,0.03517374574598059,0.7994118049090777
95,6.047,6.0,-0.26,0.009828104586055882,0.20023204176076673,0.03442899006533117,0.7783677319843271,0.034258188943595336,0.7986226530742419
96,6.151,6.06,-0.27,0.009241733856575314,0.2003030588036355,0.03324705586574832,0.7789442931623125,0.03335225107304352,0.7977092081737301
97,6.171,6.12,-0.21,0.008670125409510562,0.20040408001381904,0.03208039012643943,0.7795129495752235,0.032455808383080716,0.7966754936114856
98,6.213,6.17,-0.22,0.008113656133349858,0.20053509652206025,0.03092941056072245,0.7800718727769713,0.031568752456354154,0.7955255441962147
99,6.272,6.22,-0.3,0.00757269790790284,0.20069608904831857,0.029794528652373475,0.7806192796941706,0.030690990431666003,0.7942634028332172
100,6.334,6.28,-0.2,0.007047617298421828,0.2008870280661833,0.028676149348643213,0.7811534342451489,0.029822445197778786,0.7928931172517941
101,6.415,6.33,-0.19,0.006538775250145523,0.2011078739668749,0.027574670756228447,0.781672648897348,0.0289630555581938,0.7914187367711673
102,6.435,6.39,-0.24,0.006046526783282801,0.2013585772229533,0.02649048384053535,0.7821752861613237,0.028112776366362616,0.7898443091079415
103,6.517,6.45,-0.26,0.005571220688463927,0.20163907855205113,0.025423972128553875,0.7826597600198674,0.027271578630834015,0.7881738772282176
104,6.538,6.5,-0.18,0.0051131992226967375,0.20194930908112646,0.02437551141564475,0.7831245372910747,0.026439449589896236,0.7864114762474247
105,6.579,6.55,-0.24,0.0046727978058722945,0.202289190511817,0.023345469476543534,0.7835681389242851,0.02561639275532723,0.7845611303808309
106,6.661,6.61,-0.28,0.004250344717857774,0.2026586352874967,0.022334205780901166,0.7839891412276824,0.02480242792490046,0.782626849947538
107,6.723,6.66,-0.21,0.0038461607961911893,0.2030575467625759,0.021342071213687707,0.784386177026165,0.023997591163322,0.780612628430557
108,6.764,6.72,-0.2,0.003460559134369568,0.2034858193744208,0.020369407800786617,0.7847579367479525,0.023201934751302684,0.778522439595314
109,6.826,6.78,-0.27,0.003093844780706509,0.20394333881804808,0.019416548440095268,0.7851031694383739,0.022415527102494493,0.7763602346687584
110,6.888,6.83,-0.16,0.002746314437729843,0.2044299822236169,0.01848381663841151,0.785420683699539,0.02163845264805468,0.7741299395811985
111,6.909,6.88,-0.11,0.002418256162106086,0.20494561833674352,0.01757152625434528,0.785709348554983,0.020870811688653863,0.7718354522729841
112,6.971,6.94,-0.15,0.002109949065117788,0.20549010770175657,0.01667998124747063,0.7859680942387078,0.020112720213816923,0.7694806400681452
113,7.054,7.0,-0.09,0.0018216630137750508,0.20606330284813656,0.015809475433911247,0.786195912908288,0.019364309688585442,0.7670693371169705
114,7.115,7.05,0.02,0.0015536583327138533,0.2066650484804225,0.014960292248523422,0.7863918592819166,0.018625726807625177,0.7646053419092176
115,7.136,7.11,-0.04,0.0013061855071207613,0.20729518167173655,0.014132704513815538,0.7865550511993803,0.017897133217059293,0.7620924148592071
116,7.199,7.16,-0.11,0.0010794848870094489,0.2079535320608302,0.013326974215730205,0.7866846701069699,0.017178705204475335,0.7595342759635683
117,7.262,7.21,-0.06,0.0008737863932453109,0.2086399220522843,0.012543352286409676,0.7867799614663584,0.016470633357723505,0.7569346025319378
118,7.303,7.27,-0.06,0.0006893092257694798,0.2093541670192271,0.011782078394074667,0.7868402350874805,0.015773122193265893,0.7542970269905582
119,7.365,7.33,-0.2,0.0005262615745031733,0.21009607550772802,0.01104338074017274,0.7868648653853573,0.015086389754921022,0.7516251347585972
120,7.425,7.38,-0.16,0.0003848403334054943,0.2108654494420077,0.01032747586397666,0.7868532915607362,0.014410667183884571,0.7489224621970633
121,7.487,7.43,-0.07,0.00026523081812063377,0.21166208432976352,0.009634568454834085,0.7868050177044341,0.013746198260916994,0.746192494630355
122,7.528,7.49,-0.15,0.00016760648760917805,0.21248576946713074,0.008964851172282752,0.7867196128254077,0.013093238921583272,0.7434386644406876
123,7.631,7.54,-0.2,9.212867013507284e-05,0.2133362881429754,0.008318504474240103,0.7865967108028417,0.012452056745429976,0.7406643492358158
124,7.651,7.6,-0.13,3.8946293990431286e-05,0.21421341784229928,0.007695696453456329,0.78643601026284,0.011822930420019521,0.7378728700904205
125,7.692,7.66,-0.16,8.195623386250838e-06,0.21511693044849187,0.0070965826824058165,0.7862372743804698,0.011206149180798477,0.7350674898612909
126,7.753,7.71,-0.17,0.0,0.2160465924440298,0.006521306066783661,0.7860003306079276,0.010602012227821724,0.7322514115762031
127,7.794,7.76,-0.1,1.4469590737379486e-05,0.21700216510906717,0.005969996707765462,0.7857250703296522,0.010010828120391516,0.72942777689623
128,7.876,7.82,-0.11,5.170114233293186e-05,0.21798340471718705,0.005442771773194458,0.7854114484452622,0.009432914150722426,0.7265996646510785
129,7.917,7.87,-0.23,0.00011177774346728066,0.2189900627274695,0.004939735377883579,0.7850594828812321,0.00886859569781614,0.7237700894469055
130,7.979,7.93,-0.2,0.00019476859510079015,0.22002188597206843,0.00446097847324141,0.7846692540322727,0.008318205562815078,0.7209420003459605
131,8.021,7.99,-0.16,0.00030072878972104854,0.22107861683865354,0.004006578746438975,0.7842409041334966,0.007782083287173267,0.7181182796174362
132,8.083,8.04,-0.26,0.00042969910019276106,0.22215999344726503,0.0035766005293277076,0.7837746365645901,0.007260574455010987,0.7153017415590752
133,8.124,8.1,-0.27,0.0005817057788803892,0.22326574982130734,0.003171094717296095,0.7832707150873702,0.006754029981018358,0.712495131389305
134,8.186,8.15,-0.21,0.0007567603676767999,0.22439561605257885,0.002790098698215786,0.7827294630182557,0.006262805385272089,0.7097011242097973
135,8.249,8.21,-0.24,0.000954859519515187,0.22554931846035545,0.0024336362915997095,0.7821512623372618,0.005787260056333512,0.7069223240383558
136,8.371,8.26,-0.24,0.001175984831877861,0.2267265797446347,0.00210171769806689,0.7815365527351609,0.005327756503999277,0.7041612629120126
137,8.391,8.32,-0.19,0.0014201026927633089,0.22792711913372687,0.0017943394591783174,0.7808858306005538,0.00488465960309596,0.7014204000601635
138,8.411,8.37,-0.19,0.0016871641395538248,0.22915065252641864,0.0015114844276930878,0.7801996479486638,0.004458335829763367,0.6987021211474566
139,8.472,8.43,-0.33,0.0019771047312370353,0.2303968926289459,0.001253121748306469,0.7794786112936382,0.004049152491748234,0.6960087375860498
140,8.534,8.48,-0.36,0.0022898444344589806,0.2316655490870353,0.0010192068489560955,0.7787233804660784,0.003657476954307933,0.6933424859168222
141,8.575,8.54,-0.32,0.0026252875239173687,0.23295632861330345,0.000809681442807117,0.7779346673774837,0.0032836758633675548,0.6907055272592584
142,8.637,8.59,-0.4,0.0029833224976312804,0.23426893511031782,0.0006244735410502326,0.7771132347331892,0.0029281143675512285,0.6880999468300385
143,8.719,8.65,-0.43,0.0033638220076302565,0.23560306978967396,0.0004634974766523863,0.7762598946953059,0.002591155340632536,0.6855277535307792
144,8.739,8.7,-0.36,0.003766642806588168,0.2369584312875108,0.00032665393918688114,0.7753755074971636,0.002273158605866475,0.6829908796056978
145,8.801,8.76,-0.36,0.004191625710897018,0.2383347157768729,0.00021383002084872892,0.7744609800107658,0.001974480163606492,0.6804911803701081
146,8.841,8.81,-0.41,0.004638595580635786,0.23973161707722931,0.00012489927373809722,0.7735172642687326,0.0016954714235786607,0.6780304340106403
147,8.903,8.87,-0.36,0.005107361316845106,0.2411488267613344,5.9721778473513353e-05,0.7725453559421867,0.0014364784431886914,0.6756103414579244
148,8.965,8.92,-0.33,0.005597715876485867,0.242586034259455,1.8144224190692345e-05,0.7715462927760428,0.0011978411732760522,0.6732325263322124
149,9.026,8.98,-0.43,0.006109436305444763,0.2440429269607989,0.0,0.7705211529831351,0.0009798927127796884,0.6708985349621388
150,9.087,9.03,-0.43,0.006642283789942895,0.24551919031185046,5.109297995567156e-06,0.7694710535986379,0.0007829585738277664,0.6686098364765958
151,9.149,9.09,-0.38,0.00719600372670223,0.2470145079112846,3.327922792385477e-05,0.7683971487962794,0.0006073559588019689,0.6663678229694686
152,9.17,9.14,-0.48,0.007770325812231573,0.24852856160114034,8.430394362769556e-05,0.7673006281678784,0.0004533930509404171,0.6641738097367279
153,9.233,9.2,-0.54,0.008364964151597624,0.2500610315539665,0.00015796478137454186,0.7661827149677968,0.00032136832002856733,0.6620290355851094
154,9.293,9.25,-0.42,0.008979617387039153,0.2516115963556953,0.0002540304101450778,0.765044664324054,0.00021156984469568955,0.6599346632113318
155,9.335,9.31,-0.46,0.009613968846761507,0.2531799330840001,0.00037225699392158664,0.7638877614179929,0.00012427465279309815,0.6578917796505189
156,9.397,9.36,-0.58,0.01026768671421536,0.2547657173818559,0.0005123883659817004,0.7627133196344612,5.974808128489626e-05,0.6559013967922631
157,9.458,9.41,-0.55,0.010940424218120382,0.25636862352601497,0.0006741562151697292,0.761522678684575,1.8243157052869622e-05,0.6539644519625616
158,9.52,9.47,-0.54,0.011631819843450528,0.25798832449014264,0.0008572802840853646,0.760317202703325,0.0,0.6520818085697045
159,9.561,9.53,-0.65,0.012341497563548656,0.2596244920024819,0.0010614685790967633,0.7590982783245939,5.245249795289216e-06,0.6502542568122219
160,9.603,9.58,-0.64,0.013069067093473696,0.2612767965981685,0.0012864175920414324,0.7578673127366031,3.419151752972741e-05,0.6484825144471804
161,9.665,9.64,-0.58,0.013814124164609663,0.2629449076666445,0.001531812533431603,0.7566257317213254,8.703686347044904e-05,0.6467672276173146
162,9.728,9.69,-0.67,0.014576250820494407,0.26462849349486,0.0017973275769505891,0.755374977681727,0.0001639643020179412,0.645108971735539
163,9.829,9.75,-0.76,0.015355015733756045,0.266327221307051,0.0020826261150041474,0.7541165076607916,0.0002651413348947048,0.6435082524253324
164,9.85,9.8,-0.7,0.01614997454398032,0.2680407573018139,0.002387361025070061,0.7528517913561925,0.00039071951352469546,0.6419655065153127
165,9.893,9.86,-0.69,0.016960670216282503,0.26976876668697186,0.002711174946570472,0.7515823091342874,0.0005408340314887328,0.6404811030861196
166,9.954,9.91,-0.76,0.017786633420314824,0.271510913712461,0.0030537005679780677,0.7503095500468846,0.0007156033478453282,0.639055344567577
167,10.015,9.97,-0.67,0.018627382929392405,0.27326686170132475,0.0034145609238585735,0.7490350098540687,0.0009151288420126746,0.6376884678839754
168,10.056,10.02,-0.66,0.019482426039369984,0.27503627307891626,0.0037933697015588358,0.7477601890562596,0.0011394945008467259,0.6363806456451051
169,10.119,10.08,-0.76,0.02035125900685519,0.27681880940054454,0.004189731557269321,0.7464865909385549,0.0013887666385219895,0.6351319873804102
170,10.202,10.13,-0.8,0.021233367506300074,0.27861413137802715,0.004603242441206331,0.7452157196302642,0.0016629936498102937,0.6339425408134229
171,10.243,10.19,-0.75,0.02212822710547366,0.28042189890584,0.005033489931661116,0.7439490781824009,0.0019622057973350043,0.6328122931734691
172,10.263,10.24,-0.86,0.023035303758787627,0.28224177108765697,0.005480053577655358,0.7426881666656745,0.0022864150333214766,0.6317411725415341
173,10.325,10.3,-0.94,0.02395405431791499,0.28407340626403493,0.005942505249922262,0.7414344802912952,0.0026356148562579488,0.630729049227155
174,10.387,10.35,-0.86,0.024883927059100034,0.2859164620418508,0.006420409499901759,0.7401895075567382,0.003009780202743836,0.629775737173224
175,10.447,10.41,-0.86,0.025824362226511285,0.28777059532584004,0.006913323926413798,0.7389547284184662,0.0034088673746521156,0.6288809953856472
176,10.508,10.46,-0.99,0.026774792590932746,0.2896354623522872,0.0074207995496591486,0.737731612493478,0.0038328140015755755,0.6280445293849582
177,10.57,10.52,-0.92,0.0277346440230193,0.2915107187247137,0.00794238119217875,0.7365216172915497,0.004281539038389469,0.6272659926771728
178,10.611,10.57,-0.91,0.028703336080269388,0.2933960194513675,0.008477607866379966,0.7353261864802543,0.00475494279765171,0.6265449882413814
179,10.674,10.63,-0.99,0.02968028260680344,0.2952910189844344,0.009026013168217656,0.7341467481851413,0.00525290701645589,0.6258810700318539
180,10.736,10.68,-0.99,0.030664892344979187,0.2971953712611534,0.009587125676598805,0.732984713327727,0.005775294957242873,0.6252737444927933
181,10.778,10.74,-0.89,0.03165656955782846,0.2991087297473422,0.010160469358070336,0.7318414740040261,0.0063219515419710316,0.6247224720842038
182,10.838,10.79,-0.93,0.032654714661270234,0.3010307474840713,0.010745563976360057,0.7307184019061931,0.006892703518947581,0.6242266688175302
183,10.92,10.85,-0.94,0.033658724865036696,0.3029610771383141,0.01134192550636327,0.7296168467894215,0.007487359661535344,0.6237857077998036
184,10.941,10.9,-0.88,0.03466799482124011,0.30489937105833587,0.011949066552191986,0.7285381349857146,0.008105710997892169,0.6233989207849983
185,11.003,10.96,-0.88,0.03568191727950873,0.3068452813343889,0.012566496768927396,0.7274835679655682,0.008747531070872307,0.6230655997311875
186,11.066,11.01,-0.98,0.036699883747620864,0.30879845986501764,0.013193723287720024,0.726454420948244,0.009412576227194611,0.6227849983620244
187,11.127,11.07,-0.89,0.03772128515655594,0.3107585584290785,0.013830251143847774,0.7254519415612878,0.01010058593494872,0.6225563337311231
188,11.169,11.12,-0.84,0.038745512528862304,0.31272522876346964,0.014475583707292024,0.7244773485501725,0.010811283128464903,0.622378787788047
189,11.23,11.18,-0.9,0.03977195764921707,0.31469812264653435,0.015129223115353408,0.723531830539143,0.011544374579514535,0.6222515089447865
190,11.293,11.23,-0.91,0.040800013736025396,0.3166768919871336,0.01579067070680681,0.7226165448444304,0.012299551293754731,0.6221736136417262
191,11.313,11.29,-0.83,0.04182907611288982,0.3186611889193994,0.016459427457092276,0.7217326163409536,0.013076488931298797,0.6221441879120851
192,11.375,11.34,-0.86,0.04285854287878587,0.32065066590311403,0.0171349944140546,0.7208811363834079,0.013874848250267791,0.6221622889437358
193,11.436,11.4,-0.89,0.0438878155757968,0.3226449758295455,0.017816873133760843,0.7200631617823823,0.014694275572140068,0.6222269466372491
194,11.477,11.45,-0.81,0.044916299853280266,0.32464377213245865,0.01850456611592414,0.7192797138359831,0.015534403267676014,0.6223371651589755
195,11.54,11.51,-0.74,0.04594340612736752,0.3266467089038565,0.01919757723845254,0.718531777417359,0.01639485026216428,0.6224919244878993
196,11.603,11.56,-0.83,0.04696855023473118,0.3286534410137762,0.01989541219062599,0.7178203001184982,0.017275222558713024,0.6226901819549704
197,11.665,11.62,-0.75,0.047991154079591085,0.33066362423328677,0.020597578904376808,0.7171461914508038,0.01817511377830302,0.6229308737736404
198,11.727,11.67,-0.72,0.049010646272954796,0.33267691535979504,0.021303587983121677,0.7165103221031404,0.01909410571533637,0.6232129165603574
199,11.788,11.73,-0.78,0.05002646276310481,0.33469297234389866,0.02201295312757672,0.7159135232582248,0.02003176890743595,0.6235352088438267
200,11.829,11.78,-0.78,0.0510380474563432,0.33671145441730943,0.022725191557965742,0.7153565859683849,0.02098766321825908,0.6238966325619261
201,11.889,11.84,-0.68,0.05204485282699948,0.33873202222167365,0.023439824432002525,0.714840260591874,0.021961338432084615,0.6242960545452417
202,11.951,11.89,-0.7,0.05304634051571211,0.34075433793825843,0.02415637725800696,0.7143652562909095,0.022952334858913192,0.6247323279862257
203,12.032,11.95,-0.72,0.05404198191499849,0.34277806541842226,0.02487438030250989,0.7139322405923674,0.023960183948794976,0.6252042938929755
204,12.052,12.0,-0.66,0.05503125874112889,0.3448028703145879,0.025593368991713657,0.7135418390116846,0.024984408914088825,0.6257107825265192
205,12.093,12.06,-0.6,0.0560136635913251,0.346828420211141,0.026312884306215596,0.7131946347400945,0.02602452535836862,0.6262506148202902
206,12.177,12.11,-0.7,0.056988700485318886,0.3488543847543957,0.027032473168454647,0.7128911683949538,0.027080041910709788,0.6268226037803135
207,12.198,12.16,-0.61,0.05795588539031791,0.3508804357806646,0.02775168882238372,0.7126319378327564,0.028150460864108093,0.6274255558645916
208,12.259,12.22,-0.55,0.05891474672844021,0.35290624744159893,0.028470091204907205,0.712417398024429,0.029235278816807226,0.6280582723402484
209,12.301,12.28,-0.61,0.059864825865696455,0.35493149632626,0.029187247308665946,0.7122479609925148,0.030333987315333905,0.6287195506171628
210,12.402,12.33,-0.57,0.06080567758162978,0.3569558615797457,0.029902731535782868,0.7121239958098105,0.03144607349805974,0.6294081855569983
211,12.423,12.39,-0.47,0.06173687051877262,0.3589790250184935,0.030616126042193884,0.7120458286589729,0.0325710207381404,0.6301229707565908
212,12.464,12.44,-0.51,0.06265798761114781,0.3610006712425176,0.03132702107219367,0.7120137429524422,0.03370830928472144,0.6308626998045453
213,12.524,12.5,-0.54,0.06356862649110757,0.3630204877448305,0.0320350152828388,0.7120279795117486,0.03485741690134293,0.6316261675097133
214,12.586,12.55,-0.47,0.06446839987385565,0.36503816501822345,0.032739716057876456,0.7120887368049167,0.036017819500525204,0.6324121711000289
215,12.628,12.61,-0.44,0.06535693591904324,0.36705339665943565,0.03344073981091201,0.7121961712402903,0.03718899177356419,0.6332195113900441
216,12.689,12.66,-0.54,0.06623387856887522,0.3690658794706119,0.03413771227758927,0.712350397514733,0.03837040781459299,0.6340469939155224
217,12.77,12.72,-0.48,0.06709888786220698,0.3710753135579012,0.034830268796613204,0.7125514890139437,0.03956154173798172,0.6348934300336367
218,12.811,12.77,-0.44,0.06795164022415326,0.37308140242710175,0.03551805457949168,0.7127994782625992,0.04076186828816057,0.6357576379876341
219,12.852,12.83,-0.47,0.06879182873076636,0.37508385307635345,0.036200724968907076,0.7130943574221141,0.04197086344095153,0.6366384439352492
220,12.914,12.88,-0.49,0.06961916334837398,0.3770823760859866,0.036877945685636716,0.713436078834013,0.043188004995483475,0.6375346829406141
221,12.975,12.94,-0.36,0.07043337114721748,0.3790766857057161,0.03754939306391997,0.7138245556071956,0.0444127731557639,0.6384451999297743
222,13.037,12.99,-0.4,0.0712341964891086,0.3810664999393535,0.03821475427513637,0.7142596622476034,0.045644651100993416,0.6393688506101697
223,13.139,13.05,-0.45,0.07202140118891173,0.38305154062711855,0.038873727539613545,0.7147412353288923,0.046883125543731835,0.6403045023546003
224,13.16,13.1,-0.34,0.07279476464974934,0.3850315335254862,0.039526022326330755,0.7152690742027363,0.04812768727506327,0.6412510350503343
225,13.202,13.16,-0.29,0.07355408397192158,0.3870062083842894,0.040171359540241994,0.7158429417473436,0.0493778316959559,0.6422073419141184
226,13.264,13.21,-0.4,0.07429917403561972,0.38897529902061384,0.0408094716969261,0.7164625651526856,0.05063305933405583,0.643172330273973
227,13.306,13.27,-0.31,0.07502986755758359,0.39093854338896306,0.04144010308428178,0.7171276367408961,0.051892876345201504,0.6441449223187692
228,13.366,13.32,-0.23,0.07574601512191534,0.3928956836472437,0.04206300991102225,0.7178378148202769,0.053156794999002464,0.6451240558166629
229,13.448,13.38,-0.33,0.07644748518532261,0.39484646621821207,0.04267796044177981,0.7185927245712551,0.05442433414788003,0.646108684803545
230,13.509,13.43,-0.34,0.07713416405711883,0.3967906418461269,0.04328473511867575,0.7193919589625827,0.05569501967901367,0.6470977802427483
231,13.53,13.49,-0.22,0.07780595585435358,0.39872796564843577,0.043883126669232275,0.7202350796961037,0.05696838494868539,0.6480903306572797
232,13.591,13.54,-0.24,0.07846278243247695,0.4006581971623563,0.044472940200517744,0.7211216181784583,0.05824397119855252,0.6490853427358618
233,13.633,13.6,-0.25,0.07910458329195265,0.4025811003861912,0.04505399327943169,0.722051076518016,0.059521327953399795,0.650081841914098
234,13.674,13.65,-0.19,0.07973131546123649,0.40449644381512745,0.045626115999056555,0.7230229285451968,0.06080001339995213,0.6510788729320062
235,13.737,13.71,-0.13,0.0803429533565569,0.40640400047107894,0.04618915103103851,0.7240366208541157,0.06207959474638971,0.6520755003689447
236,13.8,13.76,-0.22,0.08093948861897277,0.40830354792590057,0.046742953664006506,0.7250915738632698,0.06335964856228284,0.6530708091567078
237,13.861,13.82,-0.16,0.08152092992922273,0.41019486831718577,0.04728739182807269,0.7261871828929347,0.06463976109874209,0.6540639050714314
238,13.924,13.87,-0.11,0.0820873028009105,0.41207774835590605,0.047822346105471154,0.7273228192571024,0.06591952858865531,0.6550539152049122
239,14.011,13.93,-0.15,0.08263864935259163,0.4139519793253216,0.048347709727391594,0.7284978313681115,0.06719855752694487,0.6560399884159825
240,14.029,13.98,-0.14,0.08317502805934397,0.415817357070875,0.048863388557040865,0.7297115458525283,0.06847646493082733,0.6570212957626199
241,14.091,14.04,-0.03,0.08369651348443277,0.41767368198106425,0.04936930105892177,0.7309632686772717,0.06975287858011087,0.6579970309153871
242,14.133,14.09,-0.08,0.08420319599173313,0.4195207589594334,0.04986537825427614,0.7322522862852219,0.07102743723762686,0.6589664105526168
243,14.235,14.15,-0.15,0.08469518143963421,0.4213583973877851,0.05035156366260793,0.7335778667395588,0.0722997908499587,0.6599286747374925
244,14.256,14.2,-0.1,0.08517259085720266,0.4231864110805559,0.05082781322918319,0.734939260875985,0.07356960072870207,0.660883087276874
245,14.298,14.26,-0.11,0.08563556010342664,0.4250046182300833,0.05129409523840977,0.7363357034618417,0.07483653971254882,0.6618289360614443
246,14.338,14.31,-0.22,0.08608423951039215,0.42681284134228836,0.05175039021303373,0.7377664143609568,0.07610029231050357,0.6627655333866913
247,14.422,14.37,-0.15,0.0865187935112552,0.42861090716220696,0.05219669079914075,0.7392305997029541,0.07736055482651942,0.6636922162544032
248,14.462,14.42,-0.09,0.08693940025387505,0.43039864658881305,0.05263300163701636,0.7407274530556751,0.07861703546579756,0.6646083466546717
249,14.524,14.48,-0.15,0.08734625120096814,0.43217589457869254,0.05305933921799891,0.7422561565992459,0.07986945442295212,0.665513311828717
250,14.604,14.53,-0.16,0.08773955071762805,0.4339424900383784,0.053475731727534295,0.7438158823001491,0.08111754395221465,0.6664065245130631
251,14.624,14.59,-0.07,0.08811951564703378,0.4356982757054943,0.05388221887469737,0.7454057930834835,0.08236104841985864,0.6672874231656059
252,14.664,14.64,-0.11,0.08848637487515305,0.437443098019107,0.05427885170848577,0.7470250440013905,0.08359972433904918,0.6681554721739608
253,14.726,14.7,-0.17,0.08884036888523278,0.43917680697981776,0.05466569242120941,0.7486727833954523,0.08483334038734432,0.6690101620462966
254,14.79,14.75,-0.11,0.0891817493028627,0.4408992560001235,0.055042814139301094,0.7503481540508001,0.08606167740709678,0.6698510095847142
255,14.851,14.81,-0.06,0.08951077843241013,0.44261030174546695,0.05541030070188825,0.7520502943396005,0.08728452838902317,0.6706775580411796
256,14.892,14.86,-0.15,0.08982772878564546,0.44430980396624226,0.0557682464275008,0.753778339351476,0.08850169843921185,0.6714893772561343
257,14.974,14.91,-0.09,0.09013288260338918,0.4459976253209818,0.05611675586932327,0.7555314220084027,0.08971300472983966,0.6722860637801439
258,14.994,14.97,-0.01,0.09042653137100973,0.44767363119101455,0.05645594355942542,0.7573086741617412,0.09091827643388177,0.673067240979125
259,15.055,15.03,-0.06,0.09070897532859375,0.44933768948697556,0.05678593374244626,0.7591092276692342,0.09211735464412359,0.6738325591237684
260,15.117,15.08,-0.07,0.09098052297659226,0.45098967044765736,0.05710686009926098,0.7609322154499581,0.0933100922768201,0.6745816954636862
261,15.178,15.14,0.05,0.09124149057771351,0.45262944643181197,0.05741886546121742,0.7627767725153478,0.09449635396040178,0.6753143542866049
262,15.22,15.19,-0.02,0.09149220165579322,0.45425689170357425,0.05772210151557748,0.764642036974426,0.09567601590968973,0.6760302669625924
263,15.281,15.25,-0.06,0.09173298649232271,0.4558718822121778,0.05801672850283267,0.7665271510112476,0.09684896578614274,0.6767291919729647
264,15.364,15.3,-0.01,0.09196418162126457,0.457474295366605,0.05830291490658617,0.7684312618324332,0.09801510254471213,0.6774109149232113
265,15.385,15.36,0.02,0.09218612932275425,0.45906400980574613,0.05858083713671804,0.7703535225825574,0.0991743362679167,0.6780752485390651
266,15.447,15.41,-0.08,0.09239917711627185,0.46064090516455947,0.05885067920657078,0.7722930932251619,0.10032658798775937,0.6787220326447939
267,15.508,15.47,-0.05,0.09260367725386032,0.46220486183671233,0.05911263240489469,0.7742491413873529,0.10147178949609707,0.6793511341228889
268,15.548,15.52,0.01,0.09279998621395959,0.46375576073424135,0.05936689496328296,0.7762208431662684,0.10260988314407188,0.6799624468544817
269,15.61,15.58,-0.06,0.09298846419642422,0.4652934830448993,0.059613671719819995,0.7782073838960007,0.10374082163120132,0.6805558916400456
270,15.712,15.63,-0.1,0.09316947461928488,0.4668179099880513,0.05985317377965998,0.7802079588738005,0.10486456778471039,0.6811314161001885
271,15.733,15.69,0.01,0.0933433836178051,0.46832892257021147,0.06008561817324302,0.7822217740446078,0.10598109432967037,0.6816889945565014
272,15.775,15.74,-0.05,0.0935105595463811,0.46982640134144016,0.06031122751284869,0.7842480466430838,0.10709038365049497,0.6822286278924289
273,15.836,15.8,-0.1,0.09367137248383049,0.4713102261537889,0.0605302296481645,0.7862860057923734,0.10819242754432278,0.6827503433940314
274,15.897,15.85,-0.04,0.09382619374260887,0.47278027592279814,0.060742857321509046,0.7883348930588712,0.10928722696680036,0.6832541945703743
275,15.937,15.91,-0.02,0.09397539538248272,0.474236428392747,0.060949347823313474,0.7903939629622067,0.11037479177077072,0.68374026095315
276,16.0,15.96,-0.1,0.09411934972916748,0.4756785599060568,0.06114994264843761,0.7924624834395423,0.11145514043835168,0.6842086478751133
277,16.064,16.01,-0.0,0.0942584288984064,0.47710654517713663,0.061344887153859204,0.7945397362632457,0.11252829980686745,0.6846594862269844
278,16.106,16.07,0.06,0.09439300432592576,0.47852025707107076,0.061534430218229096,0.7966250174111459,0.11359430478908678,0.6850929321925838
279,16.167,16.12,-0.01,0.09452344630366954,0.47991956638779776,0.06171882390374178,0.7987176373888509,0.11465319808822802,0.6855091669620768
280,16.23,16.18,-0.02,0.09465012352269359,0.4813043416527122,0.06189832312072723,0.8008169215039715,0.11570502990822104,0.6859083964232605
281,16.291,16.23,0.07,0.09477340262309188,0.4826744489148465,0.062073185295327016,0.8029222100925112,0.11674985765976488,0.6862908508307665
282,16.334,16.29,0.03,0.09489364775133388,0.48402975155388284,0.06224367004057967,0.8050328586979866,0.1177877456627667,0.6866567844529107
283,16.396,16.34,-0.01,0.09501122012540084,0.4853701100972046,0.0624100388311997,0.8071482382040315,0.11881876484576928,0.6870064751957714
284,16.437,16.4,0.03,0.09512647760811725,0.48669538204803964,0.06257255468229078,0.8092677349214039,0.11984299244298662,0.68734022420388
285,16.498,16.45,0.02,0.09523977428908963,0.4880054217254756,0.06273148183220653,0.8113907506304495,0.12086051168957802,0.6876583554366855
286,16.56,16.51,-0.07,0.09535146007567773,0.48930008011683807,0.0628870854297567,0.8135167025801879,0.12187141151578607,0.6879612152198428
287,16.601,16.57,-0.03,0.09546188029342399,0.49057920474273614,0.06303963122593047,0.8156450234454248,0.12287578624053688,0.6882491717704382
288,16.663,16.62,0.01,0.0955713752963517,0.4918426395349953,0.06318938527026877,0.8177751612436344,0.12387373526506006,0.688522614695472
289,16.705,16.67,-0.07,0.09568028008752093,0.49309022472766406,0.06333661361197875,0.8199065792137012,0.12486536276702603,0.6887819544631948
290,16.767,16.73,-0.08,0.09578892395019484,0.49432179676135035,0.06348158200584864,0.8220387556589154,0.12585077739563832,0.6890276218471886
291,16.809,16.78,0.01,0.09589763008992426,0.49553718820128556,0.06362455562300127,0.8241711837568318,0.12683009196806405,0.6892600673433152
292,16.871,16.84,-0.02,0.0960067152878271,0.49673622766959374,0.0637657987665331,0.8263033713385798,0.12780342316754056,0.6894797605598254
293,16.933,16.89,-0.07,0.09611648956531964,0.4979187397921961,0.06390557459210663,0.8284348406399601,0.12877089124345256,0.6896871895810397
294,17.016,16.95,0.01,0.09622725586055303,0.4990845451605925,0.06404414483358288,0.830565128026359,0.12973261971365044,0.6898828603050575
295,17.036,17.0,0.04,0.09633930971681215,0.5002334603085122,0.06418176953380637,0.8326937836931695,0.13068873506927206,0.6900672957559483
296,17.099,17.06,-0.03,0.09645293898313816,0.501365297703193,0.0643187067806954,0.8348203713430845,0.13163936648232266,0.6902410353709755
297,17.181,17.11,0.01,0.09656842352742556,0.5024798657509904,0.06445521244882839,0.8369444678414528,0.13258464551626423,0.6904046342636073
298,17.201,17.17,0.05,0.0966860349622252,0.5035769688171302,0.06459153994674834,0.8390656628509147,0.13352470583987305,0.6905586624632586
299,17.283,17.23,-0.03,0.09680603638345954,0.504656407259652,0.06472793997022881,0.8411835584466685,0.13445968294463126,0.6907037041328357
300,17.304,17.28,-0.05,0.0969286821222218,0.5057179774778491,0.06486466026174073,0.843297768713896,0.1353897138659108,0.6908403567652254
301,17.366,17.33,0.05,0.09705421750979605,0.5067614719756806,0.06500194537633076,0.8454079193290541,0.13631493690818802,0.690969230359882
302,17.426,17.39,0.02,0.09718287865600864,0.5077866794406043,0.06514003645408803,0.8475136471267749,0.137235491374492,0.6910909465806668
303,17.488,17.44,-0.05,0.09731489224099453,0.5087933848381077,0.06527917099933352,0.849614599654034,0.1381515173002423,0.6912061378960704
304,17.55,17.5,-0.0,0.09745047532043292,0.5097813695219684,0.0654195826666069,0.8517104347131663,0.13906315519159804,0.691315446702846
305,17.59,17.55,0.0,0.09758983514428625,0.5107504113599678,0.0655615010534554,0.8538008198952477,0.13997054576841642,0.6914195244339322
306,17.65,17.61,-0.09,0.09773316898906195,0.5117002848744988,0.0657051514999633,0.8558854321053372,0.14087382971188195,0.6915190306515205
307,17.712,17.66,0.0,0.09788066400359692,0.5126307613974126,0.06585075489490401,0.8579639570811606,0.14177314741681094,0.6916146321263104
308,17.754,17.72,0.05,0.09803249706833804,0.5135416092385491,0.06599852748837437,0.8600360889069701,0.1426686387485759,0.6917070019042983
309,17.814,17.77,0.03,0.09818883466806955,0.5144325938676144,0.06614868071078127,0.8621015295245058,0.14356044280454544,0.6917968183627993
310,17.937,17.83,0.04,0.0983498327780189,0.5153034781093481,0.06630142099807809,0.8641599882431746,0.14444869767991134,0.6918847642576442
311,17.957,17.89,0.13,0.09851563676326947,0.5161540223521751,0.06645694962318115,0.866211181251703,0.14533354023779194,0.6919715257635528
312,17.978,17.94,0.11,0.09868638129142465,0.5169839847706335,0.0666154625335352,0.8682548311334682,0.14621510588353817,0.6920577915094752
313,18.02,18.0,0.06,0.09886219025849435,0.5177931215617636,0.06677715019482319,0.8702906663875392,0.1470935283432154,0.6921442516103549
314,18.082,18.05,0.14,0.09904317672800138,0.5185811871953755,0.06694219744081256,0.8723184209573294,0.1479689394462754,0.6922315966963724
315,18.146,18.1,0.14,0.0992294428833383,0.5193479346776796,0.06711078332932037,0.8743378337686245,0.1488414689124696,0.6923205169404142
316,18.228,18.16,0.02,0.09942107999342137,0.5200931158273845,0.06728308100426844,0.8763486482785477,0.14971124414307008,0.6924117010843835
317,18.291,18.21,0.07,0.09961816839166578,0.5208164815631939,0.06745925756378282,0.8783506120368364,0.15057839001645915,0.6925058354650065
318,18.312,18.27,0.14,0.0998207774682502,0.5215177822017195,0.06763947393426797,0.8803434762606813,0.1514430286881285,0.6926036030399305
319,18.375,18.32,0.08,0.10002896567557176,0.5221967677650596,0.06782388475037948,0.8823269954242986,0.15230527939507985,0.6927056824151596
320,18.417,18.38,0.06,0.10024278054673594,0.5228531882975351,0.06801263824082826,0.8843009268643836,0.1531652582645663,0.6928127468752014
321,18.479,18.43,0.21,0.10046225872689916,0.5234867941912451,0.06820587611997478,0.8862650304025831,0.1540230781270803,0.6929254634175542
322,18.561,18.49,0.21,0.10068742601728034,0.5240973365201195,0.06840373348520741,0.8882190679859855,0.15487884833348237,0.6930444917932839
323,18.582,18.55,0.18,0.10091829743166902,0.524684567382079,0.06860633872012366,0.8901628033464185,0.15573267457617657,0.6931704835554383
324,18.644,18.6,0.25,0.10115487726526509,0.5252482402488018,0.06881381340353442,0.8920960016792062,0.15658465871428173,0.6933040811168887
325,18.707,18.66,0.28,0.10139715917569345,0.5257881103224528,0.06902627222430258,0.8940184293419597,0.1574348986028295,0.6934459168189024
326,18.789,18.71,0.17,0.10164512627604673,0.5263039348985693,0.06924382290201452,0.8959298535739507,0.158283487926103,0.6935966120115007
327,18.81,18.76,0.27,0.10189875123981604,0.52679547373421,0.06946656611346225,0.8978300422366573,0.15913051603529182,0.6937567761465389
328,18.851,18.82,0.34,0.10215799641758277,0.5272624894204708,0.0696945954249112,0.8997187635761099,0.15997606779067966,0.6939270058844669
329,18.913,18.87,0.26,0.10242281396535902,0.5277047477585298,0.06992799723015518,0.9015957860075972,0.16082022340860583,0.6941078842158065
330,18.954,18.93,0.26,0.1026931459844736,0.5281220181384932,0.07016685069440014,0.9034608779232035,0.1616630583134675,0.6942999795984416
331,19.015,18.98,0.35,0.10296892467289467,0.528514073920429,0.07041122770406508,0.9053138075225842,0.16250464299507017,0.6945038451117278
332,19.076,19.04,0.26,0.10325007248786112,0.5288806928169854,0.0706611928226448,0.9071543426672133,0.16334504287167514,0.6947200176282301
333,19.137,19.09,0.26,0.10353650231965955,0.5292216572768779,0.07091680325282355,0.9089822507581006,0.16418431815910875,0.6949490170036832
334,19.2,19.15,0.32,0.1038281176763443,0.5295367548683446,0.07117810880503692,0.9107972986367673,0.16502252374630075,0.6951913452856087
335,19.263,19.2,0.31,0.10412481287916979,0.5298257786614237,0.07144515187265775,0.9125992525091656,0.165859709077614,0.6954474859408855
336,19.325,19.26,0.25,0.10442647326848752,0.530088527607708,0.07171796741395076,0.9143878778921865,0.16669591804231843,0.6957179031025128
337,19.387,19.32,0.31,0.10473297541984272,0.5303248069161575,0.07199658294090974,0.9161629395824588,0.16753118887155843,0.696003040835754
338,19.408,19.37,0.35,0.10504418736999144,0.5305344284236486,0.07228101851508378,0.9179242016472196,0.1683655540431666,0.6963033224238184
339,19.449,19.42,0.24,0.1053599688525507,0.5307172109591888,0.07257128675051903,0.9196714274370108,0.16919904019467802,0.6966191496732304
340,19.511,19.48,0.21,0.10568017154298692,0.5308729807011047,0.07286739282395796,0.9214043796199559,0.17003166804490033,0.6969509022390998
341,19.573,19.53,0.3,0.10600463931264903,0.5310015715269198,0.0731693344924249,0.9231228202374602,0.17086345232438194,0.6972989369706113
342,19.634,19.59,0.27,0.1063332084915669,0.531102825355946,0.07347710211829485,0.9248265107812892,0.17169440171508565,0.6976635872772219
343,19.676,19.64,0.18,0.10666570813975446,0.531176592484777,0.07379067870190316,0.9265152122919822,0.1725245187995089,0.698045162516294
344,19.758,19.7,0.27,0.10700196032676536,0.5312227319158911,0.07411003992172266,0.9281886854784619,0.1733538000194332,0.6984439474030548
345,19.798,19.75,0.24,0.10734178041925166,0.5312411116793949,0.07443515418213201,0.9298466908584656,0.1741822356444422,0.6988602014438492
346,19.841,19.81,0.13,0.10768497737627031,0.5312316091476197,0.07476598266881697,0.9314889889191457,0.17500980975030495,0.6992941583937073
347,19.903,19.86,0.22,0.1080313540520604,0.5311941113419857,0.07510247941185956,0.9331153402970545,0.17583650020726974,0.6997460257393702
348,19.965,19.92,0.28,0.10838070750598161,0.5311285152313826,0.0754445913565715,0.9347255059767909,0.17666227867825324,0.700215984209083
349,20.006,19.98,0.22,0.10873282931927424,0.5310347280212755,0.07579225844213157,0.9363192475077021,0.17748711062684572,0.7007041873106608
350,20.109,20.03,0.2,0.10908750591828034,0.5309126674327993,0.0761454136880858,0.9378963272381059,0.17831095533500543,0.7012107608995052
351,20.129,20.08,0.27,0.1094445189037699,0.5307622619711758,0.07650398328877103,0.9394565085665534,0.1791337659303007,0.7017358027782645
352,20.171,20.14,0.2,0.10980364538603565,0.5305834511828408,0.07686788671573128,0.9409995562095581,0.179955489422557,0.7022793823297329
353,20.232,20.19,0.14,0.1101646583254391,0.5303761859007856,0.07723703682820095,0.9425252364850566,0.18077606674974644,0.702841540184444
354,20.294,20.25,0.25,0.11052732687809355,0.5301404284778313,0.07761133999169778,0.9440333176106954,0.18159543283291094,0.7034222879243271
355,20.336,20.3,0.25,0.11089141674636196,0.5298761530077861,0.07799069620470495,0.9455235700159088,0.1824135166398522,0.7040216078237811
356,20.399,20.36,0.19,0.11125669053383463,0.5295833455346133,0.07837499923333985,0.9469957666666405,0.18323024125725695,0.7046394526296426
357,20.504,20.41,0.27,0.11162290810443941,0.5292620042498356,0.07876413675383254,0.9484496834015768,0.18404552397088358,0.7052757453817318
358,20.524,20.47,0.33,0.11198982694532889,0.5289121396784842,0.07915799050259577,0.9498850992788015,0.18485927635342492,0.7059303792758184
359,20.585,20.52,0.27,0.11235720253318501,0.5285337748539697,0.07955643643366354,0.9513017969318376,0.18567140435966872,0.7066032175709572
360,20.627,20.58,0.29,0.11272478870356335,0.5281269454823896,0.07995934488327645,0.9526995629341545,0.18648180842859877,0.7072940935431715
361,20.689,20.64,0.38,0.11309233802287505,0.5276917000969172,0.08036658074138718,0.9540781881713897,0.18729038359211264,0.7080028104873626
362,20.75,20.69,0.31,0.11345960216257985,0.5272281002029651,0.08077800362986277,0.9554374682205385,0.18809701959007252,0.7087291417691324
363,20.855,20.75,0.26,0.11382633227514621,0.5267362204147736,0.08119346808717655,0.9567772037350706,0.18890160099142933,0.709472830927951
364,20.875,20.8,0.37,0.11419227937133321,0.5262161485839226,0.08161282375940548,0.9580972008344918,0.18970400732117573,0.7102335918327961
365,20.895,20.85,0.39,0.11455719469837139,0.5256679859199769,0.08203591559737275,0.9593972714964458,0.19050411319288443,0.7110111088911047
366,20.956,20.91,0.3,0.11492083011865703,0.5250918471031372,0.0824625840597924,0.9606772339491474,0.1913017884465703,0.711805037311653
367,21.017,20.96,0.41,0.11528293848860516,0.524487860388499,0.08289266532228351,0.9619369130618114,0.1920968982916068,0.7126150034217966
368,21.077,21.02,0.48,0.1156432740373376,0.5238561677013577,0.08332599149213413,0.9631761407307324,0.192889303454443,0.7134406050393034
369,21.118,21.07,0.42,0.1160015927449064,0.5231969247229364,0.08376239082870283,0.9643947562588013,0.19367886033089768,0.7142814118988733
370,21.221,21.13,0.42,0.11635765271976649,0.5225103009659522,0.0842016879693283,0.9655926067265922,0.1944654211428493,0.7151369661333301
371,21.242,21.18,0.49,0.11671121457521362,0.5217964798395621,0.08464370416058135,0.9667695473536007,0.1952488340992058,0.7160067828092829
372,21.284,21.24,0.42,0.11706204180450225,0.5210556587033632,0.08508825749466759,0.9679254418485025,0.1960289435610983,0.7168903505167787
373,21.347,21.3,0.36,0.11740990115434063,0.5202880489102224,0.08553516315076579,0.9690601627473943,0.19680559021127114,0.7177871320121783
374,21.387,21.35,0.44,0.11775456299643247,0.5194938758377737,0.08598423364105853,0.9701735917389581,0.1975786112276416,0.7186965649132167
375,21.449,21.41,0.47,0.1180958016966982,0.5186733789083733,0.08643527906118988,0.9712656199753734,0.19834784046097326,0.719618062445023
376,21.511,21.46,0.4,0.1184333959817751,0.5178268115972166,0.08688810734487636,0.9723361483676031,0.19911310861657017,0.7205510142357746
377,21.595,21.51,0.49,0.11876712930236133,0.516954441428324,0.08734252452238718,0.9733850878635699,0.19987424343986146,0.7214947871605959
378,21.616,21.57,0.53,0.11909679019295977,0.5160565499581626,0.08779833498259958,0.9744123597077939,0.20063106990574903,0.7224487262322102
379,21.658,21.62,0.43,0.11942217262760188,0.5151334327467378,0.08825534173832582,0.9754178956813218,0.20138341041161115,0.7234121555366717
380,21.719,21.68,0.46,0.1197430763711735,0.5141853993160631,0.08871334669459496,0.9764016383212697,0.2021310849738916,0.7243843792123505
381,21.76,21.73,0.54,0.12005930732601304,0.5132127730960017,0.08917215091956555,0.9773635411198688,0.20287391142823974,0.7253646824702135
382,21.822,21.79,0.45,0.12037067787349619,0.5122158913575826,0.08963155491775583,0.978303568703285,0.20361170563318592,0.7263523326534124
383,21.883,21.84,0.39,0.12067700721034136,0.511195105134048,0.09009135890528347,0.9792216969906493,0.20434428167732788,0.7273465803342107
384,21.944,21.9,0.48,0.12097812167936443,0.5101507791300398,0.0905513630867933,0.9801179133337294,0.20507145208998823,0.7283466604462706
385,22.007,21.95,0.47,0.12127385509439119,0.5090832916193828,0.09101136793373513,0.9809922166374876,0.20579302805527178,0.7293517934502833
386,22.068,22.01,0.4,0.12156404905899751,0.5079930343318704,0.0914711744636414,0.9818446174615334,0.20650881962940137,0.7303611865309472
387,22.109,22.07,0.49,0.1218485532786943,0.5068804123293879,0.09193058452004346,0.9826751381023345,0.20721863596116283,0.731374034823354
388,22.169,22.12,0.52,0.12212722586613037,0.5057458438716005,0.09238940105266259,0.9834838126559853,0.2079222855152626,0.7323895226668142
389,22.21,22.17,0.43,0.12239993363886124,0.5045897602712897,0.0928474283975126,0.9842706870613285,0.2086195762983911,0.7334068248840689
390,22.271,22.23,0.47,0.12266655240922339,0.503412605739344,0.09330447255652682,0.9850358191233995,0.20931031608778708,0.7344251080837365
391,22.334,22.28,0.56,0.12292696726586236,0.502214837219452,0.09376034147628542,0.9857792785175367,0.209994312662108,0.7354435319837666
392,22.397,22.34,0.5,0.12318107284649589,0.5009969242126225,0.09421484532539029,0.986501146774859,0.21067137403441955,0.7364612507536276
393,22.437,22.39,0.47,0.12342877360153262,0.4997593485917359,0.09466779677000883,0.987201517250035,0.21134130868712042,0.7374774143729241
394,22.479,22.45,0.59,0.12366998404820402,0.4985026044063711,0.09511901124707575,0.9878804950723825,0.21200392580863234,0.7384911700039735
395,22.541,22.5,0.54,0.12390462901489845,0.4972271976781141,0.09556830723461325,0.9885381970813013,0.21265903553170903,0.7395016633756087
396,22.604,22.56,0.5,0.12413264387540904,0.4959336461864738,0.09601550651861583,0.9891747517468757,0.21330644917323574,0.740508040175183
397,22.707,22.61,0.54,0.12435397477281986,0.4946224792454718,0.0964604344559452,0.9897902990763016,0.21394597947540436,0.7415094474455078
398,22.728,22.67,0.56,0.1245685788327664,0.49329423747092593,0.09690292023270904,0.9903849905065673,0.21457744084816527,0.7425050349832959
399,22.769,22.73,0.47,0.12477642436582448,0.49194947253840876,0.09734279711766325,0.9909589887834978,0.2152006496128518,0.7434939567356554
400,22.81,22.78,0.53,0.12497749105879365,0.49058874693186266,0.0977799027102612,0.9915124678269588,0.2158154242468584,0.7444753721913054
401,22.872,22.83,0.6,0.1251717701546498,0.4892126336828955,0.09821407918306463,0.9920456125818388,0.2164215856292304,0.7454484477633326
402,22.935,22.89,0.5,0.12535926462093536,0.4878217161008572,0.09864517351831432,0.9925586188543527,0.21701895728699794,0.746412358160473
403,22.975,22.94,0.49,0.12553998930632382,0.4864165874939635,0.09907303773851299,0.9930516931332787,0.21760736564207342,0.7473662877440167
404,23.079,23.0,0.56,0.12571397108504836,0.4849978508819663,0.0994975291308948,0.9935250523958231,0.21818664025852405,0.7483094318674737
405,23.098,23.05,0.55,0.12588124898883704,0.4835661187010763,0.09991851046566158,0.9939789238977955,0.21875661409002667,0.749240998196148
406,23.159,23.11,0.49,0.12604187432596847,0.4821220125019777,0.10033585020785216,0.9944135449477316,0.21931712372728623,0.7501602080038069
407,23.2,23.16,0.58,0.12619591078705644,0.4806661626418014,0.10074942272267987,0.9948291626646844,0.21986800964517694,0.751066297443689
408,23.262,23.22,0.63,0.12634343453719923,0.4791992079708063,0.1011591084741592,0.9952260337195076,0.22040911644935404,0.7519585187911524
409,23.325,23.27,0.54,0.12648453429417733,0.4777217955143738,0.101564794216866,0.9956044240593945,0.22094029312208682,0.7528361416553837
410,23.366,23.33,0.6,0.12661931139243207,0.4762345801508685,0.10196637318071836,0.9959646086153251,0.22146139326708206,0.7536984541578353
411,23.448,23.39,0.68,0.12674787983260963,0.47473822428598883,0.10236374524869868,0.9963068709920435,0.22197227535310451,0.7545447640752949
412,23.489,23.44,0.61,0.12687036631651227,0.4732333975243167,0.10275681712744907,0.9966315031403703,0.2224728029562381,0.7553743999457281
413,23.53,23.5,0.57,0.12698691026734668,0.4717207763388754,0.10314550251064408,0.9969388050120583,0.22296284500066413,0.7561867121351749
414,23.593,23.55,0.64,0.1270976638352006,0.47020104373956734,0.10352972223498781,0.9972290841979805,0.2234422759978628,0.7569810738640044
415,23.654,23.6,0.56,0.1272027918877118,0.46867488894131426,0.10390940442863306,0.9975026555508246,0.22391097628416412,0.7577568821907508
416,23.696,23.66,0.5,0.12730247198592065,0.4671430070325321,0.10428448465180686,0.9977598407935019,0.22436883225655915,0.7585135589517478
417,23.8,23.71,0.6,0.12739689434531545,0.4656060986442843,0.10465490602945422,0.9980009681142403,0.22481573660664067,0.7592505516548691
418,23.821,23.77,0.62,0.1274862617820952,0.46406486962011795,0.1050206193757721,0.9982263717489639,0.22525158855248106,0.7599673343258435
419,23.863,23.82,0.53,0.12757078964468535,0.462520030686294,0.10538158331056816,0.9984363915511996,0.22567629406819406,0.7606634083058539
420,23.924,23.88,0.58,0.12765070573054696,0.4609722971219758,0.10573776436741707,0.9986313725496403,0.22608976611088397,0.7613383029993941
421,23.965,23.93,0.63,0.1277262501883273,0.4594223884289056,0.10608913709360834,0.9988116644935897,0.22649192484467773,0.7619915765715825
422,24.026,23.99,0.58,0.12779767540542142,0.4578710280001275,0.10643568414189046,0.9989776213867612,0.22688269786153323,0.7626228165943693
423,24.088,24.05,0.58,0.12786524588103607,0.4563189427874451,0.10677739635401157,0.9991296010102733,0.22726202039850993,0.7632316406413363
424,24.17,24.1,0.7,0.12792923808487117,0.4547668629675233,0.10711427283602759,0.9992679644361427,0.22762983555119293,0.7638176968309885
425,24.19,24.16,0.61,0.12798994030156338,0.45321552160672784,0.10744632102531636,0.999393075532919,0.22798609448297424,0.7643806643185005
426,24.25,24.21,0.55,0.128047652461087,0.4516656543248446,0.10777355674919616,0.999505300465283,0.22833075662991661,0.7649202537358392
427,24.332,24.26,0.61,0.12810268595536559,0.45011799895771004,0.10809600427500143,0.9996050071895466,0.22866378990094485,0.7654362075800735
428,24.353,24.32,0.63,0.12815536344140843,0.4485732952185593,0.10841369635143899,0.9996925649470626,0.22898517087311474,0.7659283005496337
429,24.416,24.37,0.52,0.12820601863132353,0.44703228435766557,0.10872667424103835,0.9997683437576057,0.22929488498167752,0.7663963398284108
430,24.456,24.43,0.58,0.12825499606956225,0.4454957088197296,0.10903498774350671,0.9998327139149579,0.2295929267046077,0.7668401653178561
431,24.538,24.48,0.64,0.1283026508977389,0.4439643118985075,0.10933869520980254,0.9998860454871547,0.22987929974121582,0.7672596498174933
432,24.579,24.54,0.58,0.12834934860734676,0.4424388373883186,0.1096378635467628,0.9999287078239784,0.23015401718442588,0.767654699154457
433,24.64,24.59,0.56,0.12839546478066127,0.440920029232385,0.10993256821214586,0.9999610690742506,0.23041710168626445,0.7680252522627987
434,24.702,24.65,0.65,0.12844138482009235,0.43940863116831624,0.11022289319997929,0.9999834957152997,0.23066858561609396,0.7683712812133029
435,24.744,24.7,0.6,0.12848750366624778,0.43790538637130877,0.11050893101612957,0.9999963520966948,0.2309085112111241,0.7686927911945155
436,24.805,24.76,0.58,0.1285342255049966,0.43641103709571816,0.11079078264403032,1.0,0.2311369307187274,0.7689898204456951
437,24.887,24.82,0.68,0.12858196346386513,0.43492632431563044,0.11106855750051321,0.999994798215979,0.23135390653008284,0.7692624401424712
438,24.907,24.87,0.69,0.12863113929815057,0.4334519873649307,0.1113423733817067,0.9999811021402989,0.23155951130467267,0.7695107542360619
439,24.969,24.92,0.64,0.1286821830671881,0.4319887635772011,0.11161235639900513,0.9999592633883798,0.23175382808517395,0.7697348992469709
440,25.01,24.98,0.71,0.1287355328012378,0.4305373879256812,0.11187864090515476,0.9999296294297729,0.23193695040231474,0.7699350440141657
441,25.071,25.03,0.75,0.12879163415946326,0.42909859266355543,0.11214136941054853,0.9998925432423982,0.23210898236931285,0.7701113894007815
442,25.133,25.09,0.71,0.12885094007945833,0.4276731069650111,0.1124006924898666,0.9998483429870175,0.23227003876556285,0.7702641679574325
443,25.196,25.14,0.74,0.12891391041875364,0.42626165656780024,0.11265676867922461,0.9997973617024284,0.23242024510929216,0.770393643544225
444,25.279,25.2,0.84,0.12898101158871783,0.42486496341834484,0.11290976436400121,0.9997399270219328,0.2325597377189588,0.7705001109125093
445,25.3,25.25,0.8,0.12905271618126687,0.42348374532061495,0.11315985365752634,0.9996763609115529,0.23268866376323163,0.7705838952472571
446,25.342,25.31,0.77,0.12912950258879424,0.42211871559006153,0.11340721827083046,0.9996069794301592,0.23280718129945902,0.7706453516706805
447,25.404,25.36,0.82,0.12921185461772483,0.4207705827138069,0.11365204737367805,0.999532092511322,0.23291545930061774,0.7706848647073296
448,25.466,25.42,0.84,0.12930026109608234,0.41944005001808776,0.11389453744714167,0.9994520037663035,0.23301367767081316,0.7707028477105128
449,25.508,25.48,0.73,0.129395215475452,0.4181278153436999,0.11413489212800836,0.9993670103073452,0.23310202724945633,0.7706997422496897
450,25.569,25.53,0.78,0.1294972154277109,0.4168345707300912,0.11437332204532281,0.9992774025903958,0.23318070980426714,0.7706760174585188
451,25.651,25.58,0.83,0.12960676243689906,0.41556100210881003,0.1146100446493789,0.9991834642765908,0.23324993801326363,0.7706321693434454
452,25.672,25.64,0.74,0.1297243613866112,0.41430778900721776,0.11484528403350792,0.9990854721118766,0.23330993543588874,0.7705687200530054
453,25.734,25.69,0.75,0.12985052014329768,0.4130756042636284,0.11507927074908256,0.9989836958240615,0.23336093647340894,0.7704862171083626
454,25.776,25.75,0.84,0.12998574913588437,0.41186511375523716,0.11531224161425516,0.9988783980362765,0.23340318631871682,0.7703852325958735
455,25.838,25.8,0.75,0.13013056093215938,0.4106769761402232,0.1155444395170538,0.9987698341953973,0.23343694089566716,0.7702663623226622
456,25.899,25.86,0.68,0.13028546981242403,0.40951184261526563,0.11577611321352811,0.9986582525135663,0.23346246678808372,0.7701302249363181
457,25.939,25.91,0.76,0.1304509913409557,0.4083703566894532,0.11600751712166013,0.9985438939206808,0.23348004115857324,0.7699774610099108
458,26.02,25.97,0.77,0.13062764193588036,0.40725315397522316,0.1162389111117736,0.9984269920254416,0.23348995165727512,0.7698087320936011
459,26.062,26.02,0.67,0.13081593843808723,0.40616086199664775,0.11647056029420044,0.9983077730822557,0.23349249632063754,0.7696247197343453
460,26.123,26.08,0.74,0.13101639767982876,0.4050941000151897,0.11670273480496761,0.9981864559611725,0.23348798346027108,0.7694261244655143
461,26.164,26.14,0.82,0.13122953605363544,0.40405347887299103,0.11693570959023701,0.9980632521182193,0.23347673154191376,0.7692136647685875
462,26.247,26.19,0.75,0.13145586908214968,0.4030396008537892,0.1171697641901766,0.997938365563942,0.2334590690545344,0.7689880760093685
463,26.309,26.25,0.79,0.13169591098945038,0.4020530595616805,0.11740518252287813,0.9978119928285983,0.23343533436961483,0.7687501093513397
464,26.371,26.3,0.92,0.13195017427441838,0.40109443981809206,0.11764225266887778,0.9976843229230753,0.2334058755906947,0.7685005306487392
465,26.392,26.35,0.83,0.1322191692866979,0.40016431757737075,0.11788126665680612,0.9975555372949104,0.23337105039333586,0.7682401193216829
466,26.452,26.41,0.75,0.13250340380584108,0.39926325986130007,0.11812252025067031,0.9974258097787613,0.23333122585575133,0.7679696672152905
467,26.494,26.46,0.84,0.13280338262426514,0.398391824712617,0.11836631273924762,0.9972953065405172,0.2332867782804274,0.7676899774443809
468,26.555,26.52,0.85,0.13311960713470566,0.397550561167265,0.11861294672805023,0.9971641860141426,0.23323809300713078,0.767401863225021
469,26.617,26.57,0.73,0.13345257492289048,0.3967400092448151,0.11886272793431853,0.9970325988303022,0.23318556421770015,0.767106146694145
470,26.679,26.63,0.77,0.13380277936617643,0.39596069995637506,0.11911596498550002,0.9969006877359428,0.23312959473301076,0.7668036577185934
471,26.741,26.68,0.81,0.13417070923889182,0.3952131553293833,0.11937296922168678,0.9967685875041924,0.23307059580248757,0.766495232695105
472,26.781,26.74,0.74,0.13455684832511045,0.3944978884488848,0.1196340545025122,0.9966364248340932,0.2330089868865279,0.7661817133431013
473,26.843,26.8,0.74,0.13496167503955142,0.39381540351514466,0.11989953701902657,0.9965043182398579,0.2329451954321653,0.7658639454924708
474,26.883,26.85,0.83,0.13538566205725042,0.39316619591770646,0.12016973511107065,0.9963723779295347,0.2328796566422836,0.765542777868879
475,26.945,26.91,0.76,0.13582927595259198,0.39255075232613984,0.12044496909066224,0.9962407056730219,0.232812813238682,0.7652190608792762
476,26.987,26.96,0.74,0.1362929768482329,0.3919695507977282,0.12072556107190498,0.996109394659232,0.23274511521929117,0.7648936454002901
477,27.049,27.01,0.88,0.13677721807439946,0.3914230609022042,0.12101183480791806,0.9959785293419648,0.23267701960985565,0.7645673815720737
478,27.112,27.07,0.92,0.1372824458390144,0.39091174386333943,0.12130411553527809,0.9958481852738047,0.23260899021042344,0.7642411175999637
479,27.153,27.12,0.83,0.13780909890910348,0.3904360527168333,0.12160272982645419,0.9957184289272265,0.2325414973370295,0.7639156985660706
480,27.215,27.18,0.92,0.13835760830392152,0.3899964324836841,0.12190800545069312,0.9955893175022321,0.23247501755904545,0.7635919652526417
481,27.278,27.23,0.93,0.13892839700022536,0.3895933203581025,0.12222027124378496,0.9954608987200957,0.2324100334327859,0.7632707529787176
482,27.32,27.29,0.83,0.13952187965011376,0.3892271459090245,0.12253985698712902,0.9953332106030518,0.2323470332320781,0.762952890451326
483,27.401,27.34,0.79,0.14013846231184338,0.38889833129439116,0.122867093296509,0.9952062812400063,0.2322865106765794,0.7626391986322915
484,27.464,27.4,0.85,0.14077854219402394,0.3886072914874778,0.12320231152097484,0.9950801285385952,0.2322289646586696,0.7623304896216442
485,27.485,27.45,0.76,0.14144250741360115,0.38835443451455925,0.12354584365222125,0.994954759964063,0.23217489896973134,0.7620275655586164
486,27.547,27.51,0.68,0.142130736768036,0.3881401617030644,0.12389802224484228,0.994830172265435,0.23212482202658055,0.7617312175412891
487,27.607,27.57,0.79,0.14284359952207404,0.387964867939183,0.12425918034782354,0.9947063511894118,0.23207924659873186,0.7614422245660675
488,27.648,27.62,0.77,0.14358145520945023,0.38782894193367834,0.12462965144761523,0.9945832711824147,0.23203868953711365,0.7611613524882419
489,27.709,27.67,0.68,0.14434465344979738,0.3877327664945133,0.12500976942309533,0.9944608950813574,0.2320036715047766,0.7608893530049805
490,27.77,27.73,0.75,0.14513353378092253,0.3876767188048342,0.12539986851266488,0.9943391737941298,0.23197471671009556,0.7606269626621462
491,27.85,27.78,0.79,0.14594842550652337,0.3876611707048424,0.1258002832936266,0.9942180459713239,0.23195235264294564,0.7603749018863305
492,27.87,27.84,0.68,0.14678964755934995,0.3876864889761298,0.12621134867390948,0.9940974376711564,0.23193710981432408,0.7601338740435463
493,27.931,27.89,0.65,0.1476575083797622,0.3877530356272144,0.12663339989612316,0.9939772620198855,0.23192952149987808,0.7599045645261714
494,27.994,27.95,0.74,0.148552305809604,0.3878611681792597,0.1270667725538591,0.9938574188702485,0.2319301234877884,0.7596876398699727
495,28.034,28.0,0.66,0.14947432700131028,0.3880112399511284,0.127511802620094,0.9937377944605696,0.23193945383143125,0.7594837469033164
496,28.095,28.06,0.62,0.15042384834218542,0.3882036003429533,0.12796882648748348,0.9936182610771477,0.23195805260718808,0.759293511930974
497,28.219,28.11,0.7,0.15140113539382033,0.388438595117268,0.1284381810202694,0.9934986767223383,0.2319864616777203,0.7591175399551281
498,28.239,28.17,0.68,0.15240644284664165,0.3887165666764904,0.12892020361748893,0.9933788847903552,0.23202522446097834,0.7589564139362638
499,28.28,28.23,0.61,0.1534400144895924,0.3890378543352654,0.12941523228716023,0.9932587137523752,0.23207488570517903,0.758810694096643
500,28.32,28.28,0.69,0.15450208319493017,0.3894027945859565,0.12992360573109918,0.9931379768522758,0.23213599126995355,0.75868091726904
501,28.383,28.33,0.71,0.15559287091810464,0.38981172135543346,0.13044566343998887,0.9930164718143442,0.232209087913855,0.7585675962933232
502,28.444,28.39,0.62,0.15671258871264374,0.39026496625124213,0.13098174579827074,0.9928939805645757,0.23229472308840782,0.7584712194633552
503,28.504,28.44,0.66,0.1578614367599319,0.3907628587953358,0.1315321941983506,0.9927702689677516,0.2323934447388763,0.7583922500265641
504,28.566,28.5,0.77,0.15903960441371925,0.39130572664372,0.13209735116352697,0.9926450865831674,0.2325058011119292,0.7583311257384072
505,28.587,28.55,0.69,0.1602472702591796,0.391893895790501,0.13267756047897344,0.9925181664423233,0.2326323405703764,0.7582882584737656
506,28.648,28.61,0.65,0.1614846021863293,0.39252769075489713,0.1332731673300407,0.9923892248520816,0.23277361141515798,0.7582640338970362
507,28.69,28.66,0.76,0.16275175747761836,0.39320743474976505,0.13388451844706742,0.9922579612268085,0.23293016171479436,0.7582588111922537
508,28.75,28.72,0.75,0.16404888290949599,0.39393344983006845,0.13451196225582265,0.9921240579528814,0.23310253914254675,0.7582729228540622
509,28.811,28.77,0.66,0.16537611486774162,0.3947060570195296,0.13515584903265374,0.9919871802886433,0.23329129082155592,0.7583066745399382
510,28.873,28.83,0.74,0.1667335794763365,0.3955255764135634,0.13581653106339384,0.9918469763025667,0.23349696317824745,0.7583603449837377
511,28.936,28.89,0.77,0.16812139273963497,0.3963923272565351,0.13649436280509775,0.991703076852064,0.23372010180430816,0.7584341859703866
512,28.998,28.94,0.64,0.16953966069758594,0.3973066279913807,0.13718970104971537,0.9915550956050431,0.23396125132755283,0.758528422371323
513,29.042,29.0,0.6,0.1709884795937381,0.3982687962796879,0.1379029050888483,0.9914026291060468,0.2342209552919974,0.7586432522401336
514,29.102,29.05,0.62,0.1724679360557422,0.3992791489904767,0.13863433687876464,0.9912452568886095,0.2344997560474388,0.7587788469675935
515,29.163,29.1,0.54,0.17397810728801874,0.40033800215617193,0.1393843612048765,0.9910825416352106,0.23479819464878238,0.75893535149513
516,29.204,29.16,0.43,0.17551906127617992,0.40144567089469513,0.1401533458449062,0.9909140293859643,0.2351168107652476,0.7591128845856175
517,29.306,29.21,0.5,0.1770908570026818,0.4026024692971373,0.1409416617299683,0.9907392497969506,0.23545614259943312,0.7593115391503258
518,29.326,29.27,0.48,0.17869354467307236,0.4038087102809297,0.14174968310279273,0.9905577164487491,0.2358167268160609,0.7595313826307291
519,29.366,29.32,0.42,0.18032716595210074,0.4050647054087591,0.14257778767231927,0.9903689272052689,0.23619909848004722,0.7597724574337668
520,29.447,29.38,0.46,0.18199175420888136,0.4063707646737144,0.14342635676389695,0.9901723646225162,0.23660379100339896,0.7600347814190609
521,29.467,29.43,0.52,0.18368733477027802,0.4077271962513115,0.14429577546434563,0.9899674964065168,0.2370313361003124,0.7603183484365227
522,29.529,29.49,0.43,0.18541392518168556,0.4091343062191021,0.14518643276117799,0.989753775919259,0.23748226374977072,0.760623128912725
523,29.571,29.55,0.48,0.18717153547441798,0.41059239824462707,0.146098721675338,0.9895306427312293,0.2379571021648717,0.7609490704843883
524,29.676,29.6,0.54,0.188960168438945,0.41210177324252056,0.14703303938687973,0.9892975232188895,0.23845637776807718,0.7612960986772848
525,29.696,29.66,0.48,0.19077981990324946,0.4136627290016301,0.14798978735308635,0.9890538312051785,0.23898061517154562,0.7616641176287798
526,29.737,29.71,0.47,0.19263047901558736,0.41527555978311853,0.14896937141857577,0.9887989686409827,0.23953033716168173,0.7620530108521075
527,29.799,29.76,0.55,0.19451212853091598,0.4169405558906825,0.1499722019169418,0.988532326325555,0.24010606468701629,0.7624626420402079
528,29.86,29.82,0.53,0.19642474510022043,0.4186580032141477,0.15099869376345793,0.9882532846639307,0.24070831684851324,0.7628928559066307
529,29.922,29.87,0.46,0.1983682995619175,0.4204281827477503,0.15204926653834466,0.987961214459418,0.24133761089137365,0.7633434790607158
530,29.983,29.93,0.58,0.20034275723446077,0.42225137008440294,0.15312434456008023,0.9876554777392922,0.24199446219738532,0.76381432091408
531,30.044,29.98,0.61,0.20234807820922743,0.42412783488716155,0.1542243569482299,0.987335428611902,0.24267938427684738,0.7643051746153378
532,30.085,30.04,0.54,0.20438421764276518,0.4260578403389751,0.15534973767529137,0.9870004141534344,0.24339288875908663,0.7648158180099726
533,30.148,30.09,0.58,0.20645112604749977,0.4280416425717049,0.15650092560708628,0.9866497753225961,0.2441354853805785,0.7653460146223048
534,30.21,30.15,0.64,0.20854874958005423,0.43007949007540264,0.15767836453128686,0.9862828479013948,0.24490768196970608,0.7658955146565255
535,30.251,30.2,0.6,0.21067703032638263,0.43217162308894774,0.1588825031737496,0.9858989634599822,0.24570998442721068,0.7664640560138017
536,30.313,30.26,0.56,0.2128359065829528,0.43431827297335285,0.16011379520240257,0.985497450343275,0.24654289670139756,0.7670513653225479
537,30.416,30.32,0.68,0.21502531313322182,0.4365196615692817,0.1613726992184644,0.9850776346768787,0.24740692075716422,0.7676571589790084
538,30.436,30.37,0.66,0.21724518151864378,0.43877600054045995,0.1626596787347776,0.984638841389635,0.24830255653791888,0.7682811441952958
539,30.458,30.42,0.62,0.21949544030344137,0.44108749070471814,0.16397520214102457,0.9841803952498016,0.24923030191945092,0.7689230200520388
540,30.518,30.48,0.72,0.2217760153323529,0.44345432135442536,0.1653197426555758,0.9837016219115634,0.25019065265481905,0.7695824785528457
541,30.58,30.53,0.77,0.22408682998055843,0.44587666956805544,0.1666937782637147,0.9832018489682843,0.25118410230934146,0.7702592056778769
542,30.622,30.59,0.7,0.22642780539500074,0.44835469951450063,0.1680977916420004,0.9826804070087078,0.2522111421848051,0.7709528824339512
543,30.683,30.64,0.76,0.2287988607263476,0.4508885617515833,0.16953227006855487,0.982136630672365,0.2532722612320542,0.7716631858987719
544,30.764,30.7,0.88,0.23119991335088663,0.45347839252009636,0.1709977053190806,0.9815698597007358,0.2543679459511808,0.7723897902569957
545,30.785,30.75,0.85,0.23363087908169478,0.4561243130346819,0.17249459354843794,0.9809794399810826,0.2554986802786056,0.7731323678259794
546,30.847,30.81,0.85,0.2360916723684586,0.45882642877298374,0.17402343515762392,0.9803647245802274,0.25666494546041235,0.7738905900691445
547,30.909,30.86,0.95,0.2385822064853516,0.46158482876465484,0.17558473464599386,0.9797250747658353,0.257867219911397,0.7746641285948943
548,30.95,30.92,0.96,0.24110239370640302,0.4643995848818274,0.17717900044856066,0.9790598610128244,0.2591059790594105,0.7754526561388687
549,31.011,30.98,0.89,0.24365214546782932,0.46727075113254773,0.17880674475820024,0.9783684639924194,0.26038169517467824,0.7762558475271368
550,31.075,31.03,0.97,0.24623137251682325,0.47019836295855433,0.18046848333258247,0.9776502755412074,0.26169483718387865,0.777073380617767
551,31.136,31.08,1.01,0.24883998504632932,0.47318243653864317,0.18216473528565988,0.9769046996073889,0.2630458704688517,0.7779049372181539
552,31.177,31.14,0.95,0.25147789281537536,0.4762229680987504,0.18389602286358586,0.9761311531712077,0.2644352566498804,0.7787502039755935
553,31.24,31.19,0.97,0.25414500525457234,0.4793199332298379,0.1856628712049814,0.9753290671364402,0.2658634533535441,0.7796088732388478
554,31.303,31.25,1.07,0.2568412315564349,0.48247328621468655,0.18746580808551772,0.9744978871898204,0.26733091396519987,0.7804806438887136
555,31.365,31.3,1.0,0.25956648075021316,0.4856829593647349,0.1893053636468429,0.9736370746252632,0.2688380873662034,0.7813652221358405
556,31.385,31.36,1.0,0.26232066176096236,0.4889488623681489,0.19118207010992244,0.9727461071297117,0.27038541765603163,0.7822623222842472
557,31.446,31.41,1.12,0.26510368345260665,0.49227088165035515,0.19309646147287401,0.9718244795274331,0.271973343859527,0.7831716674591066
558,31.508,31.47,1.07,0.26791545465479466,0.4956488797482348,0.19504907319336395,0.9708717044795466,0.2736022996195477,0.7840929902974062
559,31.57,31.52,1.04,0.27075588417339647,0.4990826946990407,0.1970404418556114,0.969887313135544,0.27527271287537375,0.7850260336001138
560,31.631,31.58,1.13,0.2736248807845551,0.5025721394448959,0.19907110482202725,0.9688708557335877,0.2769850055272901,0.785970550944503
561,31.672,31.64,1.17,0.27652235321228735,0.5061170012534679,0.2011415998695153,0.9678219021464782,0.278739593087841,0.7869263072553635
562,31.756,31.69,1.05,0.27944821008971577,0.5097170411551359,0.20325246481048012,0.9667400423703997,0.280536884320315,0.7878930793339578
563,31.777,31.75,1.12,0.28240235990409013,0.5133719933967944,0.2054042370985965,0.9656248869540769,0.28237728086508707,0.7888706563437743
564,31.881,31.8,1.18,0.2853847109258238,0.5170815649123971,0.2075974534194166,0.9644760673666826,0.2842611768545181,0.7898588402522969
565,31.901,31.85,1.12,0.2883951711218166,0.5208454348104119,0.20983264926593753,0.9632932363034282,0.2861889585171641,0.7908574462281802
566,31.942,31.91,1.08,0.2914336480533627,0.5246632538785013,0.21211035849930085,0.9620760679282024,0.28816100377208276,0.7918663029933567
567,32.006,31.96,1.2,0.29450004875895036,0.528534644105871,0.21443111289481995,0.9608242580529521,0.2901776818140659,0.7928852531296036
568,32.067,32.02,1.19,0.29759427962226553,0.5324591982237362,0.21679544167353434,0.9595375242537737,0.2922393526906604,0.7939141533389846
569,32.109,32.08,1.12,0.30071624622572046,0.5364364792642453,0.21920387101948396,0.9582156059239125,0.2943463668718827,0.7949528746574817
570,32.172,32.13,1.18,0.3038658531898492,0.5404660201380527,0.2216569235828888,0.9568582642642158,0.29649906481357124,0.7960013026210684
571,32.254,32.19,1.22,0.3070430039989681,0.5445473232305564,0.22415511796943463,0.9554652822120829,0.2986977765153797,0.7970593373834945
572,32.274,32.24,1.13,0.310247600813576,0.5486798600166402,0.2266989682158843,0.9540364643106838,0.30094282107446013,0.7981268937852173
573,32.336,32.3,1.15,0.3134795442700578,0.5528630706936645,0.22928898325222216,0.9525716365212009,0.30323450623591786,0.7992039013732231
574,32.378,32.35,1.22,0.31673873326833196,0.5570963638324502,0.2319256663505106,0.9510706459818492,0.3055731279411479,0.800290304371771
575,32.44,32.41,1.13,0.32002506474814973,0.5613791160460502,0.2346095145606167,0.9495333607181417,0.30795896987518145,0.801386061604298
576,32.502,32.46,1.07,0.32333843345478686,0.5657106716762315,0.23734101813293815,0.9479596693093225,0.31039230301417503,0.8024911463668816
577,32.605,32.52,1.17,0.32667873169486844,0.5700903424977706,0.24012065992821122,0.946349480516222,0.3128733851741702,0.8036055462537285
578,32.646,32.57,1.14,0.3300458490830396,0.5745174074407885,0.24294891481443723,0.9447027228759592,0.3154024605622296,0.8047292629351971
579,32.667,32.63,1.08,0.3334396722801465,0.5789911123313876,0.24582624905091735,0.9430193442689541,0.3179797593310124,0.8058623118889349
580,32.707,32.68,1.14,0.3368600847235429,0.5835106696508082,0.24875311965935598,0.941299311463701,0.3206054971378091,0.8070047220847508
581,32.77,32.74,1.15,0.3403069663501065,0.5880752583131749,0.25172997378200596,0.9395426096446263,0.3232798747090326,0.8081565356238267
582,32.832,32.79,1.05,0.34378019331255355,0.5926840234616628,0.2547572480268986,0.9377492419280322,0.3260030774111436,0.8093178073328705
583,32.873,32.85,1.09,0.3472796376896563,0.5973360762827618,0.25783536780030014,0.9359192288707763,0.32877527482896635,0.8104886043139208
584,32.934,32.9,1.13,0.35080516719099086,0.6020304938382959,0.26096474662664765,0.9340526079760042,0.3315966203523186,0.8116690054506832
585,32.996,32.96,1.07,0.354356644856863,0.6067663189149888,0.26414578545632483,0.9321494331999433,0.33446725077183626,0.812859100872527
586,33.038,33.01,1.03,0.35793392875406527,0.6115425598915738,0.26737887196174454,0.9302097744634668,0.33738728588481776,0.814058991377536
587,33.101,33.07,1.14,0.3615368716681193,0.6163581906236666,0.2706643798222856,0.9282337171718555,0.3403568281118648,0.8152687878162762
588,33.164,33.12,1.1,0.3651653207926702,0.6212121503467075,0.27400266799872025,0.9262213617457866,0.3433759621250464,0.8164886104381226
589,33.204,33.17,1.05,0.36881911741670614,0.6261033435972471,0.27739407999784516,0.9241728231660672,0.34644475448826606,0.8177185882021091
590,33.288,33.23,1.11,0.3724980966102833,0.6310306401527614,0.2808389431280916,0.9220882305341547,0.3495632533104757,0.8189588580542481
591,33.349,33.28,1.12,0.3762020869094247,0.6359928749901289,0.28433756774694297,0.9199677266501207,0.3527314879123531,0.8202095641731726
592,33.37,33.34,1.05,0.3799309100008371,0.6409888482629236,0.2878902465010436,0.9178114676094418,0.35594946850702414,0.8214708571859125
593,33.431,33.4,1.11,0.38368438040705166,0.6460173252978196,0.2914972535599265,0.9156196224198588,0.35921718589536494,0.8227428933556925
594,33.492,33.45,1.16,0.38746230517255603,0.651077036610604,0.29515884384432717,0.9133923726394951,0.36253461117637037,0.8240258337437617
595,33.534,33.51,1.08,0.39126448355146265,0.6561666779424784,0.29887525225009015,0.9111299120373446,0.36590169547303536,0.8253198433473672
596,33.596,33.56,1.09,0.3950907066972491,0.6612849103175316,0.30264669286870394,0.9088324462772013,0.3693183696741544,0.8266250902160254
597,33.657,33.62,1.2,0.3989407573550932,0.66643036012245,0.30647335820550864,0.9065001926261531,0.3727845441924168,0.8279417445482012
598,33.718,33.67,1.13,0.4028144095573204,0.671601619209673,0.31035541839663033,0.904133379688752,0.37630010873913644,0.8292699777703761
599,33.759,33.73,1.08,0.40671142832247326,0.6767972450252977,0.31429302042569757,0.9017322471678624,0.3798649321159143,0.8306099616003304
600,33.861,33.78,1.16,0.41063156935849304,0.6820157607631591,0.31828628734141023,0.8992970456530478,0.3834788620234928,0.831961867096279
601,33.881,33.84,1.17,0.4145745787705003,0.6872556555465786,0.3223353174770731,0.8968280364371781,0.387141724888018,0.833325863693336
602,33.923,33.89,1.08,0.4185401927736637,0.6925153846392745,0.32644018367328687,0.8943254913617187,0.3908533257048703,0.8347021182287281
603,33.984,33.95,1.12,0.42252813741164086,0.6977933696868724,0.33060093250506306,0.8917896926910893,0.3946134479001452,0.8360907939572374
604,34.087,34.0,1.19,0.4265381282810727,0.703087998990373,0.33481758351467783,0.8892209330165374,0.39842185320979945,0.83749204955846
605,34.108,34.06,1.15,0.430569870262589,0.7083976278127598,0.3390901284516222,0.8866195151899698,0.4022782815763977,0.8389060381375945
606,34.15,34.11,1.12,0.43462305725876,0.7137205787197513,0.343418530521047,0.8839857522880222,0.4061824510633054,0.8403329062216238
607,34.192,34.17,1.22,0.4386973719393782,0.7190551419555548,0.34780272364211634,0.8813199676064509,0.4101340577861109,0.8417727927527877
608,34.254,34.22,1.23,0.44279248549441447,0.7243995758543628,0.3522426117176645,0.8786224946847827,0.41413277586099756,0.8432258280811918
609,34.337,34.28,1.19,0.446908057394945,0.7297521072882537,0.3567380679164882,0.8758936773610689,0.41817825736973574,0.8446921329583295
610,34.358,34.33,1.26,0.45104373516230545,0.7351109321520606,0.3612889339695117,0.8731338698565537,0.42227013234091776,0.8461718175331977
611,34.461,34.39,1.3,0.4551991541457175,0.7404742158856119,0.36589501948098224,0.8703434368899502,0.4264080087470334,0.8476649803525816
612,34.481,34.44,1.24,0.459373937308638,0.7458400940335141,0.37055610125581956,0.8675227538208181,0.4305914725169606,0.8491717073670373
613,34.522,34.5,1.26,0.46356769502409834,0.7512066728424532,0.375271922644244,0.8646722068213941,0.4348200875634157,0.850692070944203
614,34.585,34.55,1.35,0.46778002487931414,0.7565720298959064,0.38004219290483576,0.8617921930761421,0.4390933958248677,0.8522261288912256
615,34.646,34.6,1.32,0.4720105114898524,0.7619342147860857,0.38486658658721823,0.8588831210081599,0.44341091732137927,0.8537739234882609
616,34.686,34.66,1.29,0.47625872632363303,0.7672912498229189,0.3897447429355593,0.8559454105314533,0.44777215022377403,0.8553354805351391
617,34.748,34.72,1.41,0.4805242275350173,0.7726411307798626,0.39467626531404343,0.8529794933280614,0.45217657093548985,0.8569108084132827
618,34.831,34.77,1.43,0.48480655980919907,0.777981827676289,0.3996607206554105,0.8499858131490093,0.4566236341864293,0.8584998971648191
619,34.872,34.83,1.4,0.489105254217064,0.7833112855961014,0.404697638933609,0.8469648261379393,0.4611127731380844,0.8601027175906674
620,34.934,34.88,1.48,0.4934198280806343,0.7886274255421383,0.40978651266158755,0.8439170011760295,0.46564339949918887,0.8617192203692516
621,34.996,34.94,1.54,0.49774978484919524,0.7939281453257916,0.41492679641524943,0.8408428202464385,0.4702149036511494,0.8633493351973965
622,35.016,34.99,1.5,0.502094613986198,0.7992113204910785,0.42011790638463514,0.837742778816123,0.47482665478251773,0.8649929699549439
623,35.079,35.05,1.57,0.5064537908670512,0.8044748052722682,0.42535921995343284,0.8346173862326703,0.4794780010317717,0.8666500098946719
624,35.222,35.1,1.67,0.5108267766879321,0.8097164335841033,0.43065007530794963,0.8314671661337854,0.48416826963768156,0.8683203168591656
625,35.242,35.16,1.61,0.5152130183857719,0.8149340200437079,0.4359897710767207,0.8282926568670307,0.48889676709655144,0.870003728526341
626,35.262,35.21,1.61,0.5196119485695718,0.8201253610234839,0.4413775660019592,0.8250944119172483,0.49366277932564273,0.8717000576853238
627,35.303,35.27,1.73,0.5240229854631847,0.8252882357345319,0.4468126786440417,0.8218730003388879,0.49846557183210843,0.8734090915443364
628,35.344,35.32,1.77,0.5284455328596656,0.8304204073402912,0.45229428712018377,0.8186290071902534,0.503304389886782,0.8751305910721655
629,35.406,35.38,1.77,0.5328789800872404,0.8355196241001095,0.4578215288783923,0.815363033966491,0.5081784587021536,0.8768642903747351
630,35.468,35.43,1.88,0.5373227019868947,0.8405836205423945,0.4633935005077012,0.8120756990280779,0.5130869836138819,0.878609896108267
631,35.55,35.49,1.96,0.5417760589015305,0.8456101186669049,0.46900925758560547,0.8087676380216099,0.5180291502652323,0.8803670869303933
632,35.571,35.54,1.92,0.5462383966766171,0.8505968291756564,0.4746678145635623,0.8054395042897393,0.5230041247939168,0.8821355129904765
633,35.633,35.6,1.99,0.5507090466722405,0.855541452731938,0.480368144691406,0.8020919692671863,0.5280110540209012,0.8839147954603056
634,35.695,35.65,2.1,0.5551873257864558,0.8604416812470094,0.486109179981559,0.7987257228598184,0.5330490656408516,0.8857045261062679
635,35.756,35.71,2.09,0.5596725364898658,0.8652951991940383,0.49188981121394887,0.7953414738038743,0.5381172684139808,0.8875042669040181
636,35.797,35.76,2.04,0.5641639668713764,0.8700996849488212,0.49770888798253127,0.7919399500026139,0.5432147523591384,0.8893135496965874
637,35.838,35.82,2.17,0.568660890695089,0.8748528121567752,0.5035652187842296,0.788521898838008,0.5483405889480604,0.8911318758967413
638,35.921,35.87,2.17,0.5731625674683059,0.8795522511256801,0.5094575711510089,0.7850880874553195,0.5534938313007627,0.8929587162342346
639,35.982,35.92,2.12,0.5776682425206225,0.8841956702435692,0.5153846718256924,0.7816393030185538,0.5586735143821007,0.8947935105485005
640,36.023,35.98,2.21,0.5821771470940649,0.8887807374211545,0.521345206981999,0.7781763529349526,0.5638786551995374,0.896635667627237
641,36.087,36.03,2.28,0.5866884984442144,0.8933051215581347,0.5273378224891511,0.7747000650469098,0.5691082530021835,0.8984845650913099
642,36.129,36.09,2.18,0.5912014999522462,0.8977664940326798,0.5333611242213134,0.7712112877897876,0.5743612894811884,0.9003395493263754
643,36.19,36.15,2.24,0.5957153412477956,0.9021625302133401,0.5394136784120566,0.7677108903141702,0.5796367289715759,0.9021999354616834
644,36.294,36.2,2.38,0.6002291983425656,0.9064909109926008,0.5454940120540007,0.764199762571196,0.5849335186556279,0.9040650073965982
645,36.314,36.26,2.34,0.6047422337746025,0.9107493243413387,0.5516006133437781,0.7606788153596173,0.5902505887679333,0.9059340178754824
646,36.356,36.31,2.3,0.6092535967631801,0.9149354668834964,0.5577319321724264,0.757148980333151,0.5955868528022227,0.9078061886116765
647,36.418,36.37,2.43,0.6137624233742586,0.9190470454903491,0.5638863806612839,0.7536112099665757,0.6009412077201334,0.9096807104612789
648,36.481,36.42,2.49,0.6182678366965102,0.9230817788936669,0.5700623337433541,0.7500664774788941,0.6063125341620937,0.9115567436473127
649,36.502,36.48,2.47,0.6227689470279422,0.9270373993168841,0.5762581297899994,0.7465157767117435,0.6116996966605422,0.9134334180348005
650,36.565,36.53,2.57,0.627264852073161,0.9309116541232137,0.5824720712827114,0.7429601219611883,0.6171015438557378,0.9153098334571951
651,36.647,36.59,2.62,0.6317546371513589,0.9347023074794836,0.5887024255296346,0.7394005477610717,0.622516908714486,0.9171850600944701
652,36.668,36.64,2.55,0.6362373754151287,0.9384071420342899,0.5949474254265076,0.7358381086161709,0.6279446087522016,0.9190581389029697
653,36.729,36.7,2.59,0.6407121280802371,0.9420239606088954,0.6012052702616923,0.7322738786836726,0.6333834462588113,0.9209280820969441
654,36.791,36.75,2.72,0.645177944666506,0.9455505878991114,0.6074741265649419,0.7287089514018572,0.6388322085290707,0.9227938736815676
655,36.832,36.81,2.65,0.6496338632499549,0.9489848721861661,0.6137521289995294,0.7251444390651717,0.644289668097902,0.9246544700371497
656,36.894,36.86,2.6,0.6540789107263717,0.9523246870542649,0.620037381297278,0.7215814723450419,0.6497545829813722,0.9265088005542564
657,36.956,36.92,2.7,0.6585121030864906,0.9555679331122362,0.6263279572359003,0.7180211997560376,0.6552256969239493,0.9283557683194477
658,37.017,36.97,2.77,0.6629324457029784,0.9587125397163555,0.6326219016578837,0.7144647870672779,0.6607017396526775,0.9301942508513745
659,37.078,37.03,2.73,0.667338933629452,0.9617564666912554,0.6389172315300284,0.7109134166591895,0.6661814271388894,0.9320231008870501
660,37.119,37.08,2.8,0.6717305519117494,0.9646977060458071,0.6452119370426164,0.7073682868259508,0.6716634618680531,0.9338411472181574
661,37.181,37.14,2.88,0.6761062759116917,0.9675342836809866,0.651503982747142,0.7038306110241846,0.6771465331183677,0.9356471955771456
662,37.243,37.19,2.8,0.6804650716435742,0.9702642610868991,0.6577913087315402,0.7003016170686699,0.6826293172487606,0.9374400295726242
663,37.284,37.25,2.81,0.6848058961236465,0.9728857370263826,0.6640718318318938,0.6967825462760456,0.6881104779969964,0.9392184116732845
664,37.387,37.3,2.9,0.6891276977328452,0.9753968492028879,0.6703434468797024,0.6932746525575954,0.6935886667886242,0.9409810842393221
665,37.407,37.35,2.85,0.6934294165930289,0.9777957759106262,0.6766040279839084,0.6897792014620232,0.6990625230574928,0.9427267706000982
666,37.449,37.41,2.83,0.6977099849569419,0.980080737665191,0.6828514298469849,0.6862974691687503,0.7045306745785332,0.9444541761765975
667,37.511,37.47,2.92,0.7019683276120924,0.9822499988129847,0.6890834891144284,0.6828307414318601,0.7099917378134645,0.946161989647055
668,37.552,37.52,2.96,0.7062033622987065,0.9843018691177078,0.695298025757041,0.6793803124744154,0.7154443182700431,0.9478488841539033
669,37.613,37.58,2.9,0.71041400014191,0.9862347053220397,0.7014928444854077,0.6759474838326097,0.7208870108754268,0.9495135185500352
670,37.675,37.63,3.02,0.7145991460982871,0.9880469126826102,0.7076657361959575,0.6725335631492914,0.7263184003641956,0.9511545386822731
671,37.737,37.69,3.1,0.7187576994169761,0.9897369464764731,0.713814479447964,0.6691398629167961,0.7317370616815613,0.9527705787098534
672,37.839,37.74,3.06,0.7228885541154753,0.9913033134775243,0.719936841970785,0.6657676991694885,0.737141560402305,0.954360262455672
673,37.86,37.8,2.98,0.7269905994703577,0.9927445734015747,0.7260305822005855,0.6624183901269295,0.7425304531660132,0.955922204787952
674,37.902,37.85,3.11,0.7310627205231129,0.9940593403190464,0.7320934508457059,0.6590932547890787,0.7479022881292208,0.9574550130298466
675,37.963,37.91,3.06,0.7351037986013479,0.9952462840344388,0.7381231924797894,0.6557936114852363,0.7532556054350783,0.9589572883943246
676,38.003,37.96,3.02,0.7391127118555908,0.9963041314318174,0.7441175471617169,0.6525207763784456,0.7585889377011256,0.9604276274415977
677,38.066,38.02,3.12,0.7430883358119266,0.9972316677855523,0.7500742520813315,0.6492760619269327,0.7639008105256552,0.9618646235562762
678,38.127,38.07,3.16,0.7470295439406647,0.9980277380353703,0.7559910432299022,0.6460607753038631,0.7691897430130763,0.9632668684413256
679,38.188,38.13,3.05,0.7509352082412153,0.9986912480246118,0.7618656570942376,0.6428762167763926,0.77445424831861,0.9646329536258461
680,38.229,38.18,3.12,0.7548041998432924,0.9992211657005953,0.7676958323733496,0.6397236780448804,0.7796928342125844,0.9659614719837318
681,38.289,38.24,3.19,0.7586353896244983,0.9996165222762284,0.7734793117165741,0.636604440543172,0.7849040036645449,0.9672510192603985
682,38.351,38.29,3.16,0.7624276488442956,0.9998764133522811,0.7792138434820973,0.633519773700923,0.7900862554473342,0.9685001956050133
683,38.411,38.35,3.16,0.7661798497943457,1.0,0.784897183514866,0.630470933169171,0.7952380847612042,0.9697076071059566
684,38.432,38.4,3.29,0.7698908664651816,0.999986509803894,0.7905270969428252,0.6274591590107963,0.8003579838779715,0.9708718673274143
685,38.494,38.46,3.28,0.773559575229176,0.9998352378645177,0.7961013599903844,0.6244856738578192,0.8054444428051744,0.9719915988450256
686,38.556,38.51,3.24,0.7771848555397588,0.9995455477609659,0.8016177618079524,0.6215516810375386,0.8104959499701514,0.9730654347784526
687,38.597,38.57,3.33,0.7807655906467967,0.9991168724726252,0.8070741063162827,0.6186583626694893,0.815510992923954,0.9740920203186432
688,38.66,38.62,3.39,0.7843006683280184,0.9985487152595469,0.8124682140642762,0.615806877735131,0.8204880590649788,0.9750700142474487
689,38.72,38.67,3.33,0.7877889816363143,0.9978406505006687,0.8177979240987858,0.6129983601220507,0.825425636382191,0.9759980904471766
690,38.762,38.73,3.37,0.7912294296626684,0.9969923244891439,0.8230610958448903,0.61023391664436,0.8303222142177781,0.9768749393976112
691,38.867,38.78,3.46,0.7946209183143936,0.9960034561841742,0.8282556109950527,0.607514625040894,0.8351762840490385,0.9776992696580152
692,38.887,38.84,3.39,0.7979623611082683,0.9948738379188931,0.8333793754055803,0.604841531952776,0.8399863402892819,0.978469809331666
693,38.929,38.9,3.41,0.8012526799781285,0.9936033360639238,0.8384303209987467,0.6022156508820847,0.8447508811074654,0.9791853075106255
694,38.99,38.95,3.55,0.8044908060964168,0.9921918916463033,0.843406407668827,0.5996379601338738,0.8494684092662379,0.9798445356986243
695,39.071,39.01,3.53,0.8076756807091512,0.9906395209234581,0.8483056251901293,0.5971094007444577,0.8541374329780028,0.9804462892100873
696,39.092,39.06,3.49,0.8108062559837161,0.9889463159118687,0.8531259951249177,0.5946308743995028,0.8587564667785693,0.9809893885434416
697,39.153,39.12,3.56,0.8138814958688114,0.9871124448699721,0.8578655727290125,0.5922032413459762,0.8633240324179251,0.9814726807268954
698,39.234,39.17,3.61,0.8169003769658478,0.985138152734728,0.8625224488528314,0.5898273183022806,0.8678386597676591,0.9818950406348933
699,39.254,39.23,3.5,0.8198618894110223,0.9830237615111361,0.867094751835713,0.5875038763709974,0.8722988877445189,0.9822553722735241
700,39.317,39.28,3.54,0.8227650377672692,0.980769670613956,0.8715806493914273,0.5852336389588625,0.8767032652495325,0.9825526100332913
701,39.38,39.34,3.62,0.8256088419252139,0.9783763571608993,0.8759783504827812,0.5830172797089495,0.8810503521220333,0.9827857199078809
702,39.421,39.39,3.57,0.828392338012196,0.975844376216693,0.8802861071831969,0.5808554204503544,0.8853387201078279,0.9829537006778607
703,39.483,39.45,3.56,0.8311145793083439,0.9731743609875697,0.8845022165230371,0.5787486291709995,0.8895669538406203,0.9830555850586024
704,39.545,39.5,3.68,0.8337746371685947,0.9703670229659284,0.8886250223182885,0.5766974180195489,0.893733651835698,0.9830904408119467
705,39.586,39.56,3.71,0.8363716019494873,0.9674231520249332,0.8926529169790337,0.5747022413426963,0.8978374274947836,0.9830573718211981
706,39.65,39.61,3.67,0.8389045839394909,0.9643436164627632,0.89658434329497,0.572763493764138,0.9018769101208856,0.9829555191290109
707,39.691,39.67,3.76,0.8413727142915999,0.9611293629960944,0.9004177961951645,0.5708815083114894,0.9058507459419143,0.9827840619376982
708,39.753,39.72,3.82,0.8437751459569003,0.9577814167022324,0.9041518244792567,0.5690565545971568,0.9097575991418134,0.9825422185714429
709,39.815,39.78,3.75,0.8461110546178182,0.9543008809091187,0.9077850325174541,0.5672888370587809,0.9135961528979326,0.9822292473998747
710,39.856,39.83,3.8,0.8483796396197505,0.9506889370323142,0.911316081916648,0.5655784932646699,0.9173651104233363,0.9818444477224827
711,39.959,39.89,3.91,0.850580124899755,0.9469468443581216,0.9147436931497926,0.5639255922898568,0.9210631960127116,0.9813871606133354
712,39.979,39.94,3.88,0.8527117599109144,0.9430759397722249,0.9180666471453347,0.5623301331689128,0.924689156090492,0.9808567697255793
713,40.02,40.0,3.86,0.8547738205409329,0.9390776374335282,0.9212837868331512,0.5607920434322221,0.9282417602597619,0.9802527020551859
714,40.081,40.05,3.95,0.8567656100234537,0.9349534283931009,0.9243940186431736,0.5593111777329044,0.9317198023504738,0.9795744286633193
715,40.142,40.1,4.0,0.8586864598405641,0.9307048801581075,0.9273963139527022,0.5578873165717282,0.9351221014654786,0.9788214653565301
716,40.204,40.16,3.94,0.8605357306149385,0.926333636200405,0.9302897104783437,0.556520165127099,0.938447503022837,0.9779933733238934
717,40.246,40.22,4.05,0.862312812990051,0.9218414154093553,0.9330733136086846,0.5552093521964443,0.9416948797928348,0.9770897597302806
718,40.39,40.27,4.15,0.8640171284968864,0.9172300114884295,0.9357462976743192,0.5539544292539432,0.9448631329281035,0.9761102782651451
719,40.411,40.33,4.13,0.865648130405552,0.9125012922953128,0.9383079071525814,0.5527548696280326,0.9479511929852232,0.9750546296464698
720,40.431,40.38,4.11,0.8672053045602375,0.9076571991253788,0.9407574578048806,0.5516100678014201,0.9509580209362017,0.9739225620797949
721,40.471,40.44,4.26,0.8686881701959985,0.9026997459385457,0.9430943377447665,0.550519338836643,0.9538826091682422,0.972713871672395
722,40.533,40.49,4.26,0.8700962807359037,0.8976310185295929,0.945318008434875,0.5494819179307319,0.9567239824702505,0.9714284028027828
723,40.574,40.55,4.19,0.8714292245671135,0.8924531736420198,0.9474280056108388,0.5484969601028172,0.9594811990045524,0.9700660484458082
724,40.637,40.6,4.31,0.8726866257944923,0.8871684380254534,0.9494239401301154,0.5475635400186531,0.9621533512623067,0.9686267504536772
725,40.699,40.66,4.36,0.8738681449703486,0.8817791074364567,0.9513054987435352,0.5466806519561722,0.9647395670011062,0.9671104997931878
726,40.762,40.71,4.3,0.8749734797989185,0.8762875455824393,0.9530724447872144,0.5458472099163382,0.9672390101632666,0.9655173367394736
727,40.823,40.77,4.45,0.876002365814197,0.8706961830083694,0.954724618792371,0.5450620478838148,0.9696508817732961,0.9638473510266498
728,40.844,40.82,4.54,0.876954577029745,0.8650075159261174,0.9562619390105239,0.5443239202422846,0.9719744208130505,0.9621006819559478
729,40.905,40.88,4.51,0.877829926559139,0.859224104986461,0.9576844018516097,0.5436315023494214,0.9742089050731181,0.9602775184621618
730,40.967,40.93,4.51,0.8786282672057922,0.8533485739940359,0.9589920822327974,0.5429833912762904,0.9763536519790377,0.9583780991393863
731,41.07,40.99,4.67,0.8793494920209619,0.8473836085657876,0.9601851338362986,0.5423781067149593,0.9784080193910558,0.9564027122270349
732,41.091,41.04,4.67,0.8799935348288441,0.8413319547337028,0.9612637892751785,0.5418140920563811,0.9803714063762198,0.9543516955570475
733,41.133,41.1,4.66,0.8805603707177454,0.8351964174927051,0.9622283601667587,0.5412897156387784,0.9822432539516789,0.9522254364631119
734,41.195,41.15,4.75,0.8810500164964064,0.8289798592946118,0.9630792371134983,0.540803272165503,0.9840230457981484,0.9500243716525704
735,41.235,41.21,4.78,0.8814625311146458,0.8226851984888759,0.9638168895913432,0.5403529842906026,0.9857103089425832,0.9477489870414108
736,41.297,41.26,4.7,0.8817980160475587,0.8163154077106161,0.964441865745631,0.5399370043698808,0.9873046144091963,0.9453998175524234
737,41.359,41.32,4.74,0.882056615642579,0.8098735122162739,0.9649547920948801,0.5395534163746765,0.988805577838037,0.942977446876374
738,41.442,41.37,4.84,0.882238517428763,0.8033625881672587,0.965356373143343,0.5392002379644601,0.9902128600703913,0.9404825071959138
739,41.464,41.42,4.83,0.8823439523877172,0.7967857608620387,0.9656473909039274,0.5388754227126573,0.9915261677002905,0.9379156788719599
740,41.524,41.48,4.83,0.8823731951856545,0.7901462029173013,0.9658287043336244,0.5385768624787509,0.9927452535914151,0.9352776900923672
741,41.564,41.53,4.93,0.8823265643661717,0.7834471323989002,0.9659012486837042,0.5383023899193651,0.993869917358716,0.9325693164827566
742,41.666,41.59,4.94,0.8822044225034456,0.7766918109033552,0.965866034766678,0.5380497811315621,0.9949000058141346,0.9297913806793427
743,41.686,41.65,4.88,0.8820071763156598,0.7698835415907169,0.96572414814161,0.5378167584226173,0.9958354133758818,0.9269447518635824
744,41.727,41.7,4.94,0.8817352767385579,0.7630256671696827,0.9654767482189652,0.5376009932017001,0.9966760824408155,0.9240303452585112
745,41.789,41.76,4.99,0.8813892189591084,0.7561215678358764,0.9651250672859577,0.5374001089896728,0.9974220037195262,0.9210491215867335
746,41.85,41.81,4.88,0.8809695424093691,0.7491746591641483,0.9646704094533309,0.5372116845434229,0.9980732165337812,0.9180020864902465
747,41.912,41.87,4.89,0.8804768307207401,0.7421883899557468,0.9641141495246223,0.5370332570909024,0.9986298090760035,0.9148902899125938
748,41.973,41.92,4.99,0.8799117116388914,0.7351662400412872,0.9634577317891685,0.5368623256725135,0.9990919186304608,0.9117148254441692
749,42.014,41.98,4.96,0.8792748568997177,0.7281117180405772,0.9627026687404001,0.5366963545836639,0.9994597317558331,0.9084768296318345
750,42.075,42.03,4.94,0.8785669820667321,0.7210283590805223,0.9618505397211744,0.5365327769125292,0.9997334844287993,0.9051774812543244
751,42.178,42.09,5.06,0.8777888463303295,0.7139197224725199,0.9609029894979995,0.5363689981664808,0.9999134621482781,0.90181800056506
752,42.198,42.14,5.09,0.8769412522693675,0.7067893893508842,0.959861726766056,0.5362023999801067,1.0,0.8983996485039254
753,42.24,42.2,5.02,0.876025045575528,0.6996409602739492,0.9587285225870286,0.5360303438971776,0.9999934826811333,0.8949237258793823
754,42.301,42.25,5.09,0.8750411147409252,0.6924780527895763,0.957505208761941,0.535850175218394,0.9998943444847675,0.8913915725220678
755,42.362,42.31,5.17,0.8739903907094702,0.6853042989669017,0.9561936761415031,0.5356592269061392,0.9997030692441528,0.8878045664108087
756,42.404,42.36,5.06,0.8728738464925296,0.6781233428962383,0.9547958728768956,0.5354548235367165,0.9994201902366676,0.8841641227718748
757,42.466,42.42,5.07,0.8716924967494863,0.6709388381591757,0.9533138026142738,0.5352342852899916,0.9990462900475651,0.8804716931523028
758,42.527,42.47,5.17,0.8704473973338499,0.6637544452710903,0.9517495226364949,0.5349949319661687,0.9985820003936055,0.8767287644681796
759,42.548,42.53,5.13,0.8691396448056249,0.6565738290984586,0.9501051419557155,0.5347340870193759,0.9980280019067326,0.8729368580288269
760,42.609,42.58,5.09,0.8677703759106489,0.6494006562535354,0.9483828193605068,0.5344490815978029,0.9973850238779783,0.869097528537874
761,42.671,42.64,5.18,0.8663407670276021,0.6422385924691286,0.9465847614210615,0.5341372585803067,0.9966538439618166,0.8652123630721511
762,42.713,42.69,5.19,0.8648520335833759,0.6350912999562546,0.9447132204559295,0.5337959765995712,0.9958352878412277,0.8612829800391719
763,42.774,42.75,5.1,0.8633054294374701,0.6279624347474911,0.9427704924636408,0.5334226140420089,0.9949302288537923,0.857311028113805
764,42.837,42.8,5.14,0.861702246236072,0.6208556440290005,0.9407589150225004,0.5330145730148135,0.9939395875791686,0.8532981851546005
765,42.982,42.85,5.18,0.8600438127364645,0.6137745634645084,0.9386808651618342,0.5325692832709203,0.9928643313883545,0.8492461571001552
766,43.003,42.91,5.11,0.8583314941023841,0.6067228145149774,0.9365387572079715,0.532084206082989,0.9917054739551641,0.8451566768459264
767,43.023,42.97,5.06,0.8565666911709486,0.5997040017582175,0.9343350406082694,0.5315568380579194,0.9904640747303575,0.8410315031020349
768,43.044,43.02,5.19,0.8547508396917514,0.592721710213149,0.9320721977365507,0.5309847148837279,0.9891412383788792,0.8368724192326948
769,43.105,43.08,5.15,0.8528854095387202,0.5857795026737276,0.9297527416833948,0.530365415000654,0.9877381141806595,0.8326812320779481
770,43.167,43.13,5.1,0.8509719038953467,0.5788809170576226,0.9273792140347725,0.5296965631882886,0.986255895395443,0.828459770758303
771,43.271,43.19,5.15,0.8490118584138964,0.5720294637746388,0.9249541826424755,0.5289758340605634,0.9846958185921276,0.8242098854627357
772,43.291,43.24,5.17,0.8470068403492129,0.5652286231196041,0.9224802393897577,0.5282009554605853,0.983059162943142,0.8199334462203158
773,43.333,43.3,5.08,0.8449584476677517,0.558481842694108,0.9199599979555619,0.5273697117474916,0.9813472494844311,0.8156323416556401
774,43.416,43.35,5.12,0.8428683081324406,0.5517925348612175,0.9173960915805498,0.5264799469680439,0.9795614403416467,0.8113084777283266
775,43.437,43.41,5.16,0.8407380783639757,0.5451640742371117,0.914791170837778,0.5255295679066798,0.9777031379231568,0.8069637764569801
776,43.521,43.46,5.11,0.838569442879157,0.5385997952234751,0.9121479014103833,0.5245165470089623,0.9757737840805071,0.8026001746282321
777,43.543,43.52,5.05,0.8363641131068873,0.5321029895844169,0.909468961878168,0.5234389251745661,0.9737748592369824,0.7982196224916697
778,43.645,43.57,5.14,0.8341238263824841,0.5256769040715813,0.9067570415146341,0.5222948144168928,0.9717078814849366,0.7938240824416187
779,43.665,43.63,5.13,0.8318503449209811,0.5193247381008891,0.9040148380958142,0.5210824003870186,0.9695744056525741,0.7894155276867938
780,43.705,43.68,5.05,0.8295454547700949,0.5130496414840198,0.9012450557221172,0.5197999447601637,0.9673760223408866,0.784995940908847
781,43.767,43.74,5.13,0.8272109647435373,0.5068547122173996,0.8984504026542744,0.5184457874835229,0.9651143569314689,0.7805673129108337
782,43.828,43.79,5.14,0.8248487053353384,0.5007429943310692,0.8956335891643888,0.517018348884952,0.9627910685659725,0.7761316412565963
783,43.869,43.85,5.08,0.8224605276158589,0.494717475799396,0.8927973254030935,0.5155161316424121,0.9604078490980029,0.7716909289020721
784,43.929,43.9,5.05,0.8200483021101642,0.4887810865152197,0.8899443192839261,0.5139377226143433,0.9579664220183026,0.7672471828195596
785,44.011,43.96,5.12,0.8176139176594449,0.4829366963286691,0.8870772743862246,0.5122817945312075,0.9554685413541123,0.7628024126159765
786,44.051,44.01,5.05,0.8151592802661743,0.47718711315157486,0.8841988878781092,0.5105471075483107,0.9529159905436396,0.7583586291461356
787,44.113,44.07,4.99,0.8126863119236732,0.47153508112816633,0.8813118484612648,0.5087325106599778,0.9503105812865782,0.7539178431221125
788,44.174,44.12,5.1,0.8101969494307385,0.4659832788726121,0.8784188343391871,0.5068369429754619,0.9476541523716329,0.7494820637198389
789,44.215,44.17,5.14,0.8076931431919494,0.4605343177738273,0.8755225112103934,0.5048594348574,0.944948568482019,0.7450532971840793
790,44.277,44.23,5.01,0.8051768560042681,0.455190740367759,0.8726255302879167,0.5027991089239295,0.9421957189799128,0.740633545432961
791,44.379,44.28,5.09,0.8026500618305629,0.44995501877711114,0.8697305263462117,0.5006551809157755,0.9393975166708872,0.7362248046631827
792,44.4,44.34,5.11,0.8001147445607298,0.44482955321820417,0.8668401157964498,0.4984269604298038,0.9365558965494446,0.7318290639568721
793,44.442,44.4,4.99,0.7975728967611361,0.4398166705744845,0.863956894791057,0.4961138515207479,0.9336728145268406,0.7274483038909447
794,44.503,44.45,4.93,0.7950265184131418,0.43491862303620704,0.8610834373582696,0.49371535317322257,0.9307502461424528,0.723084495149779
795,44.544,44.51,4.97,0.7924776156414661,0.43013758680594083,0.8582222935674529,0.49123105964657643,0.927790185259978,0.7187395971420285
796,44.606,44.56,4.88,0.78992819943317,0.42547566086965033,0.8553759877259274,0.48866066069532665,0.924794642749731,0.7144155566224267
797,44.667,44.62,4.79,0.7873802843480215,0.42093486583311834,0.8525470166080333,0.4860039416678654,0.9217656451582655,0.7101143063194799
798,44.73,44.67,4.84,0.7848358872209846,0.4165171428234398,0.8497378477171105,0.4832607834859893,0.9187052333664498,0.7058377635699828
799,44.75,44.73,4.85,0.7822970258575511,0.4122243524551586,0.8469509175810562,0.48043116250755713,0.9156154612370481,0.7015878289613074
800,44.812,44.78,4.74,0.7797657177226257,0.4080582738603915,0.8441886300821394,0.4775151502742292,0.9124983942527755,0.6973663849825061
801,44.872,44.84,4.8,0.7772439786236756,0.4040206037821056,0.841453354821787,0.4745129131460798,0.9093561081457259,0.6931752946854395
802,44.913,44.89,4.85,0.7747338213888639,0.40011295572964706,0.838747425521106,0.47142471182495393,0.9061906875190433,0.689016400357317
803,44.975,44.95,4.75,0.7722372545409164,0.39633685919564826,0.8360731384579624,0.4682509007686795,0.9030042244616994,0.6848915222061804
804,45.039,45.0,4.71,0.7697562809674894,0.39269375893356134,0.833432750941459,0.46499192749861523,0.8997988171572519,0.6808024570609368
805,45.101,45.06,4.78,0.7672928965888374,0.38918501429525815,0.8308284798246338,0.4616483318033987,0.8965765684874808,0.6767509770875019
806,45.163,45.11,4.71,0.7648490890235937,0.38581189862831305,0.8282625000561734,0.458220744841901,0.8933395846318174,0.6727388285224918
807,45.226,45.17,4.66,0.7624268362534878,0.38257559873270314,0.8257369432718826,0.4547098881483678,0.8900899736634692,0.668767730425791
808,45.267,45.22,4.74,0.760028105287813,0.37947721437666465,0.8232538964265899,0.4511165725427654,0.8868298441431322,0.6648393734531997
809,45.329,45.28,4.74,0.7576548508284536,0.3765177578712685,0.8208154004670585,0.4474416969495109,0.8835613037111734,0.66095541865019
810,45.391,45.33,4.63,0.7553090139362764,0.3736981537029589,0.8184234490464021,0.4436862471279999,0.8802864576791708,0.6571174962676124
811,45.495,45.39,4.63,0.7529925206996854,0.37101923822295985,0.8160799872804594,0.43985129431852127,0.8770074076217134,0.6533272046000116
812,45.516,45.44,4.66,0.750707280906159,0.3684817593922036,0.8137869105466782,0.4359379938070235,0.8737262499693923,0.6495861088470458
813,45.578,45.5,4.59,0.7484551867176277,0.36608637658027965,0.8115460633262487,0.4319475834116614,0.8704450746039141,0.645895739998437
814,45.599,45.55,4.5,0.7462381113506031,0.36383366041684617,0.8093592380903862,0.42788138189354297,0.8671659634562567,0.6422575937429396
815,45.64,45.6,4.57,0.7440579077620336,0.3617240926939342,0.8072281742317092,0.42374078729387965,0.8638909891087552,0.6386731294019168
816,45.703,45.66,4.53,0.7419164073419023,0.35975806631752477,0.8051545570416256,0.4195272751996312,0.8606222134019665,0.6351437688881811
817,45.745,45.72,4.46,0.7398154186136162,0.3579358853067199,0.8031400167345462,0.41524239693962817,0.8573616860471188,0.6316708956908295
818,45.847,45.77,4.52,0.7377567259432343,0.3562577648388278,0.8011861275196244,0.41088777771312884,0.8541114432449022,0.6282558538868284
819,45.867,45.83,4.53,0.7357420882585674,0.35472383133881974,0.7992944067206307,0.4064651146527612,0.8508735063113426,0.6248999471800696
820,45.91,45.88,4.44,0.7337732377791585,0.3533341226118521,0.797466313944505,0.40197617482371356,0.8476498803114908,0.62160443796856
821,45.969,45.94,4.46,0.7318518787581143,0.35208858801785897,0.7957032502991275,0.39742279316088636,0.8444425527016682,0.6183705464403795
822,46.031,45.99,4.52,0.7299796862367256,0.35098708868751316,0.7940065576608806,0.39280687034547085,0.8412534919810307,0.6151994496989978
823,46.092,46.05,4.46,0.7281583048127908,0.35002939777908443,0.7923775179926285,0.38813037062200045,0.8380846463532372,0.6120922809184961
824,46.133,46.1,4.4,0.7263893474235371,0.3492152007759363,0.790817352712794,0.38339531955649175,0.8349379423990294,0.609050128529181
825,46.215,46.16,4.49,0.7246743941440157,0.3485440958246006,0.7893272221161771,0.3786038017360402,0.8318152837605598,0.6060740354339675
826,46.235,46.21,4.46,0.7230149910018459,0.3480155941134937,0.7879082248470958,0.3737579584102065,0.8287185498383377,0.6031649982557569
827,46.297,46.27,4.36,0.7214126488091883,0.3476291202924149,0.7865613974252798,0.36885998507484685,0.8256495945016863,0.6003239666159403
828,46.359,46.32,4.4,0.7198688420128329,0.3473840129330425,0.7852877138247331,0.3639121289997735,0.8226102448136334,0.5975518424441356
829,46.421,46.38,4.46,0.7183850075633148,0.3472795250307079,0.7840880851055975,0.358916686702469,0.8196022997711788,0.5948494793192824
830,46.462,46.43,4.35,0.7169625438040161,0.34731482454779583,0.7829633590989135,0.3538760013707168,0.8166275290619065,0.5922176818423237
831,46.524,46.49,4.31,0.7156028093812444,0.34748899499926594,0.7819143201441102,0.34879246023758587,0.8136876718379205,0.5896572050408191
832,46.585,46.54,4.35,0.7143071221763038,0.34780103608100416,0.7809416888789513,0.34366849191288706,0.8107844355081063,0.5871687538058671
833,46.625,46.6,4.25,0.7130767582605673,0.34824986434189537,0.7800461220815705,0.3385065636758454,0.807919494549738,0.584752982361619
834,46.686,46.65,4.17,0.7119129508745365,0.34883431390059866,0.7792282125641092,0.33330917873418064,0.8050944893404326,0.5824104937675927
835,46.747,46.71,4.29,0.7108168894318229,0.34955313720797226,0.7784884891173349,0.32807887345501535,0.8023110250114103,0.5801418394539497
836,46.788,46.76,4.31,0.7097897185489502,0.35040500585592416,0.7778274165055198,0.322818214573018,0.799570670322963,0.5779475187899165
837,46.891,46.82,4.2,0.7088325371018555,0.3513885114332233,0.7772453955107598,0.31752979638107964,0.7968749565629919,0.5758279786856011
838,46.953,46.87,4.27,0.7079463973099454,0.3525021664286626,0.7767427630258106,0.3122162379088947,0.7942253764694726,0.5737836132275292
839,46.973,46.92,4.28,0.7071323038485673,0.35374440518195716,0.7763197921944099,0.3068801800951221,0.7916233831777698,0.5718147633482544
840,47.015,46.98,4.19,0.7063912129907591,0.35511358488286066,0.7759766925979699,0.3015242829591712,0.7890703891937838,0.5699217165304358
841,47.077,47.03,4.14,0.7057240317791575,0.3566079866191825,0.7757136104875052,0.29615122277891315,0.786567765393971,0.5681047065458439
842,47.117,47.09,4.18,0.705131617228964,0.35822581647459645,0.775530629059739,0.29076368928044594,0.7841168400533116,0.5663639132298389
843,47.179,47.15,4.13,0.704614775562894,0.35996520667725196,0.7754277687764851,0.2853643828452391,0.7817188979023074,0.5646994622919511
844,47.242,47.2,4.05,0.7041742614790463,0.36182421680020443,0.7754049877265733,0.27995601173881696,0.7793751792140666,0.5631114251633191
845,47.303,47.26,4.11,0.703810777452616,0.3638008350145632,0.7754621820296725,0.2745412893641104,0.7770868789224951,0.5615998188817739
846,47.366,47.31,4.1,0.7035249730723491,0.365892979396033,0.7755991862814411,0.26912293154184974,0.7748551457725873,0.560164606015262
847,47.408,47.37,3.99,0.7033174444125951,0.36809849928524524,0.7758157740394789,0.2637036538198588,0.7726810815037829,0.5588056946241343
848,47.448,47.42,4.0,0.7031887334417712,0.37041517670205193,0.7761116583495862,0.25828616881286903,0.7705657400673326,0.5575229382627154
849,47.51,47.48,4.05,0.7031393274680215,0.3728407278138159,0.7764864923118477,0.25287318357438143,0.7685101268786038,0.556316136020489
850,47.571,47.53,3.96,0.7031696586228481,0.3753728044576287,0.7769398696861372,0.24746739700194378,0.7665151981052314,0.5551850326032749
851,47.632,47.59,3.91,0.7032801033835028,0.37800899571634383,0.7774713255367777,0.24207149727702593,0.7645818599919912,0.5541293184548719
852,47.673,47.64,3.99,0.703470982134944,0.38074682954828803,0.7780803369162288,0.23668815934056245,0.7627109682232426,0.5531486299197462
853,47.736,47.7,3.95,0.7037425587721623,0.38358377447041075,0.7787663235877563,0.23132004240510856,0.7609033273237816,0.552242549447341
854,47.798,47.75,3.83,0.704095040343678,0.3865172412944331,0.7795286487870359,0.22596978750440497,0.7591596900989098,0.5514106058384949
855,47.84,47.81,3.88,0.7045285767369917,0.38954458491529104,0.7803666200225529,0.22064001508101713,0.7574807571145192,0.5506522745342856
856,47.902,47.86,3.89,0.705043260406753,0.39266310615084926,0.7812794899145461,0.2153333226125671,0.7558671762179773,0.5499669779474323
857,47.964,47.92,3.79,0.7056391261463855,0.3958700536315254,0.7822664570721374,0.2100522822769462,0.7543195421005561,0.5493540858363358
858,48.046,47.97,3.81,0.7063161509038685,0.39916262573821176,0.7833266670081922,0.20479943865697775,0.7528383959021056,0.5488129157218896
859,48.067,48.03,3.82,0.707074253642315,0.40253797258674007,0.7844592130913441,0.1995773064852361,0.751424224858632,0.5483427333472466
860,48.107,48.08,3.75,0.7079132952459017,0.4059931980571022,0.7856631375345301,0.19438836842992352,0.7500774619934045,0.5479427531807073
861,48.189,48.14,3.7,0.7088330784716095,0.4095253618657008,0.7869374324192644,0.1892350729228311,0.7487984858521862,0.5476121389618694
862,48.23,48.19,3.77,0.7098333479471318,0.41313148167901764,0.7882810407547703,0.18411983203050983,0.7475876202831455,0.5473500042911146
863,48.292,48.25,3.72,0.7109137902152232,0.4168085352671364,0.7896928575709738,0.17904501936975983,0.7464451342619507,0.5471554132623784
864,48.355,48.3,3.64,0.7120740338246746,0.4205534626955017,0.7911717310442645,0.17401296806842817,0.7453712417625096,0.5470273811389974
865,48.416,48.35,3.69,0.7133136494680359,0.4243631685531669,0.7927164636548436,0.16902596877236922,0.7443661016737615,0.5469648750722818
866,48.436,48.41,3.72,0.7146321501661445,0.4282345242155717,0.7943258133744318,0.16408626769921533,0.7434298177628975,0.5469668148623966
867,48.498,48.47,3.59,0.7160289914994942,0.43216437013966547,0.7959984948831237,0.15919606473929437,0.7425624386853438,0.5470320737611771
868,48.561,48.52,3.6,0.7175035718864483,0.43614951818904424,0.797733180814204,0.15435751160377983,0.7417639580417998,0.5471594793166121
869,48.601,48.58,3.67,0.7190552329082837,0.4401867539866922,0.7995285030257797,0.1495727100199666,0.7410343144825856,0.547347814258816
870,48.665,48.63,3.6,0.7206832596810303,0.444272839292844,0.801383053898122,0.14484370997331542,0.7403733918595075,0.5475958174273423
