,Time_Host,Time_Arduino,easingdata,CH1_Oxy,CH1_Deoxy,CH2_Oxy,CH2_Deoxy,CH3_Oxy,CH3_Deoxy
0,1.418,0.04,0.0,0.1236957923426008,0.0,0.07077964797099062,0.8386856132860033,0.09421794498872488,0.7269796886737018
1,1.438,0.1,0.0,0.12225584137879995,0.00862542327767137,0.07045444275904779,0.8370550613842047,0.09434562997571559,0.7292415122227449
2,1.458,0.15,0.0,0.12082667926526705,0.01724145990896444,0.07013988370012214,0.8354307437710697,0.09448829065557987,0.7314978301915422
3,1.479,0.21,0.0,0.11940881923072476,0.025844934829699996,0.06983606126132712,0.8338135460316006,0.09464587006073319,0.7337477762027242
4,1.499,0.26,0.0,0.11800276121302831,0.03443269105796219,0.06954305246845055,0.8322043535108182,0.09481829190469715,0.7359904912075386
5,1.519,1.06,0.0,0.11660899131109906,0.043001592590679066,0.06926092067492684,0.8306040504627609,0.09500546029736,0.7382251243273983
6,1.539,1.11,0.0,0.11522798125613626,0.05154852726172207,0.06898971534902203,0.8290135191949644,0.09520725948188863,0.7404508336843859
7,1.642,1.17,0.0,0.11386018790282501,0.060070409557226284,0.06872947187980587,0.8274336392096802,0.09542355359425027,0.7426667872195615
8,1.663,1.22,0.0,0.11250605274121497,0.06856418338387875,0.06848021140245708,0.825865286343136,0.09565418644628809,0.7448721634979475
9,1.703,1.28,0.0,0.1111660014299074,0.07702682478596053,0.06824194064342219,0.8243093319041871,0.09589898133327805,0.7470661524990797
10,1.764,1.33,-0.04,0.10984044335114819,0.08545534460695835,0.06801465178592163,0.822766641813754,0.09615774086687827,0.7492479563920347
11,1.806,1.39,-0.08,0.10852977118839154,0.09384679109158693,0.0677983223562677,0.8212380757465002,0.09643024683435865,0.7514167902938625
12,1.888,1.44,-0.07,0.1072343605268714,0.10219825242409392,0.06759291513142443,0.8197244862762729,0.09671626008495389,0.7535718830103869
13,1.93,1.5,-0.06,0.10595456947769692,0.11050685919878298,0.06739837806818773,0.8182267180269185,0.09701552044410167,0.7557124777584072
14,2.012,1.55,-0.07,0.10469073832595685,0.11876978681882135,0.06721464425429606,0.8167456068301786,0.09732774665621673,0.7578378328684345
15,2.033,1.61,-0.08,0.10344318920326107,0.12698425781962872,0.06704163188170127,0.8152819788924455,0.09765263635654318,0.759947222467209
16,2.094,1.66,-0.06,0.10221222578505897,0.13514754411345958,0.06687924424215565,0.8138366499721752,0.0979898660725474,0.762039937139332
17,2.136,1.72,-0.06,0.10099813301297686,0.1432569691521593,0.06672736974521404,0.8124104245697462,0.09833909125526152,0.7641152845674094
18,2.198,1.77,-0.07,0.09980117684232223,0.15130991000544827,0.06658588195870024,0.8110040951315038,0.09869994634094768,0.7661725901501559
19,2.259,1.83,-0.05,0.09862160401483065,0.15930379935243913,0.06645463967163424,0.8096184412696894,0.09907204484342101,0.7682111975979423
20,2.363,1.88,-0.05,0.09745964185669453,0.16723612738438248,0.0663334869795584,0.8082542289999253,0.09945497947734598,0.7702304695052792
21,2.384,1.94,-0.07,0.09631549810193402,0.1751044436168237,0.06622225339214372,0.8069122099978633,0.09984832231280036,0.7722297878997229
22,2.426,1.99,-0.07,0.0951893607412593,0.18290635860941426,0.06612075396290784,0.8055931208765469,0.10025162496138273,0.7742085547666788
23,2.488,2.05,-0.07,0.09408139789669853,0.1906395455916106,0.06602878944084571,0.8042976824859397,0.10066441879411292,0.7761661925495704
24,2.549,2.1,-0.1,0.09299175772235305,0.1983017419925268,0.06594614644375892,0.8030265992359562,0.10108621519133519,0.7781021446248507
25,2.631,2.16,-0.12,0.09192056833165266,0.20589075087334854,0.06587259765305363,0.801780558444224,0.10151650582477613,0.7800158757513777
26,2.651,2.21,-0.12,0.09086793775144458,0.2134044422609253,0.06580790202974222,0.8005602297097271,0.10195476297183757,0.7819068724937122
27,2.734,2.27,-0.13,0.08983395390320474,0.22084075438136894,0.06575180505132833,0.7993662643134269,0.10240043986211471,0.7837746436189632
28,2.755,2.32,-0.14,0.08881868461161475,0.2281976947926912,0.06570403896918289,0.7981992946468716,0.10285297105602363,0.7856187204668473
29,2.797,2.38,-0.12,0.08782217764068961,0.23547334141573179,0.06566432308595388,0.7970599336696639,0.10331177285531147,0.7874386572926791
30,2.859,2.43,-0.12,0.08684446075755495,0.24266584346288328,0.06563236405251525,0.7959487743964038,0.10377624374512429,0.7892340315830512
31,2.919,2.49,-0.12,0.08588554182384699,0.24977342226443264,0.0656078561839547,0.7948663894134211,0.10424576486722745,0.7910044443440014
32,2.96,2.54,-0.1,0.0849454089145689,0.25679437199266436,0.06559048179410017,0.7938133304253737,0.10471970052391584,0.7927495203615255
33,3.022,2.6,-0.09,0.08402403046413082,0.263727060284141,0.06557991154808383,0.7927901278316567,0.10519739871211187,0.7944689084343441
34,3.083,2.65,-0.1,0.08312135543924047,0.27056992876077857,0.06557580483243965,0.7917972903325269,0.10567819168711862,0.7961622815789022
35,3.145,2.71,-0.09,0.08223731353826591,0.27732149345051355,0.06557781014222719,0.7908353045648479,0.10616139655547045,0.7978293372066482
36,3.226,2.76,-0.08,0.08137181541664122,0.28398034510855497,0.06558556548467138,0.7899046347673617,0.10664631589630304,0.7994697972737156
37,3.287,2.82,-0.1,0.0805247529378422,0.29054514944040416,0.06559869879880867,0.7890057224753823,0.10713223841064191,0.8010834084031913
38,3.307,2.87,-0.11,0.07969599944943408,0.2970146472279806,0.06561682839062496,0.788138986244765,0.10761843959797986,0.8026699419802087
39,3.348,2.93,-0.1,0.07888541008368383,0.3033876543603053,0.06563956338315632,0.7873048214049762,0.10810418245947635,0.8042291942201398
40,3.45,2.98,-0.12,0.07809282208222046,0.30966306177028874,0.06566650418099837,0.7865035998410288,0.10858871822706113,0.8057609862101692
41,3.471,3.04,-0.14,0.07731805514419797,0.31583983527926496,0.06569724294863728,0.7857356698039694,0.10907128711765735,0.8072651639245265
42,3.512,3.09,-0.12,0.07656091179737055,0.32191701535101225,0.06573136410196813,0.785001355749504,0.10955111911166103,0.808741598213633
43,3.573,3.15,-0.11,0.07582117779144697,0.3278937167570809,0.06576844481231085,0.7843009582042662,0.11002743475472669,0.8101901847673958
44,3.635,3.2,-0.11,0.07509862251305477,0.333769128155312,0.06580805552217153,0.7836347536591514,0.11049944598181925,0.8116108440528824
45,3.698,3.26,-0.09,0.07439299942160282,0.33954251158351234,0.06584976047193003,0.7830029944891373,0.11096635696241385,0.813003521226631
46,3.739,3.31,-0.07,0.0737040465052717,0.3452132018703739,0.06589311823657983,0.7824059088990489,0.11142736496567043,0.8143681860219045
47,3.824,3.37,-0.06,0.07303148675628898,0.35078060596589566,0.06593768227161662,0.7818437008947914,0.11188166124438283,0.8157048326112434
48,3.844,3.42,-0.06,0.07237502866456366,0.35624420219375436,0.06598300146716986,0.7813165502796221,0.11232843193649455,0.817013479444726
49,3.928,3.48,-0.03,0.07173436672867509,0.3616035394282685,0.06602862070948962,0.7808246126750565,0.11276685898298566,0.8182941690643711
50,3.988,3.53,-0.03,0.07110918198315538,0.36685823619876007,0.06607408144893342,0.7803680195659994,0.11319612106094762,0.8195469678951383
51,4.009,3.59,-0.04,0.07049914254096874,0.3720079797242495,0.06611892227363106,0.779946878369637,0.11361539453067378,0.8207719660129961
52,4.069,3.64,-0.02,0.06990390415006682,0.37705252488152685,0.06616267948802793,0.7795612725275922,0.11402385439559948,0.821969276890541
53,4.132,3.7,-0.02,0.06932311076288697,0.3819916931097204,0.06620488769552035,0.7792112616207856,0.11442067527392959,0.8231390371206402
54,4.193,3.75,-0.04,0.06875639511766171,0.3868253712545194,0.06624508038440123,0.7788968815064036,0.11480503238078396,0.8242814061185633
55,4.234,3.81,-0.03,0.06820337933042568,0.3915535103552074,0.06628279051633443,0.7786181444763364,0.115176102519673,0.8253965658030712
56,4.296,3.86,-0.02,0.06766367549663499,0.3961761243776397,0.06631755111657658,0.7783750394364273,0.11553306508208482,0.8264847202569388
57,4.338,3.92,-0.03,0.06713688630135269,0.40069328889624956,0.06634889586517541,0.7781675321058416,0.1158751030539274,0.8275460953674015
58,4.399,3.97,-0.03,0.06662260563699374,0.40510513972812184,0.06637635968838318,0.7779955652358505,0.11620140402752298,0.8285809384470285
59,4.461,4.03,0.01,0.06612041922766146,0.40941187152211583,0.06639947934952196,0.7778590588472952,0.11651116121780848,0.8295895178355261
60,4.604,4.08,0.01,0.06562990525914436,0.41361373630597437,0.06641779403852735,0.7777579104859965,0.11680357448136024,0.8305721224829761
61,4.625,4.14,0.02,0.0651506350136809,0.41771104199431436,0.06643084595939239,0.7776919954953756,0.11707785133684016,0.8315290615150076
62,4.644,4.19,0.06,0.0646821735086429,0.42170415086034885,0.06643818091474299,0.7776611673055539,0.11733320798546149,0.8324606637804038
63,4.665,4.25,0.08,0.06422408013834832,0.4255934779741216,0.06643934888680561,0.777665257738198,0.11756887033009607,0.833367277381625
64,4.727,4.3,0.07,0.06377590931828031,0.42937948960995803,0.06643390461406762,0.7777040773263749,0.11778407499168558,0.8342492691887149
65,4.791,4.36,0.09,0.0633372111310491,0.4330627016257654,0.0664214081629693,0.7777774156486941,0.11797807032167225,0.8351070243370419
66,4.852,4.41,0.1,0.06290753197346773,0.4366436778167811,0.06640142549400152,0.7778850416770524,0.11815011740922353,0.8359409457093155
67,4.934,4.47,0.09,0.06248641520410817,0.4401230282463959,0.06637352902161645,0.7780267041373409,0.11829949108207424,0.8367514534023429
68,4.954,4.52,0.09,0.06207340179065977,0.44350140755676126,0.06633729816738572,0.7782021318825455,0.11842548089984331,0.8375389841790533
69,4.996,4.58,0.1,0.06166803095634761,0.4467795132620091,0.06629231990586061,0.7784110342777644,0.1185273921387004,0.838303990906398
70,5.06,4.63,0.09,0.061269840824606264,0.4499580840270124,0.06623818930260716,0.7786531015967404,0.11860454676626084,0.8390469419798213
71,5.12,4.69,0.08,0.06087836906113894,0.45303789793471355,0.06617451004389932,0.7789280054295569,0.11865628440557675,0.8397683207350831
72,5.204,4.74,0.11,0.060493153512428614,0.4560197707451139,0.06610089495754888,0.7792353991011658,0.11868196328707568,0.8404686248482589
73,5.246,4.8,0.1,0.060113732839713434,0.45890455414904424,0.06601696652433967,0.7795749181004152,0.11868096118728098,0.8411483657247646
74,5.288,4.85,0.11,0.05973964714740142,0.4616931340198162,0.06592235737952026,0.7799461805191981,0.11865267635313488,0.8418080678782294
75,5.35,4.91,0.13,0.059370438604880935,0.4643864286658039,0.06581671080379788,0.7803487875013139,0.11859652841074203,0.8424482683000221
76,5.411,4.96,0.14,0.05900565206068851,0.4669853870869326,0.0656996812032744,0.7807823237006014,0.11851195925736324,0.8430695158202078
77,5.431,5.02,0.14,0.0586448356480191,0.46949098723799365,0.06557093457777942,0.7812463577478835,0.11839843393551146,0.8436723704607053
78,5.513,5.07,0.16,0.0582875413805883,0.4719042343016601,0.06543014897707111,0.7817404427262652,0.11825544148803652,0.8442574027814094
79,5.553,5.13,0.18,0.05793332573787767,0.4742261589740662,0.06527701494438529,0.7822641166543955,0.118082495793128,0.8448251932200354
80,5.614,5.18,0.17,0.057581750238810375,0.4764578157658012,0.06511123594681568,0.7828169029773943,0.11787913637821328,0.8453763314264269
81,5.657,5.24,0.16,0.05723238200290846,0.4786002813211626,0.06493252879201171,0.7833983110652563,0.11764492921177448,0.8459114155920474
82,5.717,5.29,0.18,0.0568847942979909,0.48065465275848257,0.06474062403068803,0.7840078367186171,0.11737946747215135,0.8464310517753614
83,5.778,5.35,0.17,0.05653856707351806,0.48262204603422876,0.06453526634445712,0.7846449626817884,0.11708237229242863,0.8469358532237904
84,5.839,5.4,0.15,0.05619328747879337,0.48450359433336176,0.06431621491851368,0.7853091591629431,0.11675329348052399,0.8474264396929142
85,5.901,5.46,0.16,0.05584855036536689,0.48630044648814663,0.0640832437987121,0.7859998843612498,0.1163919102136041,0.8479034367635652
86,5.962,5.51,0.17,0.05550395877311417,0.4880137654273352,0.06383614223259311,0.7867165850006202,0.11599793170596133,0.8483674751574171
87,6.024,5.57,0.16,0.0551591243995692,0.48964472665738845,0.06357471499393777,0.7874586968695421,0.11557109784948319,0.848819190051634
88,6.045,5.62,0.18,0.05481366805217925,0.49119451677719095,0.06329878269045343,0.7882256453662545,0.11511117982583986,0.849259220393109
89,6.107,5.68,0.2,0.054467220083222384,0.49266433202753346,0.06300818205422165,0.7890168460483925,0.11461798068951724,0.8496882082128032
90,6.168,5.73,0.2,0.054119420807179304,0.4940553768765171,0.06270276621456239,0.7898317051861821,0.11409133592084073,0.8501067979406989
91,6.21,5.79,0.2,0.05376992090037667,0.49536886264197116,0.06238240495299102,0.7906696203183209,0.11353111394817003,0.8505156357218839
92,6.271,5.84,0.22,0.053418381782738285,0.4966060061519314,0.062046984939965105,0.7915299808097696,0.11293721663849761,0.8509153687343085
93,6.333,5.9,0.21,0.05306447598151079,0.4977680284441658,0.061696409953142115,0.7924121684107763,0.11230957975574188,0.8513066445087568
94,6.394,5.95,0.2,0.05270788747687709,0.49885615350563495,0.06133060107690206,0.7933155578165244,0.11164817338607964,0.85169011025159
95,6.476,6.01,0.22,0.052348312029430945,0.4998716070526392,0.06094949688294227,0.7942395172268135,0.11095300232970126,0.8520664121708268
96,6.496,6.06,0.22,0.05198545748955987,0.5008156153522394,0.06055305359183439,0.7951834089051526,0.11022410645840239,0.8524361948061461
97,6.559,6.12,0.19,0.051619044088851034,0.5016894040853649,0.060141245215524865,0.7961465897365604,0.10946156103844805,0.8528001003634199
98,6.6,6.17,0.19,0.051248804713671214,0.5024941972519035,0.05971406368081597,0.7971284117833166,0.10866547701816752,0.8531587680543905
99,6.662,6.23,0.19,0.05087448516106692,0.5032312161180074,0.059271518933874515,0.7981282228379212,0.10783600127975707,0.8535128334421239
100,6.702,6.28,0.17,0.05049584437709833,0.5039016782058402,0.05881363902580198,0.7991453669725486,0.1069733168547718,0.8538629277928744
101,6.763,6.34,0.16,0.050112654677681015,0.5045067963259963,0.05834047017927682,0.8001791850843235,0.10607764310277464,0.8542096774350108
102,6.844,6.39,0.19,0.04972470195197962,0.5050477776528144,0.05785207683624834,0.8012290154357882,0.10514923585258991,0.8545537031256594
103,6.865,6.45,0.18,0.04933178584838718,0.5055258228427697,0.05734854168662699,0.8022941941899787,0.10418838750558974,0.8548956194257036
104,6.927,6.5,0.18,0.048933719943115545,0.5059421251960798,0.05682996567788862,0.8033740559395596,0.10319542710043286,0.855236034083764
105,6.989,6.56,0.21,0.04853033189140715,0.5062978698616267,0.05629646800549836,0.8044679342294888,0.10217072033868557,0.8555755474297672
106,7.052,6.61,0.22,0.04812146356135857,0.5065942330852702,0.055748186084069576,0.8055751620726799,0.10111466957078856,0.8559147517787017
107,7.156,6.67,0.22,0.04770697115032318,0.5068323815016179,0.05518527549919808,0.8066950724581189,0.10002771374188153,0.8562542308451617
108,7.177,6.72,0.23,0.04728672528383709,0.5070134714692869,0.054607909939939754,0.8078269988509195,0.09891032829706164,0.8565945591692884
109,7.219,6.78,0.24,0.046860611097004824,0.5071386484496634,0.05401628111192921,0.8089702756838466,0.09776302504572705,0.8569363015547425
110,7.302,6.83,0.22,0.04642852829830704,0.5072090464290835,0.053410598631173825,0.810124238839911,0.09658635198473606,0.8572800125193436
111,7.323,6.89,0.21,0.04599039121584398,0.5072257873842538,0.05279108989859634,0.8112882261257123,0.09538089308018703,0.8576262357590427
112,7.363,6.94,0.21,0.04554612882609103,0.5071899807906078,0.05215799995543794,0.8124615777352759,0.09414726800768185,0.8579755036259251
113,7.425,7.0,0.18,0.04509568476530097,0.5071027231731696,0.051511591319671056,0.8136436367041675,0.09288613185097153,0.8583283366209907
114,7.508,7.05,0.16,0.044639017323727576,0.5069650976993937,0.05085214380360243,0.8148337493536553,0.09159817475889025,0.8586852429025149
115,7.527,7.11,0.18,0.04417609942285918,0.5067781738133695,0.050179954312863956,0.816031265724643,0.09028412156047376,0.8590467178108363
116,7.588,7.16,0.18,0.04370691857585201,0.5065430069107094,0.04949533662699178,0.8172355400010143,0.08894473133813645,0.8594132434104367
117,7.65,7.22,0.17,0.04323147683134761,0.5062606380533701,0.048798621161783275,0.8184459309219355,0.08758079695876088,0.8597852880501714
118,7.691,7.27,0.19,0.0427497907008432,0.5059320937235917,0.04809015471360633,0.8196618021825824,0.08619314456254305,0.8601633059424685
119,7.752,7.33,0.2,0.04226189106976237,0.5055583856160971,0.04737030018582831,0.8208825228227006,0.08478263300945012,0.8605477367622587
120,7.815,7.38,0.24,0.04176782309235595,0.5051405104676533,0.0466394362975418,0.8221074676023679,0.08335015328317967,0.8609390052663494
121,7.877,7.44,0.25,0.04126764607055654,0.504679449923066,0.04589795727478022,0.8233360173643623,0.08189662785256922,0.8613375209339175
122,7.918,7.49,0.27,0.04076143331691642,0.5041761704366392,0.045146272524435184,0.8245675593826225,0.08042300999049377,0.8617436776287205
123,7.979,7.55,0.26,0.040249272001774125,0.5036316232080881,0.04438480629110958,0.825801487696418,0.07893028305041655,0.8621578532834906
124,8.021,7.6,0.27,0.03973126298480837,0.5030467441518783,0.04361399729716375,0.8270372034299843,0.07741945970090103,0.8625804096067999
125,8.084,7.66,0.28,0.03920752063114813,0.5024224538989546,0.042834298366234945,0.8282741150974853,0.07589158111853145,0.8630116918125323
126,8.167,7.71,0.26,0.038678172612219355,0.5017596578298569,0.04204617603053651,0.8295116388932541,0.07434771613980698,0.8634520283720017
127,8.23,7.77,0.25,0.03814335969151491,0.5010592461382679,0.04125011012227055,0.8307491989672927,0.07278896037267106,0.8639017307886837
128,8.251,7.82,0.25,0.037603235495460886,0.5003220939241385,0.04044659334950943,0.8319862276860349,0.0712164352684174,0.8643610933954717
129,8.292,7.88,0.23,0.037057966269523325,0.49954906131565335,0.03963613085691337,0.8332221658784114,0.06963128715477425,0.8648303931743234
130,8.395,7.93,0.21,0.036507730619668825,0.49874099361939117,0.0388192397716472,0.8344564630673028,0.06803468623100659,0.8653098895981743
131,8.415,7.99,0.26,0.03595271923926665,0.4978987214980802,0.03799644873483612,0.8356885776865622,0.0664278255258967,0.8657998244950258
132,8.476,8.04,0.27,0.03539313462150272,0.4970230611753486,0.03716829741886513,0.8369179772839105,0.06481191981948466,0.8663004219341482
133,8.517,8.1,0.27,0.0348291907573721,0.4961148146668175,0.036335336030799165,0.8381441387101065,0.06318820452949127,0.8668118881343139
134,8.622,8.15,0.26,0.034261112819326804,0.49517477003681504,0.035498124802185796,0.8393665482948752,0.06155793456342652,0.8673344113938645
135,8.642,8.21,0.28,0.033689136830680255,0.49420370167989336,0.03465723346550358,0.8405847020101419,0.059922383137503414,0.8678681620422566
136,8.706,8.26,0.27,0.03311350932090305,0.49320237062622924,0.03381324071753509,0.8417981056211767,0.05828284056360076,0.8684132924126015
137,8.766,8.32,0.26,0.03253448696697831,0.4921715248698844,0.0329667336699718,0.8430062748263012,0.05664061300562657,0.8689699368346638
138,8.807,8.37,0.27,0.03195233622102099,0.49111189971879077,0.03211830728759463,0.8442087353858351,0.05499702120672753,0.8695382116477858
139,8.867,8.43,0.27,0.03136733292442395,0.4900242181651873,0.031268563814428094,0.8454050232409533,0.053353399188879075,0.8701182152332184
140,8.968,8.48,0.24,0.03077976190887432,0.4889091912750616,0.03041811218834439,0.8465946846230651,0.05171109292647517,0.8707100280653554
141,8.988,8.54,0.23,0.030189916584665945,0.487767518594976,0.029567567444679314,0.8477772761542433,0.05007145899561613,0.8713137127813828
142,9.03,8.59,0.22,0.029598098516788976,0.48659988857452846,0.028717550109490772,0.8489523649392056,0.04843586320086093,0.8719293142688813
143,9.091,8.65,0.19,0.029004616989295053,0.4854069790026249,0.027868685583131762,0.8501195286493562,0.04680567918126019,0.8725568597709531
144,9.152,8.7,0.17,0.02840978855843246,0.48418945745569514,0.02702160351482477,0.8512783555994482,0.04518228699751409,0.8731963590084879
145,9.194,8.76,0.17,0.027813936595059215,0.48294798175592907,0.026176937168927317,0.8524284448174546,0.043567071702112714,0.8738478043192194
146,9.256,8.81,0.15,0.027217390816905652,0.48168320043748103,0.02533532278358092,0.8535694061082102,0.041961421894319506,0.874511170813229
147,9.337,8.87,0.14,0.026620486811361036,0.4803957532184281,0.024497398922437217,0.8547008601112799,0.040366728261855805,0.8751864165445536
148,9.358,8.92,0.15,0.026023565549569916,0.4790862714761285,0.023663805820151373,0.8558224383534084,0.03878438211114756,0.8758734826985256
149,9.398,8.98,0.14,0.02542697289271582,0.47775537872356016,0.022835184722331026,0.8569337832958258,0.03721577388800903,0.8765722937944577
150,9.46,9.03,0.11,0.02483105909142863,0.4764036910842584,0.022012177220633675,0.8580345483766353,0.03566229169066238,0.8772827579032666
151,9.522,9.09,0.11,0.024236178279276693,0.4750318177636136,0.02119542458371564,0.8591243980485154,0.03412531977702325,0.8780047668796118
152,9.585,9.14,0.11,0.023642687961306683,0.47364036151451183,0.020385567084756404,0.8602030078120042,0.03260623706821379,0.8787381966081181
153,9.626,9.2,0.08,0.023050948498573743,0.4722299190955891,0.019583243326315287,0.8612700642446623,0.03110641565028981,0.879482907263251
154,9.708,9.25,0.06,0.022461322589549776,0.47080108172070323,0.018789089563311608,0.8623252650264522,0.02962721927618535,0.8802387435824269
155,9.728,9.31,0.06,0.02187417474922227,0.4693544354985688,0.018003739024947008,0.8633683189617022,0.028170001869893043,0.8810055351519611
156,9.789,9.36,0.03,0.02128987078664097,0.46789056186174843,0.017227821236413397,0.8643989459980423,0.026736106034910462,0.8817830967054491
157,9.851,9.42,-0.0,0.020708777281658576,0.46641003798433445,0.016461961341252364,0.8654168772426455,0.025326861568986673,0.8825712284341845
158,9.911,9.47,-0.02,0.02013126106162946,0.4649134371876999,0.015706779425243532,0.8664218549760431,0.023943583987195677,0.8833697163091994
159,9.993,9.53,-0.04,0.0195576886788506,0.46340132933371153,0.014962889842691559,0.8674136326636943,0.022587573055338938,0.8841783324144981
160,10.014,9.58,-0.07,0.018988425889531473,0.4618742812048134,0.014230900545949146,0.8683919749654208,0.021260111335634053,0.8849968352910363
161,10.077,9.64,-0.05,0.018423837135064354,0.4603328568704034,0.013511412418959643,0.8693566577427839,0.019962462746585825,0.8858249702909956
162,10.138,9.69,-0.05,0.01786428502634375,0.45877761803895395,0.012805018615547165,0.8703074680644594,0.018695871138877457,0.8866624699418971
163,10.178,9.75,-0.06,0.0173101298318635,0.45720912439535255,0.01211230390314148,0.8712442042096629,0.01746155888907839,0.8875090543201162
164,10.241,9.8,-0.05,0.01676172897030659,0.4556279339229756,0.011433844012603285,0.8721666756697254,0.016260725512954773,0.8883644314333727
165,10.304,9.86,-0.04,0.016219436508348596,0.45403460321004196,0.010770204994811097,0.8730747031479877,0.015094546300190166,0.8892282976117813
166,10.344,9.91,-0.05,0.01568360266441034,0.45242968773982306,0.01012194258468253,0.8739681185582714,0.013964170972364857,0.8901003379070577
167,10.446,9.97,-0.06,0.015154573319079545,0.45081374216438,0.009489601573324792,0.8748467650222455,0.012870722366093545,0.8909802264994843
168,10.467,10.02,-0.05,0.014632689532843399,0.44918732056168154,0.008873715189039642,0.8757104968660363,0.011815295143277062,0.8918676271122388
169,10.509,10.08,-0.09,0.014118287071656013,0.44755097667618815,0.008274804487946917,0.8765591796164047,0.01079895453047691,0.8927621934326824
170,10.571,10.13,-0.13,0.013611695940757146,0.4459052641431762,0.007693377755031873,0.8773926899967208,0.009822735089460228,0.8936635695402053
171,10.612,10.19,-0.15,0.013113239927091612,0.4442507366971791,0.007129929916458257,0.8782109159228233,0.008887639520979816,0.8945713903402364
172,10.676,10.24,-0.16,0.012623236150649125,0.4425879483649668,0.006584941964018484,0.879013756498678,0.007994637503839094,0.895485282004051
173,10.779,10.3,-0.22,0.012141994625033369,0.44091745364349566,0.006058880392603401,0.8798011220116192,0.007144664571240304,0.8964048624140457
174,10.801,10.35,-0.25,0.011669817827557306,0.43923980766327675,0.005552196651555892,0.8805729339268953,0.006338621026333248,0.8973297416141871
175,10.822,10.41,-0.27,0.011207000279146846,0.43755556633762416,0.00506532661072876,0.8813291248812636,0.005577370898782303,0.8982595222653487
176,10.883,10.46,-0.31,0.010753828134317108,0.43586528649825734,0.004598690042009816,0.8820696386754054,0.004861740944050947,0.8991938001052295
177,10.945,10.52,-0.33,0.010310578781455686,0.43416952601775344,0.004152690117011617,0.8827944302649645,0.0041925196869638075,0.900132164412519
178,11.007,10.57,-0.32,0.009877520453604835,0.4324688439193704,0.0037277129215605802,0.8835034657500372,0.0035704565109593816,0.9010741984749238
179,11.07,10.63,-0.34,0.009454911849898114,0.43076380047479196,0.003324126987575375,0.8841967223629443,0.002996260794309406,0.90201948006064
180,11.172,10.68,-0.37,0.009043001767797824,0.42905495729032,0.002942282842902546,0.8848741884540828,0.0024706010944638276,0.9029675818928097
181,11.192,10.74,-0.36,0.00864202874631404,0.4273428773819567,0.002582512579670486,0.8855358634756134,0.001994104381588004,0.903918072126453
182,11.232,10.79,-0.37,0.008252220720471772,0.42562812523965543,0.0022451294417275883,0.8861817579626661,0.0015673553222847096,0.9048705148273337
183,11.314,10.85,-0.4,0.007873794687411093,0.4239112668808242,0.0019304274317420332,0.8868118935116531,0.0011908956144274867,0.905824470452167
184,11.334,10.9,-0.4,0.007506956384623905,0.4221928698929862,0.0016386809385513367,0.887426302755195,0.0008652233739683519,0.9067794963295788
185,11.374,10.96,-0.41,0.007151899980930229,0.42047350346537443,0.0013701443853619316,0.8880250293331043,0.0005907925745192118,0.9077351471412133
186,11.435,11.01,-0.45,0.0068088077808660065,0.41875373840915453,0.0011250518994142973,0.8886081278588034,0.0003680125404341355,0.9086909754024011
187,11.538,11.07,-0.48,0.006477849943176361,0.4170341471659572,0.0009036170037370977,0.889175663880521,0.00019724749403538018,0.9096465319418083
188,11.558,11.12,-0.49,0.006159184214079697,0.41531530380447707,0.0007060323316037391,0.8897277138366114,7.88161575277914e-05,0.9106013663795
189,11.6,11.18,-0.52,0.005852955675904261,0.41359778400505715,0.0005324693642737962,0.8902643650043702,1.29914100286551e-05,0.9115550276028375
190,11.662,11.23,-0.54,0.005559296511615833,0.41188216503239244,0.00038307819254917915,0.8907857154417679,0.0,0.9125070642396281
191,11.724,11.29,-0.53,0.00527832578566877,0.4101690256966975,0.0002579873026057236,0.8912918739215842,4.002231321757124e-05,0.9134570251279169
192,11.807,11.34,-0.53,0.0050101492415447774,0.40845894630382495,0.00015730338648669163,0.8917829598574925,0.00013319219625965837,0.9144044597818
193,11.847,11.4,-0.54,0.0047548591163093235,0.4067525085948726,8.111117756996453e-05,0.8922591032217088,0.00027959683536318185,0.9153489188526163
194,11.91,11.45,-0.52,0.004512533972511585,0.40505029567577755,2.9473311248473308e-05,0.8927204444539089,0.0004792766903853332,0.916289954584881
195,11.931,11.51,-0.51,0.004283238547770737,0.4033528919373152,2.4302110025103474e-06,0.893167134361218,0.0007322254835310511,0.9172271212663221
196,11.993,11.56,-0.54,0.004067023622412991,0.40166088296582836,0.0,0.8935993340091574,0.0010383902424510461,0.9181599756713884
197,12.055,11.62,-0.54,0.0038639259055347707,0.3999748554449323,2.217843832837918e-05,0.8940172146035242,0.001397671397271517,0.91908807749763
198,12.117,11.67,-0.52,0.0036739679398603837,0.3982953970483977,6.893888593443895e-05,0.8944209573632697,0.0018099229310732507,0.9200109897944078
199,12.157,11.73,-0.54,0.003497158025736646,0.3966230963244046,0.00014023229132470967,0.8948107533845275,0.002274952583280951,0.9209282793834813
200,12.28,11.78,-0.55,0.0033334901645659474,0.3949585425713626,0.00023598720605340443,0.8951868034960134,0.0027925221053541043,0.9218395172711419
201,12.301,11.84,-0.53,0.0031829440219391368,0.39330232570548457,0.0003561098249931669,0.895549318106063,0.0033623475680992737,0.9227442790516377
202,12.341,11.89,-0.55,0.003045484910712751,0.39165503612022035,0.0005004840523519862,0.8958985170415733,0.003984099719855609,0.923642145301649
203,12.361,11.95,-0.57,0.002921063794281848,0.3900172645375316,0.0006689715933651027,0.8962346293790568,0.004657404394734675,0.9245327019655429
204,12.423,12.0,-0.56,0.0028096173103165033,0.38838960185083604,0.0008614120715422881,0.8965578932679377,0.005381842970019171,0.9254155407310753
205,12.486,12.06,-0.54,0.0027110678152426075,0.38677263895931496,0.0010776231712884194,0.8968685557461835,0.006156952871740783,0.9262902593951454
206,12.547,12.11,-0.55,0.00262532344975411,0.38516696659316874,0.0013174008056489198,0.897166872548324,0.006982228127365657,0.9271564622191841
207,12.669,12.17,-0.53,0.002552278225644165,0.3835731751293192,0.0015805193088705184,0.8974531079059284,0.00785711996443086,0.9280137602737497
208,12.69,12.22,-0.5,0.0024918121342423563,0.38199185439699673,0.001866731653426283,0.8977275343406624,0.008781037453912045,0.9288617717719276
209,12.711,12.28,-0.49,0.00244379127675062,0.3804235934725971,0.0021757696911429802,0.8979904324500684,0.0097533481970655,0.9297001223911503
210,12.772,12.33,-0.49,0.0024080680167861586,0.37886898046313716,0.0025073444180844554,0.8982420906861871,0.010773379054471429,0.9305284455830877
211,12.814,12.39,-0.46,0.0023844811554586966,0.37732860227758314,0.002861146262870653,0.8984828051270667,0.011840416916007263,0.9313463828712676
212,12.875,12.44,-0.48,0.002372856129293537,0.3758030443853292,0.0032368453981319973,0.8987128792411438,0.012953709510492685,0.9321535841360822
213,12.937,12.5,-0.48,0.002373005231189052,0.3742928905612635,0.003634092074799769,0.8989326236444714,0.014112466253759556,0.9329497078868353
214,13.017,12.55,-0.47,0.002384727854332105,0.37279872261723157,0.004052516978912156,0.8991423558507999,0.01531585913389671,0.9337344215204963
215,13.038,12.61,-0.46,0.00240781075866867,0.37132112012015556,0.0044917316105830465,0.8993424000145573,0.01656302363239764,0.9345074015668806
216,13.08,12.66,-0.48,0.0024420283592721252,0.36986066009739704,0.004951328684739019,0.8995330866667909,0.01785305967990086,0.9352683339200243
217,13.141,12.72,-0.49,0.0024871430358167626,0.368417916730072,0.005430882553164602,0.8997147524441674,0.01918503264516789,0.9360169140555844
218,13.203,12.77,-0.49,0.002542905462297942,0.3669934610350426,0.005929949647294262,0.899887739811221,0.020557974355893856,0.9367528472341149
219,13.265,12.83,-0.5,0.0026090549560899524,0.36558786053630393,0.006448068941062662,0.9000523967761677,0.021970884149882835,0.9374758486901076
220,13.306,12.88,-0.49,0.0026853198453888334,0.36420167892647687,0.006984762432999535,0.9002090766007614,0.02342272995503996,0.9381856438067241
221,13.409,12.94,-0.46,0.002771417854056166,0.3628354757190991,0.007539535646655809,0.9003581375047807,0.024912449396544568,0.938881968276208
222,13.429,12.99,-0.45,0.002867056502868293,0.36148980589238533,0.008111878148386297,0.9004999423658163,0.026438950929486907,0.9395645682460226
223,13.47,13.05,-0.44,0.002971933526178304,0.3601652195250893,0.008701264081483044,0.9006348584150558,0.02800111499519228,0.9402332004508229
224,13.531,13.1,-0.39,0.0030857373030201735,0.3588622614250522,0.00930715271564293,0.9007632569297788,0.029597795199428754,0.9408876323304132
225,13.573,13.16,-0.38,0.003208147301731676,0.35758147075094254,0.009928989010759877,0.9008855129232791,0.0312278195106979,0.9415276421338826
226,13.634,13.21,-0.37,0.0033388345372343748,0.35632338062759905,0.01056620419405119,0.9010020048329234,0.03288999147683263,0.9421530190101546
227,13.716,13.27,-0.34,0.0034774620401620574,0.355088517755319,0.01121821634955179,0.901113114207079,0.03458309145816701,0.9427635630852162
228,13.758,13.32,-0.32,0.003623685337060209,0.35387740201340667,0.01188443101904413,0.9012192253916355,0.03630587787559302,0.9433590855263404
229,13.819,13.38,-0.33,0.0037771529408828,0.35269054605830796,0.01256424181354752,0.9013207252167669,0.03805708847186867,0.9439394085936447
230,13.861,13.43,-0.32,0.0039375068509885655,0.3515284549167194,0.013257031034570209,0.9014180026843882,0.03983544158458433,0.9445043656793959
231,13.923,13.49,-0.3,0.00410438306179998,0.3503916255741317,0.013962170304412895,0.9015114486565301,0.04163963742922696,0.9450538013355195
232,13.984,13.54,-0.32,0.004277412079255779,0.34928054655932594,0.014679021204877065,0.9016014555446706,0.04346835939079806,0.9455875712898304
233,14.025,13.6,-0.32,0.004456219444170667,0.34819569752535573,0.015406935923757959,0.9016884169999825,0.04532027532244017,0.9461055424515437
234,14.107,13.65,-0.29,0.004640426261611484,0.3471375488275289,0.016145257908494897,0.9017727276044182,0.04719403884951356,0.9466075929066291
235,14.15,13.71,-0.27,0.004829649735400968,0.3461065610988642,0.016893322526328677,0.9018547825625124,0.04908829067754494,0.9470936119035525
236,14.191,13.76,-0.27,0.005023503706852924,0.3451031848234679,0.017650457730284577,0.9019349773937251,0.0510016599024487,0.9475634998298935
237,14.252,13.82,-0.23,0.005221599196824944,0.34412785990826406,0.018415984730267718,0.9020137076251108,0.05293276532141167,0.94801716818029
238,14.293,13.87,-0.2,0.0054235449501617026,0.3431810152535058,0.019189218668541827,0.9020913684840881,0.054880216742847945,0.9484545395160913
239,14.354,13.93,-0.2,0.005628947981607016,0.3422630683224888,0.019969469298871362,0.902168354591068,0.05684261629386782,0.9488755474170738
240,14.498,13.98,-0.18,0.005837414122278903,0.34137442471089585,0.020756041668632957,0.9022450596517211,0.05881855972376123,0.9492801364255485
241,14.518,14.04,-0.14,0.006048548565819554,0.3405154777162465,0.021548236803239057,0.9023218761487235,0.06080663770206387,0.9496682619832021
242,14.539,14.09,-0.13,0.006261956413344598,0.33968660790799166,0.02234535239225578,0.9023991950329142,0.06280543710984422,0.9500398903610477
243,14.58,14.15,-0.12,0.006477243216315872,0.33888818269887744,0.0231466834766134,0.9024774054139234,0.06481354232291874,0.9503949985829103
244,14.662,14.2,-0.09,0.006694015516453731,0.33812055591829826,0.02395152313628235,0.9025568942505136,0.06682953648577257,0.9507335743429071
245,14.682,14.26,-0.1,0.006911881381806418,0.3373840673884245,0.024759163177737735,0.9026380460410429,0.06885200277503649,0.9510556159174045
246,14.743,14.31,-0.11,0.007130450938113566,0.3366790425039183,0.02556889482049014,0.9027212425145807,0.07087952565143489,0.9513611320719264
247,14.783,14.37,-0.09,0.007349336894620381,0.3360057918160509,0.02638000938193226,0.9028068623232633,0.07291069209917268,0.9516501419634829
248,14.844,14.42,-0.08,0.007568155063503993,0.33536461062204315,0.027191798959734597,0.9028952807365007,0.07494409285176191,0.9519226750387823
249,14.906,14.48,-0.08,0.007786524872058884,0.33475577856046845,0.028003557111010685,0.9029868693376502,0.07697832360330337,0.9521787709287968
250,14.968,14.53,-0.05,0.008004069866763828,0.3341795592135947,0.02881457952745947,0.9030819957237676,0.07901198620424343,0.9524184793401455
251,15.029,14.59,-0.03,0.00822041820833261,0.33363619971757996,0.029624164705685938,0.9031810232090389,0.0810436898406372,0.952641859943758
252,15.07,14.64,-0.03,0.008435203156848741,0.3331259303814758,0.030431614611907454,0.9032843105325022,0.08307205219597444,0.9528489822612657
253,15.132,14.7,-0.01,0.008648063546107197,0.33264896431600194,0.031236235340271153,0.9033922115706986,0.08509570059466753,0.9530399255495464
254,15.215,14.75,0.02,0.008858644246343927,0.3322054970730312,0.032037337764037555,0.9035050750559107,0.08711327312635725,0.9532147786838374
255,15.236,14.81,0.02,0.009066596614625305,0.33179570629664273,0.032834238178929984,0.9036232443006619,0.08912341975025566,0.9533736400398001
256,15.297,14.86,0.02,0.009271578932273912,0.33141975138650426,0.03362625893800022,0.9037470569290963,0.09112480337880514,0.9535166173749068
257,15.358,14.92,0.05,0.009473256828801254,0.33107777317425247,0.034412729077409804,0.9038768446158097,0.09311610093999158,0.9536438277094855
258,15.399,14.97,0.05,0.009671303691892084,0.3307698936134685,0.03519298493257601,0.9040129328326076,0.09509600441770646,0.953755397207726
259,15.46,15.03,0.03,0.009865401063034442,0.3304962154837905,0.03596637074418322,0.9041556406035359,0.0970632218696043,0.9538514610589091
260,15.5,15.08,0.04,0.010055239018416146,0.3302568221096619,0.036732239253605053,0.9043052802684107,0.09901647842194669,0.9539321633590906
261,15.582,15.14,0.05,0.010240516534724667,0.3300517770941699,0.03748995228731848,0.904462157254968,0.10095451724095997,0.9539976569934203
262,15.623,15.19,0.04,0.010420941839502089,0.3298811240683887,0.038238881329914015,0.9046265698597027,0.10287610048024749,0.9540481035192507
263,15.663,15.25,0.04,0.010596232745718326,0.32974488645662303,0.03897840808530804,0.9047988090374298,0.10478001020379415,0.9540836730501654
264,15.724,15.3,0.06,0.01076611697022759,0.32964306725795434,0.03970792502574445,0.904979158199626,0.10666504928409092,0.9541045441410416
265,15.786,15.36,0.06,0.010930332435758323,0.3295756488445325,0.04042683592814419,0.9051678930216327,0.1085300422748984,0.9541109036742447
266,15.849,15.41,0.07,0.011088627556049481,0.32954259277712017,0.04113455639733496,0.9053652812588551,0.11037383625816574,0.9541029467470467
267,15.973,15.47,0.11,0.011240761503696737,0.32954383963848316,0.0418305143756769,0.9055715825721541,0.1121953016646258,0.9540808765603772
268,15.993,15.52,0.12,0.011386504460242032,0.329579308885289,0.04251415063860026,0.9057870483626664,0.11399333306760723,0.9540449043089979
269,16.013,15.58,0.11,0.011525637848046265,0.32964889871920167,0.04318491927558621,0.9060119216162972,0.11576684994964177,0.953995249073163
270,16.075,15.63,0.14,0.01165795454352117,0.3297524859778454,0.04384228815614247,0.9062464367581045,0.11751479744150058,0.9539321377117604
271,16.137,15.69,0.15,0.011783259071342245,0.32988992604628026,0.04448573938035201,0.9064908195167772,0.11923614703335411,0.9538558047568576
272,16.179,15.74,0.13,0.011901367779304436,0.3300610527896037,0.0451147697136081,0.9067452867993674,0.12092989725780622,0.9537664923095387
273,16.242,15.8,0.14,0.012012108993514856,0.33026567850728145,0.04572889100518881,0.9070100465763907,0.12259507434459568,0.9536644499368919
274,16.323,15.85,0.15,0.01211532315365963,0.33050359390977846,0.04632763059036703,0.9072852977773654,0.12423073284679563,0.953549934569986
275,16.343,15.91,0.13,0.012210862928152696,0.3307745681179962,0.04691053167579842,0.9075712301967702,0.12583595623836294,0.9534232104026478
276,16.384,15.96,0.12,0.012298593309087528,0.33107834868588093,0.04747715370797507,0.9078680244102897,0.12740985748289888,0.9532845487908291
277,16.446,16.02,0.15,0.012378391687064701,0.33141466164636024,0.048027072724572316,0.9081758517010893,0.1289515795734757,0.9531342281523134
278,16.508,16.07,0.15,0.012450147906128712,0.33178321158052787,0.048559881688545005,0.9084948739957159,0.13046029604336765,0.9529725338664653
279,16.549,16.13,0.14,0.012513764299172668,0.3321836817098106,0.0490751908048394,0.9088252438091284,0.1319352114475001,0.9527997581736881
280,16.631,16.18,0.18,0.012569155704252299,0.3326157340107359,0.04957262781958327,0.9091671041982768,0.1333755618144167,0.952616200074206
281,16.714,16.24,0.19,0.012616249462313314,0.33307900935184725,0.05005183830161757,0.9095205887236134,0.13478061506856873,0.9524221652257495
282,16.734,16.29,0.19,0.012654985396888929,0.3335731276522632,0.0505124859062496,0.9098858214178626,0.13614967142274906,0.9522179658396899
283,16.775,16.35,0.21,0.012685315776358692,0.33409768806135465,0.050954252621130285,0.9102629167613742,0.13748206374052774,0.9520039205751678
284,16.836,16.4,0.23,0.012707205259377154,0.3346522691590263,0.051376838994175,0.9106519796634366,0.13877715786859157,0.9517803544307619
285,16.898,16.46,0.22,0.012720630824083763,0.33523642917613616,0.05177996434345114,0.9110531054490291,0.14003435293893823,0.9515475986332772
286,16.94,16.51,0.22,0.012725581681687541,0.33584970623466287,0.052163366948948416,0.9114663798506383,0.1412530816409261,0.9513059905232671
287,17.002,16.57,0.25,0.012722059174976912,0.336491618607322,0.052526804226145654,0.9118918790049094,0.14243281046322648,0.9510558734369414
288,17.044,16.62,0.24,0.012710076662242829,0.33716166499641104,0.05287005288130308,0.912329669453979,0.1435730399057649,0.9507975965841292
289,17.106,16.68,0.22,0.012689659387041367,0.3378593248317027,0.05319290904843294,0.912779808151356,0.1446733046617704,0.9505315149219745
290,17.17,16.73,0.23,0.012660844334182896,0.33858405858720403,0.05349518840791927,0.9132423424722044,0.14573317377007358,0.9502579890240163
291,17.212,16.79,0.23,0.012623680072329047,0.33933530811656,0.0537767262867689,0.9137173102278182,0.14675225073780834,0.94997738494427
292,17.293,16.84,0.23,0.012578226583593883,0.3401124970068205,0.054037377740488154,0.9142047396839803,0.1477301736336654,0.9496900740758921
293,17.353,16.9,0.22,0.012524555080568016,0.34091503095021597,0.05427701761659716,0.9147046495827218,0.14866661515182822,0.9493964330039898
294,17.416,16.95,0.24,0.012462747811219747,0.3417422981335108,0.054495540599821146,0.9152170491668463,0.14956128264670554,0.9490968433521287
295,17.436,17.01,0.22,0.01239289785216969,0.3425936696444325,0.054692861239034725,0.9157419382064366,0.1504139181385588,0.9487916916221034
296,17.498,17.06,0.24,0.012315108890857969,0.3434684998946576,0.05486891395606851,0.9162793070265476,0.15122429829011644,0.9484813690265753
297,17.538,17.12,0.27,0.012229494997113967,0.34436612705889713,0.05502365303651972,0.9168291365353487,0.1519922343542607,0.9481662713142535
298,17.601,17.17,0.27,0.012136180384618353,0.3452858735297119,0.055157052602740175,0.9173913982520835,0.15271757209287598,0.9478467985873862
299,17.664,17.23,0.28,0.012035299162739144,0.34622704638776025,0.05526910656920304,0.9179660543343504,0.1534001916669629,0.9475233551114142
300,17.706,17.28,0.31,0.011926995079234599,0.34718893788719973,0.05535982858046454,0.918553057604354,0.15404000749815763,0.9471963491166958
301,17.79,17.34,0.3,0.011811421254338301,0.3481708259559536,0.05542925193194448,0.9191523515739276,0.15463696810184938,0.9468661925922393
302,17.81,17.39,0.29,0.011688739906761279,0.3491719747105195,0.05547742947374995,0.9197638704682592,0.15519105589214477,0.946533301071376
303,17.871,17.45,0.3,0.0115591220721542,0.35019163498496564,0.055504433497767444,0.920387539248362,0.1557022869589821,0.9461980934093143
304,17.952,17.5,0.3,0.01142274731457408,0.3512290448737358,0.055510355608255554,0.9210232736323841,0.1561707108177367,0.945860991552511
305,18.014,17.56,0.28,0.01127980343149677,0.35228343028785103,0.05549530657618119,0.9216709801158824,0.15659641013167336,0.9455224202998309
306,18.035,17.61,0.3,0.011130486152902117,0.35335400552408447,0.055459416177542645,0.922330555991203,0.15697950040760403,0.9451828070555
307,18.097,17.67,0.31,0.010974998834933745,0.3544399738466859,0.05540283301590805,0.9230018893661739,0.15732012966509992,0.9448425815739009
308,18.16,17.72,0.31,0.010813552148603542,0.35554052808125375,0.05532572432937721,0.923684859182386,0.15761847807960186,0.9445021756962894
309,18.222,17.78,0.31,0.010646363763975271,0.3566548512203925,0.05522827578215643,0.9243793352334064,0.15787475759977287,0.9441620230795217
310,18.284,17.83,0.35,0.010473658030233106,0.35778211704083684,0.05511069124093009,0.9250851781833389,0.15808921153945096,0.9438225589168974
311,18.325,17.89,0.35,0.010295665652035955,0.35892149073174434,0.054973192536230064,0.9258022395861583,0.15826211414458866,0.9434842196512241
312,18.408,17.94,0.35,0.010112623362580429,0.3600721295338293,0.054816019209036435,0.9265303619062283,0.15839377013560568,0.9431474426802203
313,18.428,18.0,0.37,0.009924773593832394,0.36123318338894705,0.054639428242880955,0.9272693785403475,0.15848451422563267,0.9428126660543693
314,18.53,18.05,0.38,0.009732364144423944,0.3624037955996637,0.054443693781754426,0.9280191138416309,0.15853471061518,0.942480328167316
315,18.55,18.11,0.36,0.009535647845735714,0.3635831034982814,0.05422910683413111,0.9287793831455079,0.15854475246382277,0.9421508674388968
316,18.591,18.16,0.37,0.009334882226689862,0.3647702391247562,0.05399597496341251,0.9295499927981745,0.1585150613395407,0.9418247219908887
317,18.653,18.22,0.37,0.009130329177772222,0.3659643299129247,0.05374462196507441,0.9303307401879026,0.15844608664639895,0.9415023293155749
318,18.694,18.27,0.35,0.008922254614787328,0.3671644993844456,0.05347538753079064,0.9311214137796938,0.1583383050312862,0.9411841259372543
319,18.756,18.33,0.33,0.008710928142828254,0.3683698678498643,0.05318862689980256,0.9319217931538186,0.15819221977044715,0.9408705470668781
320,18.817,18.38,0.34,0.008496622720917219,0.36957955311620855,0.052884710497802044,0.9327316490488387,0.1580083601365437,0.9405620262500568
321,18.899,18.44,0.33,0.008279614327746236,0.3707926712005247,0.05256402356359406,0.9335507434097312,0.15778728074696605,0.940258995008763
322,18.92,18.49,0.34,0.008060181628919244,0.3720083370487499,0.05222696576379396,0.9343788294417305,0.15752956089408315,0.9399618824771071
323,18.961,18.55,0.36,0.007838605646073133,0.37322566525929024,0.051873950795791206,0.9352156516704935,0.15723580385809988,0.9396711150316103
324,19.024,18.6,0.36,0.007615169428246021,0.3744437708106294,0.051505405979193605,0.9360609460091677,0.1569066362031792,0.939387115916415
325,19.085,18.66,0.36,0.007390157725864925,0.3756617697922286,0.051121771835966,0.9369144398328845,0.15654270705750564,0.9391103048638826
326,19.146,18.71,0.37,0.007163856667732742,0.3768787801379208,0.05072350165949817,0.9377758520611439,0.15614468737799772,0.9388410977110466
327,19.188,18.77,0.38,0.006936553441395262,0.3780939223609552,0.050311061072877125,0.9386448932484925,0.15571326920042067,0.9385799060124128
328,19.312,18.82,0.37,0.006708535977247131,0.37930632028983235,0.049884927576693404,0.9395212656838317,0.1552491648756866,0.9383271366496506
329,19.332,18.88,0.37,0.006480092636682652,0.3805151018040861,0.04944559008676461,0.9404046634986422,0.15475310629316782,0.9380831914387742
330,19.353,18.93,0.37,0.0062515119045254385,0.38171939956921613,0.04899354846220449,0.9412947727844091,0.15422584409188358,0.9378484667354658
331,19.414,18.99,0.35,0.006023082085902885,0.3829183517700323,0.04852931302430173,0.9421912717195324,0.1536681468604518,0.9376233530392282
332,19.475,19.04,0.33,0.005795091007675609,0.3841111028417346,0.04805340406669354,0.9430938307060153,0.1530808003267149,0.9374082345970813
333,19.535,19.1,0.34,0.005567825724496338,0.38529680419808804,0.04756635135731919,0.9440021125162278,0.15246460653795063,0.9372034890075301
334,19.617,19.15,0.32,0.005341572229570831,0.3864746149560246,0.04706869363262148,0.9449157724500158,0.15182038303256237,0.9370094868255162
335,19.638,19.21,0.3,0.005116615170228705,0.3876437026559039,0.04656097808443489,0.9458344585023765,0.15114896200411126,0.936826591169048
336,19.679,19.26,0.31,0.004893237568480348,0.38880324397649824,0.04604375983996709,0.9467578115418327,0.15045118945851438,0.9366551573281605
337,19.741,19.32,0.32,0.004671720546819834,0.3899524254435686,0.04551760143525978,0.9476854654995244,0.14972792436519242,0.9364955323768208
338,19.803,19.37,0.3,0.004452343059600704,0.39109044413073807,0.044983072282508564,0.9486170475689092,0.1489800378029133,0.9363480547883606
339,19.865,19.43,0.31,0.004235381630328435,0.39221650835129707,0.04444074813162358,0.9495521784158828,0.14820841210105654,0.9362130540550142
340,19.906,19.48,0.33,0.004021110095176166,0.39332983833961405,0.043891210526422704,0.9504904723991181,0.14741393997701566,0.9360908503121494
341,20.008,19.54,0.32,0.0038097993529641735,0.39442966692091125,0.04333504625587081,0.9514315378004385,0.14659752367046422,0.9359817539678108
342,20.029,19.59,0.31,0.0036017171217793574,0.3955152401682842,0.042772846800805626,0.9523749770650987,0.14576007407522387,0.9358860653382389
343,20.07,19.65,0.33,0.0033971277023647083,0.3965858180459444,0.04220520777662136,0.9533203870518885,0.14490250986949532,0.9358040742900693
344,20.133,19.7,0.32,0.00319629174837564,0.3976406750377602,0.04163272837242386,0.9542673592930154,0.14402575664523778,0.935736059889933
345,20.174,19.76,0.3,0.0029994660435615204,0.39867910076024976,0.04105601078722423,0.9552154802636629,0.14313074603750484,0.9356822900621996
346,20.236,19.81,0.31,0.0028069032858813988,0.39970040055925615,0.040475659663783976,0.9561643316610688,0.14221841485456035,0.935643021255581
347,20.297,19.87,0.29,0.0026188518785218227,0.4007038960895978,0.03989228152075466,0.9571134906928982,0.14128970420960782,0.935618498119301
348,20.36,19.92,0.26,0.0024355557277633316,0.40168892587702837,0.03930648418376042,0.9580625303746406,0.14034555865496529,0.9356089531894903
349,20.421,19.98,0.25,0.0022572540476386294,0.4026548458618676,0.03871887621605592,0.9590110198357489,0.13938692531950309,0.9356146065864632
350,20.484,20.03,0.25,0.002084181171339719,0.403601029923661,0.03813006634936723,0.9599585246342371,0.1384147530501281,0.9356356657235172
351,20.547,20.09,0.24,0.0019165663693601308,0.4045268703862108,0.037540662915498645,0.9609046070794565,0.13742999155804658,0.9356723250279002
352,20.568,20.14,0.25,0.001754633674387936,0.40543177850228596,0.036951273279264354,0.9618488265627622,0.13643359057047627,0.9357247656745732
353,20.63,20.2,0.26,0.0015986017129888982,0.40631518491729957,0.036362503273282144,0.9627907398957798,0.1354264989884275,0.9357931553333536
354,20.734,20.25,0.25,0.0014486835441306295,0.40717654011124077,0.03577495663515553,0.9637299016559503,0.13440966405114224,0.9358776479299525
355,20.755,20.31,0.25,0.001305086504593244,0.4080153148181862,0.03518923444756843,0.9646658645390211,0.13338403050777253,0.935978383421326
356,20.796,20.36,0.26,0.001168012061295555,0.4088310004227841,0.03460593458181505,0.9655981797181754,0.13235053979688782,0.9360954875856756
357,20.837,20.42,0.25,0.0010376556705521272,0.4096231093331778,0.03402565114528562,0.9665263972095447,0.13131012923441626,0.9362290718273689
358,20.898,20.47,0.25,0.0009142066442680962,0.41039117532989516,0.03344897393342329,0.9674500662439,0.13026373121063753,0.9363792329970132
359,20.96,20.53,0.25,0.0007978480230681227,0.4111347538902963,0.032876487886656036,0.9683687356443698,0.1292122723968575,0.9365460532269236
360,21.021,20.58,0.25,0.0006887564563480032,0.41185342248822315,0.03230877255279885,0.9692819542100604,0.12815667296240463,0.936729599782222
361,21.103,20.64,0.22,0.0005871020892444819,0.4125467808685345,0.03174640155542997,0.9701892711054392,0.12709784580259653,0.9369299249278221
362,21.124,20.69,0.22,0.0004930484565510968,0.41321445129620704,0.031189942068770585,0.9710902362552736,0.12603669577832505,0.9371470658115637
363,21.226,20.75,0.23,0.0004067523836676459,0.41385607877964303,0.0306399542996372,0.9719844007447841,0.12497411896790145,0.9373810443637677
364,21.246,20.8,0.2,0.0003283638947288834,0.4144713312677846,0.030096990977078398,0.9728713172245016,0.12391100193178482,0.9376318672134774
365,21.287,20.86,0.17,0.0002580261280623571,0.4150598998206683,0.02956159685032834,0.9737505403191616,0.12284822099078957,0.9378995256216532
366,21.348,20.91,0.19,0.00019587525906649312,0.4156214987531724,0.029034308195693682,0.9746216270398996,0.12178664151833246,0.9381839954315463
367,21.389,20.97,0.18,0.000142040430520891,0.41615586575184377,0.028515652332948182,0.9754841371989654,0.12072711724723714,0.9384852370364419
368,21.472,21.02,0.17,9.664369027409411e-05,0.41666276196478197,0.02800614715175874,0.9763376338261565,0.11967048959156255,0.9388031953649013
369,21.512,21.08,0.19,5.9799936203114904e-05,0.41714197206462067,0.02750630064862339,0.977181683586124,0.11861758698387578,0.9391377998835828
370,21.573,21.13,0.19,3.161686830233075e-05,0.4175933042846966,0.02701661047478242,0.9780158571956595,0.11756922422836127,0.9394889646176733
371,21.634,21.19,0.17,1.2194947724401619e-05,0.4180165904285558,0.026537563495568413,0.9788397298400197,0.11652620187014763,0.9398565881889297
372,21.696,21.24,0.19,1.6273625499373716e-06,0.41841168585304,0.026069635361667013,0.9796528815873307,0.11548930558123775,0.9402405538713144
373,21.716,21.3,0.2,0.0,0.4187784694253231,0.025613290092751536,0.9804548978001697,0.11445930556344157,0.9406407296641945
374,21.776,21.35,0.18,7.3914247391322525e-06,0.4191168434544103,0.02516897967392882,0.9812453695435264,0.11343695596872796,0.9410569683830782
375,21.858,21.41,0.17,2.3872862862064735e-05,0.41942673359774046,0.02473714366540136,0.9820238939884748,0.11242299433743166,0.9414891077678557
376,21.88,21.46,0.18,4.950819113660906e-05,0.41970808874361637,0.024318208825727224,0.9827900748109955,0.11141814105476999,0.941936970608505
377,21.963,21.52,0.15,8.435393110150556e-05,0.4199608808702056,0.02391258874905715,0.983543522585435,0.11042309882613345,0.942400364888212
378,22.024,21.57,0.12,0.0001284592476759033,0.42018510488180416,0.02352068351673771,0.9842838551720875,0.10943855217160384,0.9428790839438491
379,22.065,21.63,0.13,0.00018186595199178761,0.42038077842298505,0.02314287936367195,0.9850106980983303,0.10846516694012864,0.9433729066437445
380,22.128,21.68,0.16,0.000244608508180083,0.42054794167121173,0.022779548359815667,0.9857236849327194,0.10750358984374121,0.9438815975826539
381,22.208,21.74,0.15,0.00031671404380717577,0.420686657108513,0.02243104810715512,0.9864224576514024,0.10655444801216907,0.9444049072938068
382,22.229,21.79,0.16,0.0003982023635931033,0.42079700927288505,0.022097721452465576,0.987106666996186,0.10561834856813815,0.9449425724778237
383,22.271,21.85,0.16,0.0004890859659953238,0.4208791044901434,0.021779896216107552,0.987775972823583,0.10469587822367737,0.9454943162481523
384,22.353,21.9,0.15,0.0005893700622520261,0.4209330705869853,0.021477884937093104,0.9884300444441317,0.1037876028977525,0.946059848392509
385,22.414,21.96,0.14,0.0006990525975429448,0.42095905658604155,0.021191984634643425,0.989068560951303,0.10289406735559059,0.9466388656496948
386,22.435,22.01,0.15,0.0008181242740103808,0.42095723238373445,0.020922476586452864,0.9896912115393601,0.10201579487008071,0.9472310520011304
387,22.496,22.07,0.14,0.0009465685754468095,0.42092778841180356,0.020669626123873186,0.9902976958096208,0.10115328690564868,0.9478360789764835
388,22.558,22.12,0.11,0.0010843617934808221,0.4208709352834155,0.020433682444232104,0.9908877240646484,0.10030702282500446,0.9484536059728091
389,22.618,22.18,0.12,0.0012314730550997467,0.42078690342481867,0.02021487844049695,0.9914610175899582,0.09947745961915673,0.9490832805866681
390,22.661,22.23,0.11,0.0013878643513739988,0.42067594269349556,0.020013430548489815,0.9920173089228383,0.09866503166107621,0.9497247389587037
391,22.702,22.29,0.08,0.0015534905672936403,0.4205383219837116,0.019829538611853232,0.9925563421078644,0.09787015048336654,0.950377606130172
392,22.764,22.34,0.07,0.0017282995126654949,0.4203743288202988,0.019663385764952353,0.9930778729386417,0.09709320458026707,0.9510414964109183
393,22.827,22.4,0.07,0.0019122319540341229,0.42018426894147404,0.0195151383338824,0.9935816691853009,0.09633455923427012,0.9517160137582902
394,22.888,22.45,0.04,0.002105221647587254,0.4199684658714755,0.01938494575573017,0.9940675108072602,0.0955945563675826,0.9524007521664816
395,22.929,22.51,0.04,0.0023071953729979413,0.41972726048378955,0.0192729405162081,0.9945351901507989,0.09487351441859791,0.9530952960658083
396,22.991,22.56,0.05,0.0025180729681502333,0.4194610105557356,0.019179238105739866,0.9949845121310319,0.09417172824347875,0.9537992207314155
397,23.052,22.62,0.04,0.0027377673646912302,0.4191700903151703,0.019103936994037268,0.9954152943979172,0.09348946904289182,0.9545120927008885
398,23.114,22.67,0.04,0.002966184624348235,0.4188548899800784,0.01904711862317141,0.9958273674859887,0.09282698431388686,0.9552334702002264
399,23.155,22.73,0.06,0.0032032239759524827,0.4185158152918251,0.019008847419101728,0.9962205749475865,0.09218449782688186,0.9559629035776143
400,23.217,22.78,0.05,0.003448777853141746,0.41815328704281657,0.018989170821576917,0.9965947734694816,0.09156220962770334,0.9566999357444095
401,23.32,22.84,0.04,0.003702731932777793,0.4177677405992347,0.0189881193322579,0.9969498329728947,0.09096029606462937,0.9574441026227317
402,23.341,22.89,0.05,0.003964965174214093,0.4173596254193708,0.019005706580848523,0.9972856366969851,0.0903789098403888,0.9581949335990071
403,23.362,22.95,0.05,0.004235349859683015,0.4169294045678868,0.019041929408986805,0.9976020812658379,0.08981818008907654,0.9589519519827906
404,23.423,23.0,0.02,0.00451375163621929,0.41647755422612,0.019096767971656745,0.9978990767388809,0.08927821247794192,0.9597146754701888
405,23.485,23.06,0.03,0.004800029559657312,0.41600456319838547,0.019170185855901512,0.9981765466445457,0.08875908933399781,0.9604826166112297
406,23.526,23.11,0.02,0.005094036141308163,0.4155109324141553,0.019262130216626688,0.9984344279969897,0.08826086979538401,0.9612552832805702
407,23.588,23.17,-0.01,0.005395617397937054,0.4149971744259937,0.019372531929269413,0.998672671295737,0.08778358998739837,0.9620321791509668
408,23.692,23.22,-0.04,0.00570461290563726,0.41446381290317486,0.019501305759078248,0.9988912405082079,0.08732726322307618,0.9628128041689564
409,23.752,23.28,-0.03,0.006020855858156666,0.4139113821209539,0.019648350546705023,0.9990901130351836,0.08689188022814873,0.9635966550322005
410,23.793,23.33,-0.04,0.006344173130202176,0.4133404264454776,0.01981354940976134,0.9992692796592907,0.08647740939014116,0.964383225667942
411,23.814,23.39,-0.06,0.006674385346238281,0.4127514998142843,0.019996769959937846,0.9994287444765917,0.08608379703128317,0.9651720077120279
412,23.857,23.44,-0.03,0.007011306955313094,0.4121451652122661,0.02019786453522545,0.9995685248113505,0.08571096770482241,0.9659624909879383
413,23.918,23.5,-0.02,0.0073547463124686956,0.41152199414287016,0.020416670446728458,0.999688651114033,0.08535882451426273,0.9667541639852668
414,23.981,23.55,-0.03,0.007704505767272571,0.4108825660943154,0.020653010239526187,0.9997891668425868,0.08502724945500434,0.9675465143371025
415,24.024,23.61,-0.02,0.008060381759898554,0.410227468000758,0.020906691967014827,0.9998701283270854,0.08471610377784136,0.9683390292957871
416,24.084,23.66,-0.01,0.008422164925014838,0.40955729369861726,0.02117750947814111,0.9999316046179156,0.08442522837377452,0.969131196206545
417,24.145,23.72,-0.02,0.00878964020357791,0.4088726433785273,0.021465242716926774,0.9999736773178072,0.08415444417961114,0.9699225029785029
418,24.208,23.77,-0.02,0.009162586962530573,0.4081741230335505,0.02176965803368745,0.9999964403981355,0.08390355260383864,0.9707124385526541
419,24.249,23.83,-0.01,0.009540779122353812,0.4074623439043727,0.022090508507393754,1.0,0.08367233597226807,0.9715004933663688
420,24.311,23.88,-0.04,0.00992398529239543,0.4067379219222594,0.02242753427872371,0.999984474220591,0.08346055799294833,0.972286159814109
421,24.436,23.94,-0.05,0.010311968913863961,0.40600147715060403,0.022780462893480853,0.9999499928853075,0.08326796423984358,0.9730689327040621
422,24.456,23.99,-0.04,0.01070448841033305,0.40525363322594865,0.023149009656144064,0.999896697306042,0.08309428265474504,0.9738483097104492
423,24.477,24.05,-0.05,0.011101297345575467,0.4044950167993578,0.023532877993350885,0.9998247400260086,0.0829392240668531,0.9746237918212974
424,24.518,24.1,-0.06,0.011502144588551031,0.4037262569789732,0.02393175982711095,0.9997342845514321,0.08280248272942058,0.9753948837814588
425,24.58,24.16,-0.05,0.011906774485396605,0.40294798477448257,0.02434533595751629,0.9996255050703887,0.08268373687280049,0.9761610945306263
426,24.662,24.21,-0.05,0.012314927038287057,0.40216083254415075,0.024773276454672175,0.99949858615908,0.08258264927319897,0.9769219376360304
427,24.703,24.27,-0.06,0.01272633809103803,0.4013654334450118,0.025215241059527018,0.999353722475876,0.08249886783639583,0.9776769317194081
428,24.765,24.32,-0.05,0.013140739521300914,0.4005624208868215,0.025670879593243198,0.9991911184435183,0.08243202619566703,0.9784256008777787
429,24.827,24.38,-0.03,0.01355785943916591,0.39975242799040656,0.02613983237472881,0.9990109879199836,0.08238174432312535,0.9791674750975363
430,24.848,24.43,-0.03,0.013977422391949325,0.39893608705110706,0.026621730645943288,0.9988135538585933,0.08234762915368635,0.9799020906613987
431,24.909,24.49,-0.04,0.014399149574897128,0.39811402900807513,0.027116197004585025,0.9985990479580856,0.08232927522086388,0.9806289905478164
432,24.972,24.54,-0.02,0.014822759047491333,0.3972868829202488,0.02762284584375551,0.9983677103034942,0.08232626530360332,0.9813477248225023
433,25.033,24.6,-0.03,0.0152479659550116,0.3964552754498488,0.028141283798172236,0.998119788998787,0.08233817108336984,0.9820578510217775
434,25.075,24.65,-0.04,0.015674482754987406,0.39561983035423154,0.02867111019647192,0.9978555397923199,0.08236455381071717,0.9827589345274603
435,25.137,24.71,-0.03,0.01610201944817355,0.3947811679868967,0.029211917519109627,0.997575225696236,0.08240496498056576,0.9834505489330565
436,25.199,24.76,-0.03,0.01653028381369154,0.3939399048083937,0.029763291861333075,0.9972791166009924,0.08245894701541605,0.984132276401035
437,25.261,24.82,-0.05,0.016958981647996835,0.3930966529078027,0.03032481340070238,0.9969674888861991,0.08252603395570887,0.9848037080110209
438,25.303,24.87,-0.05,0.017387817007355786,0.39225201953539346,0.030896056868624348,0.9966406250289269,0.08260575215652545,0.9854644440987804
439,25.365,24.93,-0.03,0.017816492453556966,0.3914066066469594,0.031476592025368025,0.9962988132106027,0.08269762098979241,0.9861140945859077
440,25.428,24.98,-0.04,0.01824470930264926,0.3905610104601945,0.03206598413803189,0.9959423469235238,0.08280115355112808,0.9867522793001462
441,25.51,25.04,-0.04,0.01867216787658605,0.3897158210233184,0.03266379446094957,0.9955715245778934,0.08291585737043851,0.9873786282862856
442,25.53,25.09,-0.02,0.01909856775775113,0.38887162179598983,0.03326958071805432,0.995186649110088,0.08304123512535794,0.9879927821075473
443,25.572,25.15,-0.02,0.01952360804644351,0.38802898924237533,0.03388289758676781,0.9947880275926878,0.08317678535662676,0.9885943921373255
444,25.634,25.2,-0.02,0.01994698762150415,0.38718849243606474,0.03450329718302877,0.9943759708466009,0.0833220031845049,0.989183120841126
445,25.675,25.26,-0.0,0.02036840540437342,0.3863506926763407,0.03513032954712078,0.9939507930554653,0.08347638102532667,0.9897586420485106
446,25.736,25.31,0.01,0.020787560626964702,0.3855161431151393,0.03576354312999301,0.9935128113824107,0.08363940930731767,0.9903206412148531
447,25.798,25.37,-0.01,0.02120415310381397,0.38468538839389854,0.03640248527978234,0.9930623455892299,0.08381057718481146,0.990868815672701
448,25.879,25.42,-0.01,0.021617883509007875,0.38385896428939714,0.03704670272823642,0.9925997176580851,0.08398937325002533,0.9914028748725545
449,25.899,25.48,-0.0,0.02202845365840591,0.3830373973676433,0.037695742076714375,0.9921252514159868,0.08417528624157326,0.9919225406128911
450,25.981,25.53,-0.02,0.022435566797651733,0.3822212046448852,0.03834915028141916,0.9916392721624158,0.08436780574890441,0.9924275472592959
451,26.022,25.59,-0.04,0.02283892789639706,0.38141089325490535,0.03900647513749139,0.9911421063005575,0.08456642291184983,0.9929176419525937
452,26.082,25.64,-0.02,0.023238243949018036,0.38060696012195233,0.03966726576156331,0.9906340809727334,0.08477063111443993,0.9933925848059028
453,26.144,25.7,-0.03,0.02363322428187928,0.3798098916389698,0.040331073072334855,0.9901155237006786,0.08497992667212186,0.9938521490905416
454,26.228,25.75,-0.04,0.024023580866910855,0.37902016335117894,0.04099745026868596,0.9895867620313974,0.08519380951146331,0.9942961214106834
455,26.248,25.81,-0.02,0.024409028640971022,0.378238239645469,0.0416659533047776,0.9890481231893715,0.08541178384138699,0.9947243018666085
456,26.331,25.86,0.0,0.02478928583025175,0.3774645734463222,0.042336141361528724,0.9884999337359405,0.08563335881495153,0.9951365042063314
457,26.352,25.92,-0.01,0.025164074278864697,0.3766996059191315,0.04300757731380007,0.9879425192367017,0.08585804918068116,0.9955325559653213
458,26.392,25.97,0.02,0.02553311978069285,0.3759437661817984,0.04367982819258096,0.9873762039377864,0.08608537592245522,0.9959122985940122
459,26.454,26.03,0.04,0.025896152413586726,0.3751974710254743,0.04435246564147201,0.9868013104518537,0.08631486688699645,0.9962755875727773
460,26.517,26.08,0.03,0.026252906875017197,0.37446112464523335,0.04502506636678493,0.986218159454609,0.08654605739803829,0.9966222925140501
461,26.622,26.14,0.03,0.02660312281834493,0.3737351183813829,0.045697212580622766,0.9856270693925981,0.08677849085629843,0.9969522972512904
462,26.641,26.19,0.05,0.026946545188895027,0.37301983047206655,0.04636849243634163,0.9850283562030341,0.08701171932443398,0.9972654999145235
463,26.683,26.25,0.04,0.02728292455901338,0.3723156258178301,0.047038500455824285,0.9844223330464209,0.08724530409619514,0.9975618129922027
464,26.746,26.3,0.03,0.027612017461229287,0.3716228557588898,0.04770683794801106,0.9838093100527802,0.08747881624902325,0.9978411633791977
465,26.789,26.36,0.05,0.027933586718580185,0.37094185786592343,0.04837311341814072,0.9831895940822949,0.0877118371793537,0.9981034924107485
466,26.85,26.41,0.04,0.028247401771104134,0.3702729557452474,0.04903694296715627,0.982563488501154,0.08794395911989306,0.9983487558822618
467,26.912,26.47,0.02,0.028553238997493798,0.36961645885921374,0.04969795068072861,0.9819312929732953,0.08817478563814134,0.9985769240548484
468,26.992,26.52,0.04,0.028850882030935353,0.3689726623625689,0.050355769007340526,0.9812933032686323,0.0884039321154318,0.9987879816465057
469,27.012,26.58,0.06,0.029140122068223886,0.3683418469553674,0.051010039124868366,0.980649811088185,0.08863102620575893,0.9989819278088615
470,27.054,26.63,0.06,0.029420758171338973,0.36772427875285907,0.05166041129510324,0.9800011039063424,0.08885570827366591,0.9991587760893985
471,27.116,26.69,0.08,0.029692597560759267,0.36712020917261246,0.0523065452056642,0.9793474648303033,0.08907763181047068,0.9993185543790852
472,27.177,26.74,0.11,0.029955455899878778,0.36652987483902466,0.05294811029877075,0.978689172476644,0.08929646382813788,0.9994613048453572
473,27.239,26.8,0.11,0.030209157569950306,0.36595349750531775,0.0535847860863739,0.9780265008649098,0.08951188523015231,0.9995870838504154
474,27.339,26.85,0.11,0.030453535935015836,0.36539128399313126,0.05421626245119488,0.9773597193281299,0.08972359115881094,0.999695961854835
475,27.359,26.91,0.15,0.03068843359630514,0.364843426149851,0.054842239933282085,0.9766890924401582,0.08993129131842514,0.9997880233065076
476,27.4,26.96,0.15,0.030913702635624016,0.3643101008238064,0.055462430001760384,0.9760148799597212,0.09013471027400188,0.9998633665149446
477,27.462,27.02,0.13,0.031129204847330446,0.3637914698573843,0.056076555311505946,0.9753373367909801,0.09033358772504808,0.9999221035109868
478,27.502,27.07,0.14,0.03133481195859902,0.3632876800979734,0.05668434994453117,0.9746567129603181,0.09052767875421609,0.9999643598919625
479,27.583,27.13,0.15,0.03153040583777685,0.36279886342650464,0.05728555963591171,0.9739732536089605,0.09071675405057489,0.9999902746523487
480,27.623,27.18,0.12,0.031715878690706606,0.36232513680325307,0.05787994198412605,0.9732871990009568,0.09090060010734019,1.0
481,27.727,27.24,0.12,0.03189113324490963,0.3618666023305464,0.05846726664569494,0.9725987845460451,0.09107901939392694,0.9999937011580637
482,27.747,27.29,0.13,0.03205608292149227,0.3614233473320728,0.05904731551400402,0.9719082408369653,0.09125183050220692,0.9999715561527308
483,27.788,27.35,0.12,0.03221065199459014,0.3609954444485536,0.05961988288217955,0.9712157937008641,0.09141886826686489,0.9999337555870224
484,27.83,27.4,0.12,0.03235477573812579,0.3605829517495835,0.060184775589870676,0.9705216642644702,0.09157998385974997,0.9998805024008274
485,27.891,27.46,0.15,0.03248840055964762,0.3601859128614357,0.060741813153775005,0.9698260690327303,0.09173504485811851,0.9998120116174053
486,27.955,27.51,0.15,0.0326114841210552,0.35980435711054465,0.06129082788173449,0.969129219980539,0.09188393528667271,0.9997285100765304
487,28.015,27.57,0.15,0.0327239954460968,0.35943829968224816,0.06183166497023198,0.9684313246570987,0.0920265556333229,0.9996302361544069
488,28.077,27.62,0.18,0.032825915014636456,0.35908774179419223,0.062364182585140614,0.9677325863023,0.09216282283864624,0.9995174394704243
489,28.097,27.68,0.18,0.03291723484381611,0.35875267088360896,0.06288825192562059,0.9670332039743663,0.09229267025907495,0.9993903805807829
490,28.159,27.73,0.18,0.03299795855635533,0.35843306080751386,0.06340375727111519,0.9663333726878371,0.0924160476039146,0.9992493306590098
491,28.22,27.79,0.2,0.03306810143630164,0.35812887205478283,0.0639105960114487,0.9656332835608834,0.09253292084636179,0.9990945711634057
492,28.283,27.84,0.21,0.033127690472558244,0.35784005196908464,0.06440867866007031,0.9649331239709387,0.09264327210876303,0.9989263934915054
493,28.346,27.9,0.2,0.03317676439048945,0.35756653498172764,0.06489792885052742,0.9642330777176908,0.09274709952242638,0.9987450986216742
494,28.427,27.95,0.19,0.03321537367186531,0.3573082428535835,0.06537828331628825,0.9635333251925591,0.09284441706236912,0.9985509967420003
495,28.447,28.01,0.2,0.0332435805633779,0.3570650849253304,0.06584969185407007,0.9628340435538548,0.0929352543574524,0.9983444068666619
496,28.508,28.06,0.18,0.03326145907394946,0.3568369583753123,0.0663121172708639,0.9621354069068697,0.09301965647641257,0.9981256564399512
497,28.57,28.12,0.17,0.033269094961050655,0.35662374848432704,0.06676553531488617,0.9614375864881313,0.09309768369033611,0.9978950809281426
498,28.632,28.17,0.18,0.033266585706261904,0.3564253289066359,0.0672099345907283,0.9607407508530007,0.09316941121214432,0.9976530233993869
499,28.654,28.23,0.16,0.033254040480358675,0.3562415619463902,0.0676453164590241,0.9600450660656741,0.09323492891365927,0.9973998340918151
500,28.714,28.28,0.15,0.033231580098286445,0.3560722988385055,0.06807169492100297,0.959350695890459,0.09329434102081867,0.9971358699700407
501,28.818,28.34,0.17,0.033199336964489075,0.35591738003284296,0.06848909648833845,0.9586578019830211,0.09334776578760365,0.9968614942702915
502,28.838,28.39,0.17,0.033157455009138234,0.355776635480426,0.0688975600387379,0.9579665440801514,0.09339533514924174,0.9965770760344876
503,28.879,28.45,0.17,0.033106089615866446,0.35564988492037747,0.06929713665775593,0.9572770801865527,0.0934371943552569,0.9962829896336977
504,28.921,28.5,0.17,0.033045407541636346,0.3555369381662747,0.06968788946735095,0.956589566757158,0.09347350158295645,0.9959796142815315
505,28.982,28.56,0.18,0.03297558682940243,0.3554375953906514,0.07006989344173882,0.955904158873584,0.09350442753197763,0.9956673335381244
506,29.043,28.61,0.17,0.032896816714248794,0.3553516474063986,0.07044323521113205,0.9552210104134127,0.09353015500055453,0.9953465348054295
507,29.084,28.67,0.16,0.03280929752370577,0.3552788759438331,0.07080801285397931,0.9545402742111048,0.09355087844420196,0.9950176088145907
508,29.185,28.72,0.17,0.03271324057294837,0.3552190539222365,0.07116433567833083,0.9538621022094564,0.0935668035175472,0.9946809491061888
509,29.206,28.78,0.16,0.03260886805556053,0.3551719457147065,0.07151232399294993,0.9531866456006252,0.09357814660006682,0.9943369515041777
510,29.268,28.83,0.14,0.03249641293051157,0.3551373074052118,0.07185210886877809,0.9525140549558359,0.0935851343065051,0.9939860135843344
511,29.309,28.89,0.14,0.032376118805937784,0.3551148870367977,0.07218383189134368,0.951844480342956,0.09358800298276149,0.9936285341380492
512,29.371,28.94,0.15,0.03224823982026011,0.3551044248499557,0.07250764490468695,0.9511780714311693,0.0935869981880362,0.9932649126322789
513,29.433,29.0,0.14,0.03211304052111002,0.35510565351022605,0.07282370974735274,0.9505149775820352,0.09358237416401793,0.9928955486664767
514,29.558,29.05,0.14,0.031970795742484806,0.3551182983241516,0.07313219798097328,0.9498553479262768,0.093574393291889,0.9925208414273169
515,29.58,29.11,0.17,0.03182179048051234,0.3551420774427457,0.0734332906119293,0.9491993314257411,0.09356332553792575,0.9921411891420193
516,29.601,29.16,0.17,0.03166631976816824,0.355176702051708,0.07372717780655656,0.9485470769200688,0.09354944788848696,0.991756988531075
517,29.642,29.22,0.16,0.03150468854924162,0.35522187654772713,0.0740140586003582,0.9478987331577209,0.09353304377521317,0.9913686342611754
518,29.703,29.27,0.18,0.031337211551790006,0.3552772987003399,0.07429414060168342,0.9472544488111164,0.09351440249130562,0.9909765183991324
519,29.744,29.33,0.17,0.03116421316126463,0.35534265979894475,0.07456763969034066,0.9466143724757459,0.09349381859980926,0.9905810298675504
520,29.806,29.38,0.16,0.03098602729341789,0.3554176447846945,0.07483477971162077,0.9459786526532094,0.09347159133487935,0.9901825539029748
521,29.868,29.44,0.16,0.030802997267022156,0.35550193236713634,0.0750957921662157,0.9453474377182053,0.09344802399705877,0.9897814715172082
522,29.929,29.49,0.16,0.030615475676340903,0.35559519512562165,0.07535091589653342,0.9447208758695375,0.09342342334362903,0.9893781589624819
523,29.991,29.55,0.13,0.030423824263202743,0.3556970995956764,0.07560039676992468,0.9440991150652349,0.09339809897511772,0.9889729872011847
524,30.031,29.6,0.11,0.030228413788432773,0.35580730634069685,0.07584448735934068,0.9434823029419156,0.09337236271905126,0.9885663213808917
525,30.073,29.66,0.1,0.030029623902301655,0.35592547000950553,0.07608344662192196,0.9428705867186187,0.09334652801203332,0.988158520315463
526,30.156,29.71,0.07,0.029827843013576875,0.35605123938044264,0.07631753957597884,0.9422641130854413,0.09332090928120339,0.9877499359729989
527,30.197,29.77,0.06,0.02962346815670166,0.3561842573927777,0.07654703697676553,0.9416630280774504,0.09329582132608126,0.9873409129714483
528,30.322,29.82,0.08,0.029416904856584377,0.3563241611663119,0.07677221499138807,0.9410674769344436,0.09327157870174076,0.986931788082657
529,30.342,29.88,0.07,0.029208566990471363,0.356470582010073,0.07699335487313966,0.9404776039471506,0.09324849510418923,0.9865228897456072
530,30.362,29.93,0.06,0.02899887664642004,0.35662314542096335,0.07721074263553708,0.9398935522903732,0.09322688275877088,0.986114537589565
531,30.403,29.99,0.08,0.028788263977983425,0.356781471073111,0.07742466872632953,0.9393154638434487,0.09320705181237342,0.9857070419678069
532,30.465,30.04,0.09,0.028577167054817575,0.3569451727985806,0.0776354277017578,0.9387434789983342,0.09318930973019812,0.9853007035025434
533,30.527,30.1,0.08,0.028366031708973397,0.3571138585601064,0.0778433179013473,0.9381777364556021,0.09317396069785036,0.9848958126416257
534,30.588,30.15,0.09,0.02815531137660894,0.3572871304166452,0.07804864112352067,0.9376183730087138,0.09316130502952118,0.9844926492275721
535,30.65,30.21,0.09,0.027945466934782243,0.3574645844827869,0.07825170230232144,0.9370655233170567,0.09315163858305753,0.9840914820793965
536,30.71,30.26,0.07,0.027736966532894244,0.3576458108833185,0.07845280918555339,0.9365193196683577,0.09314525218275026,0.9836925685876906
537,30.751,30.32,0.06,0.0275302854182685,0.3578303937044825,0.07865227201465115,0.9359798917312186,0.09314243105069264,0.9832961543234019
538,30.792,30.37,0.07,0.027325905755301777,0.35801791094364266,0.0788504032066051,0.935447366298636,0.09314345424756912,0.9829024726607756
539,30.853,30.43,0.05,0.02712431643762219,0.35820793445913623,0.07904751703827424,0.9349218670234095,0.09314859412372407,0.9825117444149611
540,30.915,30.48,0.02,0.02692601289275674,0.3584000299220356,0.07924392933343254,0.9344035141463214,0.09315811578133112,0.9821241774948138
541,30.956,30.54,0.02,0.026731496878908977,0.35859375677142385,0.07943995715289605,0.9338924242179008,0.09317227654844562,0.98173996657142
542,31.017,30.59,0.01,0.026541276273536342,0.3587886681746659,0.07963591848806069,0.9333887098145496,0.09319132546567815,0.9813592927628341
543,31.079,30.65,0.01,0.026355864853468983,0.358984310994079,0.07983213195813885,0.932892479249823,0.09321550278617137,0.9809823233354755
544,31.141,30.7,0.02,0.02617578206633864,0.3591802257613533,0.08002891651132749,0.9324038362817211,0.0932450394895003,0.9806092114225878
545,31.182,30.76,0.03,0.026001552793114058,0.3593759466610273,0.0802265911300833,0.931922879816953,0.09328015681006005,0.9802400957601455
546,31.264,30.81,0.03,0.02583370710157368,0.3595710015242791,0.08042547454064411,0.9314497036132319,0.09332106578046934,0.9798751004405795
547,31.284,30.87,0.03,0.025672779990587,0.3597649118342617,0.08062588492692686,0.9309843959807371,0.09336796679050914,0.9795143346847115
548,31.388,30.92,0.05,0.025519311125139305,0.3599571927441561,0.08082813964895091,0.9305270394839121,0.09342104916212433,0.9791578926323011
549,31.429,30.98,0.04,0.025373844562137125,0.36014735310899765,0.08103255496598046,0.9300777106447318,0.09348049074103414,0.9788058531516606
550,31.45,31.03,0.07,0.025236928467145526,0.3603348955321602,0.08123944576462924,0.9296364796484956,0.09354645750551417,0.978458279668823
551,31.511,31.09,0.09,0.025109114822284655,0.3605193164272363,0.08144912529220477,0.9292034100531658,0.09361910319293366,0.978115220016778
552,31.615,31.14,0.08,0.024990959125533233,0.3607001060959576,0.08166190489558786,0.9287785585032478,0.09369856894466459,0.9777767063052216
553,31.656,31.2,0.06,0.024883020081677074,0.36087674882275694,0.08187809376596505,0.9283619744491497,0.09378498297002749,0.9774427548111394
554,31.676,31.25,0.05,0.02478585928514502,0.3610487229865232,0.08209799868977026,0.9279536998727544,0.09387846022999136,0.9771133658903278
555,31.758,31.31,0.04,0.024700040895020692,0.36121550119000484,0.08232192380623966,0.927553769019688,0.09397910214137917,0.9767885239097943
556,31.778,31.36,0.03,0.024626131302597568,0.3613765504071765,0.08255017037201626,0.9271622081385331,0.09408699630232602,0.9764681972008891
557,31.839,31.42,0.03,0.02456469879191933,0.3615313321487466,0.08278303653323639,0.9267790352271297,0.09420221623969949,0.9761523380330147
558,31.902,31.47,0.05,0.024516313193785468,0.3616793026459022,0.08302081710550206,0.9264042597860903,0.09432482117913915,0.9758408826077938
559,31.944,31.53,0.04,0.02448154553369396,0.3618199130523657,0.08326380336210013,0.9260378825796779,0.09445485583832439,0.9755337510735829
560,32.005,31.58,0.04,0.024460967674147734,0.36195260966488335,0.08351228283078377,0.9256798954042592,0.09459235024404505,0.9752308475602194
561,32.067,31.64,0.06,0.024455151951692473,0.3620768341623286,0.08376653909939173,0.925330280864607,0.09473731957363624,0.9749320602338476
562,32.129,31.69,0.05,0.024464670809001103,0.3621920238636678,0.08402685163055713,0.9249890121583815,0.09488976402133922,0.9746372613716147
563,32.17,31.75,0.04,0.024490096422279506,0.3622976120050763,0.08429349558574574,0.924656052869157,0.09504966869015971,0.9743463074559793
564,32.23,31.8,0.05,0.024532000324231605,0.3623930280365242,0.08456674165885888,0.924331356768397,0.09521700350980498,0.9740590392883155
565,32.292,31.86,0.05,0.024590953022786993,0.3624776979381759,0.08484685591963839,0.924014867626793,0.0953917231812909,0.9737752821214659
566,32.354,31.91,0.03,0.02466752361576806,0.3625510445569564,0.08513409966712612,0.923706519035369,0.09557376714881148,0.9734948458108795
567,32.396,31.97,0.02,0.02476227940167974,0.36261248796358886,0.08542872929344728,0.9234062342367022,0.09576305959945701,0.9732175249839858
568,32.478,32.02,0.02,0.0248757854868715,0.36266144583026766,0.085730996158204,0.9231139259665396,0.09595950949135146,0.9729430992274783
569,32.499,32.08,-0.01,0.025008604389446968,0.3626973338288757,0.086041146473782,0.9228294963059888,0.09616301061075208,0.9726713332922103
570,32.581,32.13,-0.04,0.025161295640438085,0.3627195660493622,0.08635942120187859,0.9225528365443323,0.09637344165860584,0.972401977315433
571,32.622,32.19,-0.03,0.025334415382868153,0.3627275554376251,0.08668605596154878,0.9222838270524077,0.09659066636699519,0.9721347670601241
572,32.665,32.24,-0.04,0.02552851596937669,0.36272071425205477,0.08702128094903544,0.9220223371663867,0.09681453364582605,0.9718694241711588
573,32.725,32.3,-0.06,0.02574414555907478,0.36269845453778077,0.08736532086959813,0.921768225081729,0.09704487776002176,0.9716056564480701
574,32.766,32.35,-0.04,0.025981847714274288,0.3626601886176069,0.08771839488149485,0.9215213377570297,0.09728151853739976,0.9713431581341277
575,32.889,32.41,-0.04,0.026242160997717395,0.36260532959857084,0.08808071655221796,0.9212815108274592,0.0975242616073324,0.9710816102214487
576,32.909,32.46,-0.06,0.026525618570922525,0.3625332918930321,0.08845249382705085,0.9210485685274726,0.09777289867023155,0.9708206807718229
577,32.951,32.52,-0.06,0.026832747794238315,0.3624434917532111,0.08883392900998001,0.9208223236225063,0.09802720779784692,0.97056002525294
578,33.013,32.57,-0.07,0.027164069829147368,0.36233534781817694,0.08922521875696651,0.9206025773494817,0.09828695376432306,0.9702992868896878
579,33.074,32.63,-0.08,0.02752009924329215,0.36220828167241925,0.0896265540815528,0.9203891193660518,0.0985518884079128,0.9700380970302042
580,33.114,32.68,-0.09,0.02790134361861255,0.3620617184153279,0.09003812037275225,0.9201817277086651,0.09882175102318703,0.9697760755263685
581,33.156,32.74,-0.08,0.028308303162894437,0.36189508724113656,0.09046009742513227,0.9199801687596645,0.09909626878351925,0.9695128311284327
582,33.236,32.79,-0.11,0.028741470324936944,0.36170782202911866,0.09089265948095628,0.919784197223797,0.09937515719355695,0.9692479618934706
583,33.278,32.85,-0.14,0.02920132941346104,0.36149936194402343,0.09133597528419177,0.9195935561146612,0.09965812057132276,0.9689810556073055
584,33.359,32.9,-0.15,0.029688356219831163,0.36126915204683785,0.0917902081461327,0.919407976751719,0.09994485255950725,0.9687116902195203
585,33.379,32.96,-0.18,0.030203017644684815,0.3610166439159014,0.09225551602233273,0.9192271787685423,0.10023503666541934,0.9684394342911065
586,33.441,33.01,-0.2,0.03074577132868031,0.36074129627816703,0.09273205160050685,0.9190508701328869,0.10052834682893627,0.9681638474542926
587,33.502,33.07,-0.18,0.03131706528775347,0.36044257565004634,0.09321996239902024,0.9188787471790808,0.1008244480176497,0.9678844808841144
588,33.582,33.12,-0.17,0.031917337553452066,0.36011995698692467,0.09371939087553735,0.918710494653092,0.10112299684825539,0.9676008777813354
589,33.603,33.18,-0.18,0.03254701581902255,0.359772924340217,0.09423047454534743,0.918545785770618,0.10142364223309691,0.9673125738663639
590,33.666,33.23,-0.18,0.03320651709193173,0.3594009715207898,0.0947533461088183,0.918384282288587,0.10172602605066837,0.9670190978838028
591,33.708,33.29,-0.15,0.033896247353446936,0.35900360276767124,0.09528813358737398,0.918225634590562,0.10202978383880705,0.9667199721172407
592,33.77,33.34,-0.16,0.03461660122579791,0.3585803334211453,0.09583496046735086,0.9180694817866332,0.10233454550925376,0.96641471291385
593,33.831,33.4,-0.16,0.0353679616473004,0.3581306905995667,0.09639394585106298,0.9179154518284652,0.10263993608221333,0.9661028312183391
594,33.957,33.45,-0.13,0.03615069955563716,0.3576542138795315,0.09696520461438345,0.9177631616402231,0.10294557643950968,0.9657838331157877
595,33.998,33.51,-0.13,0.03696517357931642,0.35715045597930367,0.09754884757013209,0.9176122172661418,0.10325108409489447,0.9654572203828743
596,34.018,33.56,-0.13,0.03781172973722185,0.3566189834455411,0.0981449816365418,0.91746221403549,0.10355607398003604,0.9651224910469938
597,34.059,33.62,-0.12,0.038690701146153646,0.35605937734335635,0.09875371001006558,0.9173127367456299,0.10386015924468826,0.9647791399527585
598,34.099,33.67,-0.12,0.039602407736301456,0.3554712339496341,0.09937513234177765,0.917163359863807,0.10416295206951831,0.9644266593353705
599,34.16,33.73,-0.12,0.04054715597464321,0.35485416544938875,0.10000934491661934,0.9170136477482136,0.10446406449004911,0.9640645394003599
600,34.2,33.78,-0.1,0.04152523859631766,0.35420780063477714,0.10065644083473867,0.9168631548887635,0.10476310923014404,0.9636922689092137
601,34.262,33.84,-0.08,0.04253693434409183,0.3535317856061777,0.10131651019417193,0.916711426167896,0.105059700543429,0.9633093357704469
602,34.322,33.89,-0.08,0.04358250771613513,0.3528257844745008,0.1019896402741109,0.9165579971415819,0.1053534550610189,0.962915227635672
603,34.384,33.95,-0.07,0.04466220872238596,0.3520894800636671,0.1026759157179772,0.916402394340597,0.10564399264390069,0.96250943250019
604,34.445,34.0,-0.04,0.045776272649830196,0.35132257461201327,0.10337541871548758,0.9162441355920506,0.10593093723832607,0.9620914393075567
605,34.505,34.06,-0.03,0.0469249198370193,0.3505247904712541,0.10408822918287829,0.916082730361085,0.1062139177325775,0.9616607385575348
606,34.567,34.11,-0.02,0.04810835545816481,0.34969587080150544,0.10481442494050094,0.9159176801125409,0.10649256881348629,0.9612168229168332
607,34.588,34.17,0.0,0.04932676931716432,0.34883558026076394,0.10555408188711611,0.915748478692231,0.1067665318211045,0.9607591878320698
608,34.691,34.22,0.02,0.050580335651931936,0.3479437056871562,0.10630727417035758,0.9155746127273346,0.1070354555999658,0.9602873321444525
609,34.713,34.28,0.03,0.05186921294941439,0.34702005677223335,0.10707407435296035,0.9153955620453585,0.10729899734540833,0.9598007587057426
610,34.753,34.33,0.05,0.05319354377166427,0.34606446672359714,0.10785455357440694,0.9152108001111351,0.10755682344347489,0.9592989749951621
611,34.814,34.39,0.07,0.054553454593315835,0.34507679291519655,0.10864878170766691,0.9150197944814163,0.1078086103029515,0.958781493736977
612,34.876,34.44,0.1,0.05594905565076241,0.3440569175237235,0.10945682751071224,0.914822007276714,0.10805404517815671,0.9582478335185346
613,34.917,34.5,0.09,0.05738044080326488,0.3430047481496581,0.11027875877249818,0.9146168956701128,0.10829282698114867,0.9576975194085399
614,34.978,34.55,0.07,0.058847687406148666,0.34192021842162984,0.11111464245310032,0.9144039123928394,0.10852466708207884,0.9571300835752717
615,35.061,34.61,0.05,0.0603508561961913,0.3408032885828536,0.11196454481769338,0.9141825062563788,0.10874929009648508,0.9565450659042949
616,35.082,34.66,0.05,0.061889991189267406,0.33965394605844595,0.11282853156403905,0.913952122690919,0.10896643465835591,0.9559420146150351
617,35.143,34.72,0.07,0.06346511959028923,0.3384722060024542,0.11370666794311869,0.9137122042998792,0.10917585417779431,0.9553204868754573
618,35.205,34.77,0.1,0.06507625171546005,0.337258111823428,0.11459901887251943,0.9134621914302132,0.1093773175820662,0.9546800494140105
619,35.267,34.83,0.1,0.06672338092684517,0.3360117356873564,0.11550564904216482,0.913201522758089,0.10957061003877532,0.9540202791279923
620,35.307,34.88,0.11,0.06840648357925928,0.3347331789967885,0.11642662301197942,0.9129296358894711,0.10975553365989456,0.9533407636874736
621,35.368,34.94,0.14,0.07012551897946796,0.3334225728449761,0.11736200530109014,0.9126459679750888,0.10993190818541565,0.9526411021339138
622,35.47,34.99,0.14,0.07188042935769921,0.33208007844391363,0.11831186046821023,0.912349956339264,0.11009957164543199,0.9519209054725738
623,35.491,35.05,0.15,0.07367113985145361,0.33070588752521685,0.11927625318292767,0.9120410391220629,0.11025838099952967,0.9511797972578601
624,35.532,35.1,0.18,0.07549755850158689,0.32930022271286646,0.12025524828770844,0.911718655934229,0.11040821275242228,0.9504174141707477
625,35.615,35.16,0.17,0.07735957626062946,0.3278633378669243,0.12124891085050171,0.9113822485243306,0.11054896354482635,0.9496334065874666
626,35.636,35.21,0.16,0.07925706701330988,0.3263955183973854,0.12225730620788616,0.9110312614575155,0.11068055071863661,0.9488274391386542
627,35.698,35.27,0.19,0.08118988760926633,0.3248970815473515,0.1232804999987358,0.9106651428051733,0.11080291285552393,0.94799919125818
628,35.781,35.32,0.19,0.08315787790796501,0.3233683766446819,0.12431855818845576,0.9102833448446449,0.11091601028813575,0.9471483577208489
629,35.802,35.38,0.19,0.08516086083588136,0.32180978532121857,0.12537154708396106,0.9098853247678972,0.11101982558312361,0.946274649168206
630,35.864,35.43,0.2,0.08719864245601848,0.32022172169861907,0.12643953333971505,0.9094705453978498,0.11111436399525991,0.9453777926216891
631,35.906,35.49,0.22,0.0892710120498308,0.3186046325397936,0.12752258395525615,0.9090384759108662,0.1111996538919436,0.9444575319823998
632,35.968,35.54,0.21,0.09137774221159939,0.31695899736492167,0.12862076626469454,0.9085885925638278,0.1112757471474366,0.9435136285167725
633,36.031,35.6,0.21,0.09351858895528486,0.3152853285310266,0.12973414791866744,0.9081203794241715,0.11134271950621684,0.9425458613274024
634,36.073,35.65,0.24,0.09569329183387355,0.3135841712741096,0.13086279685923746,0.9076333291012764,0.1114006709148801,0.9415540278082806
635,36.156,35.71,0.23,0.09790157407123118,0.3118561037129116,0.1320067812882147,0.9071269434776086,0.11144972582207395,0.9405379440836483
636,36.197,35.76,0.23,0.10014314270646478,0.31010173681348546,0.13316616962938652,0.9066007344380623,0.11149003344599738,0.9394974454296517
637,36.237,35.82,0.26,0.10241768875076072,0.308321714313918,0.13434103048513854,0.906054224596001,0.11152176800905408,0.9384323866779548
638,36.299,35.87,0.26,0.10472488735662441,0.30651671260869756,0.1355314325879509,0.9054869480145532,0.11154512893930439,0.93734264260043
639,36.361,35.93,0.25,0.1070643979994163,0.30468744059234615,0.13673744474725824,0.9048984509217464,0.11156034103841826,0.9362281082740284
640,36.402,35.98,0.26,0.10943586467106127,0.30283463946202516,0.13795913579216473,0.9042882924180755,0.11156765461589015,0.9350886994249079
641,36.463,36.04,0.26,0.11183891608580285,0.3009590824788844,0.13919657451049747,0.9036560451751071,0.11156734558933729,0.9339243527508875
642,36.566,36.09,0.23,0.1142731658978645,0.29906157468798267,0.1404498295846731,0.9030012961237412,0.11155971555075819,0.932735026221284
643,36.587,36.15,0.22,0.11673821293085282,0.29714295259667944,0.14171896952483298,0.9023236471307793,0.11154509179867127,0.9315206993531873
644,36.628,36.2,0.21,0.11923364141870224,0.2952040838114655,0.1430040625996734,0.9016227156625054,0.11152382733607635,0.9302813734632414
645,36.69,36.26,0.2,0.12175902125793624,0.29324586663322805,0.1443051767653617,0.9008981354340312,0.11149630083418065,0.9290170718940323
646,36.771,36.31,0.19,0.12431390827100831,0.291269229610941,0.1456223795928707,0.9001495570432082,0.11146291656180021,0.9277278402142284
647,36.791,36.37,0.21,0.12689784448047287,0.2892751310537591,0.14695573819400362,0.8993766485879441,0.11142410428030779,0.9264137463916583
648,36.915,36.42,0.22,0.129510358393716,0.2872645585014972,0.1483053191463188,0.8985790962657645,0.11138031910396289,0.925074880938536
649,36.935,36.48,0.21,0.13215096529795103,0.2852385281534917,0.14967118841712654,0.8977566049544113,0.11133204132544913,0.9237113570280484
650,36.955,36.53,0.23,0.1348191675651678,0.2831980842558606,0.15105341128670824,0.8969088987722165,0.11127977620645987,0.9223233105815317
651,37.017,36.59,0.25,0.1375144549667265,0.2811442984471895,0.15245205227090086,0.8960357216169527,0.11122405373321452,0.920910900325494
652,37.063,36.64,0.25,0.14023630499731185,0.2790782690626736,0.15386717504319353,0.8951368376818458,0.11116542833684254,0.9194743078178023
653,37.125,36.7,0.26,0.1429841832079974,0.27700112039675634,0.1552988423564862,0.8942120319474667,0.111104478578635,0.9180137374424368
654,37.186,36.75,0.28,0.14575754354820114,0.2749140019243249,0.15674711596466115,0.8932611106482732,0.11104180680023674,0.9165294163723057
655,37.268,36.81,0.27,0.1485558287163322,0.2728180874805704,0.15821205654412085,0.8922839017126786,0.11097803873893032,0.9150215944996787
656,37.289,36.86,0.25,0.1513784705189253,0.2707145743996896,0.15969372361544543,0.8912802551756023,0.11091382310824062,0.913490544333864
657,37.351,36.92,0.27,0.15422489023804248,0.2686046826126886,0.16119217546531703,0.8902500435625579,0.11084983114415639,0.911936560865806
658,37.391,36.97,0.25,0.15709449900670114,0.2664896537046215,0.16270746906885195,0.8891931622443588,0.11078675611731666,0.9103599613993354
659,37.454,37.03,0.24,0.15998669819208416,0.2643707499316458,0.16423966001247425,0.8881095297615171,0.11072531281153994,0.9087610853488718
660,37.516,37.08,0.25,0.16290087978628173,0.2622492531983076,0.16578880241744437,0.8869990881173629,0.11066623696909139,0.907140294003414
661,37.558,37.14,0.26,0.1658364268043085,0.26012646399551126,0.1673549488641242,0.8858618030388835,0.11061028470309782,0.9054979702567107
662,37.641,37.19,0.26,0.16879271368912488,0.25800370029968434,0.16893815031702872,0.8846976642042595,0.1105582318775351,0.9038345183035414
663,37.662,37.25,0.27,0.171769106723376,0.2558822964337361,0.17053845605068332,0.8835066854361358,0.1105108734552357,0.9021503633021362
664,37.724,37.3,0.29,0.17476496444755424,0.2537636018905228,0.1721559135762827,0.8822889048597776,0.11046902281440175,0.9004459510028743
665,37.785,37.36,0.29,0.17777963808428884,0.2516489801196819,0.17379056856913472,0.8810443850254465,0.11043351103416216,0.8987217473435315
666,37.827,37.41,0.3,0.18081247196846878,0.24953980727887692,0.175442464796863,0.8797732129945016,0.11040518614978083,0.8969782380114594
667,37.909,37.47,0.32,0.1838628039829056,0.24743747095068333,0.1771116440483357,0.8784755003889326,0.1103849123782023,0.8952159279731677
668,38.012,37.52,0.31,0.1869299659992413,0.24534336882653957,0.17879814606328245,0.8771513834041641,0.11037356931470461,0.8934353409718484
669,38.032,37.58,0.29,0.1900132843237927,0.24325890735937966,0.18050200846254835,0.8758010227851143,0.11037205110150929,0.8916370189934121
670,38.072,37.63,0.3,0.193112080148007,0.24118550038674502,0.18222326667892144,0.8744246037655793,0.11038126556927132,0.889821521701643
671,38.135,37.69,0.29,0.19622567000320412,0.23912456772631305,0.18396195388845604,0.8730223359710371,0.11040213335242992,0.8879894258430973
672,38.196,37.74,0.25,0.19935336621930955,0.23707753374586893,0.18571810094221172,0.8715944532849503,0.11043558697943931,0.8861413246224022
673,38.217,37.8,0.25,0.20249447738733153,0.23504582590980092,0.18749173629831287,0.8701412136785736,0.11048256993891842,0.8842778270486794
674,38.299,37.85,0.26,0.205648308825388,0.2330308733042456,0.18928288595420908,0.8686628990042512,0.11054403572276114,0.8823995572538863
675,38.361,37.91,0.26,0.20881416304811828,0.23103410514309722,0.1910915733789835,0.8671598147521725,0.11062094684723914,0.8805071537839737
676,38.381,37.96,0.27,0.21199134023929994,0.22905694925725376,0.19291781944551414,0.8656322897706014,0.11071427385311648,0.8786012688638699
677,38.462,38.02,0.3,0.2151791387274532,0.2271008305696839,0.19476164236225668,0.8640806759496673,0.11082499428580092,0.8766825676374167
678,38.503,38.07,0.3,0.21837685546419996,0.2251671695590919,0.19662305760440452,0.862505347868842,0.11095409165658855,0.8747517273834959
679,38.545,38.13,0.31,0.2215837865051712,0.22325738071509424,0.19850207784419102,0.860906702408233,0.11110255438611746,0.8728094367096875
680,38.607,38.18,0.34,0.22479922749329997,0.2213728709879413,0.20039871288011923,0.8592851583238402,0.11127137473122546,0.8708563947249043
681,38.668,38.24,0.36,0.22802247414436966,0.21951503823596272,0.20231296956492736,0.8576411557869512,0.11146154769650615,0.8688933101925291
682,38.751,38.29,0.35,0.23125282273468656,0.2176852696741041,0.20424485173212892,0.8559751558878963,0.11167406993196459,0.8669209006656665
683,38.772,38.35,0.36,0.23448957059071546,0.21588494032717195,0.20619436012099462,0.8542876401044394,0.11190993861829318,0.8649398916062098
684,38.833,38.4,0.35,0.2377320165804657,0.2141154114916827,0.2081614922998799,0.8525791097351553,0.11217015034140562,0.8629510154895154
685,38.873,38.46,0.35,0.24097946160635259,0.21237802921048235,0.21014624258784623,0.8508500852982448,0.11245569995797455,0.8609550108965929
686,38.935,38.51,0.31,0.24423120909919174,0.2106741227645101,0.21214860197457563,0.8491011058963923,0.11276757945379758,0.8589526215958336
687,38.997,38.57,0.29,0.24748656551291806,0.20900500318614906,0.21416855803863766,0.8473327285484703,0.11310677679687182,0.8569445956163724
688,39.057,38.62,0.27,0.25074484081956866,0.20737196179851375,0.2162060948642279,0.8455455274891054,0.11347427478707815,0.854931684315151
689,39.119,38.68,0.25,0.25400534900402194,0.20577626878478836,0.21826119295655683,0.8437400934373077,0.11387104990436199,0.8529146414396611
690,39.161,38.73,0.26,0.2572674085579417,0.20421917179139903,0.22033382915610983,0.8419170328355036,0.11429807115724944,0.8508942221882113
691,39.243,38.79,0.27,0.26053034297234007,0.20270189456840557,0.22242397655204385,0.8400769670604148,0.11475629893347664,0.8488711822694369
692,39.264,38.84,0.25,0.263793481228159,0.20122563565004767,0.22453160439502623,0.8382205316072717,0.11524668385446446,0.8468462769626531
693,39.327,38.9,0.26,0.2670561582842895,0.1997915670778814,0.22665667800986564,0.8363483752488988,0.11577016563535505,0.8448202601805777
694,39.388,38.95,0.27,0.2703177155624997,0.19840083316841506,0.22879915870832943,0.8344611591712034,0.11632767195234157,0.8427938835358928
695,39.471,39.01,0.25,0.2735775014288286,0.19705454932660751,0.23095900370259453,0.8325595560865602,0.11692011731905019,0.8407678954131099
696,39.492,39.06,0.23,0.276834871671096,0.19575380090608094,0.2331361660198345,0.8306442493265054,0.1175484019737618,0.8387430400472017
697,39.552,39.12,0.23,0.28008918997225685,0.19449964211647935,0.2353305944184753,0.828715931915142,0.11821341077928187,0.836720056610464
698,39.594,39.17,0.2,0.2833398283793862,0.19329309497810196,0.23754223330664692,0.8267753056247557,0.11891601213727453,0.8346996783090567
699,39.657,39.23,0.16,0.28658616776811724,0.192135148323751,0.2397710226632997,0.8248230800154044,0.11965705691886219,0.8326826314906336
700,39.718,39.28,0.15,0.2898275983023713,0.1910267568476336,0.24201689796236278,0.8228599714605562,0.12043737741325343,0.8306696347644439
701,39.759,39.34,0.12,0.2930635198892156,0.18996884020109894,0.2442797901002412,0.8208867021610664,0.12125778629609568,0.8286613981352268
702,39.84,39.39,0.09,0.29629334262866563,0.18896228213495492,0.246559625326897,0.8189039991497984,0.12211907561915676,0.8266586221521683
703,39.861,39.45,0.09,0.29951648725821645,0.1880079296880758,0.24885632518071585,0.8169125932891136,0.1230220158228265,0.8246619970741237
704,39.922,39.5,0.09,0.30273238559184046,0.1871065924219945,0.25116980642732034,0.8149132182633657,0.12396735477281097,0.8226722020522099
705,39.985,39.56,0.09,0.3059404809531434,0.18625904170116095,0.2534999810024556,0.8129066095684626,0.12495581682227866,0.8206899043307996
706,40.027,39.61,0.09,0.3091402286023231,0.1854660100185478,0.2558467559590475,0.8108935035005299,0.1259881019006265,0.8187157584678555
707,40.09,39.67,0.11,0.3123310961565372,0.18472819036629548,0.25821003341852133,0.808874636145709,0.12706488462996976,0.8167504055754796
708,40.152,39.72,0.1,0.3155125640032535,0.18404623565110875,0.26058971052647356,0.8068507423731168,0.12818681347042718,0.8147944725814736
709,40.215,39.78,0.1,0.31868412570612964,0.18342075815414483,0.2629856794127967,0.804822554832993,0.1293545098952577,0.8128485715126212
710,40.256,39.83,0.12,0.32184528840294463,0.1828523290351552,0.26539782715637494,0.8027908029620278,0.13056856759690058,0.8109132988003124
711,40.319,39.89,0.12,0.3249955731950909,0.1823414778806469,0.26782603575448516,0.8007562119978131,0.13182955172496685,0.8089892346090345
712,40.382,39.94,0.1,0.3281345155281302,0.181888692295804,0.2702701820970613,0.7987195020042721,0.13313799815721614,0.8070769421881674
713,40.445,40.0,0.09,0.33126166556291753,0.1814944175398672,0.27273013794598727,0.7966813869098622,0.13449441280454133,0.8051769672474255
714,40.508,40.05,0.08,0.33437658853680047,0.1811590562046215,0.2752057699195795,0.7946425735603042,0.1358992709509631,0.8032898373561985
715,40.593,40.11,0.04,0.3374788651143928,0.18088296793560785,0.2776969394824015,0.7926037607875787,0.13735301662960486,0.8014160613669513
716,40.612,40.16,0.02,0.34056809172738595,0.1806664691956718,0.28020350294052326,0.7905656384969179,0.13885606203555642,0.799556128862782
717,40.654,40.22,0.03,0.34364388090279724,0.18050983307049898,0.2827253114422924,0.7885288867735237,0.1404087869764444,0.7977105096292104
718,40.696,40.27,0.0,0.346705861578974,0.18041328911583585,0.28526221098462967,0.7864941750107078,0.14201153836141064,0.7958796531502336
719,40.759,40.33,0.0,0.3497536794085987,0.18037702324613894,0.287814042424809,0.7844621610610987,0.14366462972906396,0.7940639881287005
720,40.821,40.38,0.03,0.35278699704788247,0.1804011776644304,0.29038064149763326,0.78243349041248,0.1453683408148464,0.7922639220310627
721,40.884,40.44,0.03,0.35580549443109266,0.18048585083316893,0.29296183883787996,0.7804087953897636,0.1471229171581439,0.7904798406566066
722,40.947,40.49,0.04,0.3588088690295314,0.1806310974859775,0.29555746000786853,0.7783886943845387,0.14892856974939114,0.7887121077313111
723,40.968,40.55,0.05,0.36179683609407665,0.1808369286800888,0.2981673255299829,0.776373791113628,0.1507854747173688,0.7869610645265075
724,41.031,40.6,0.07,0.364769128880427,0.18110331188934845,0.3007912509239862,0.7743646739080488,0.15269377305686227,0.7852270295025142
725,41.093,40.66,0.06,0.36772549885627326,0.18143017113754642,0.3034290467489968,0.772361915033707,0.15465357039683755,0.7835102979774169
726,41.135,40.71,0.07,0.3706657158897104,0.18181738717177234,0.30608051865003894,0.770366070045055,0.15666493680927412,0.7818111418211646
727,41.198,40.77,0.08,0.3735895684182825,0.18226479767546075,0.3087454674091241,0.7683776771728587,0.15872790665878536,0.7801298091751494
728,41.261,40.82,0.05,0.37649686359807094,0.18277219752083987,0.31142368900084083,0.7663972567471871,0.16084247849313493,0.7784665241974271
729,41.303,40.88,0.03,0.37938742743220727,0.18333933906060637,0.3141149746524248,0.7644253106567224,0.16300861497472605,0.7768214868337182
730,41.366,40.93,0.05,0.38226110487813203,0.18396593245876575,0.3168191109082504,0.7624623218454638,0.16522624285308482,0.7751948726142963
731,41.429,40.99,0.05,0.38511775993288466,0.18465164606064668,0.3195358796986466,0.7605087538478041,0.1674952529782815,0.7735868324768276
732,41.47,41.04,0.05,0.3879572756956911,0.18539610680209723,0.32226505841290487,0.7585650503627721,0.16981550035513476,0.7719974926151791
733,41.533,41.1,0.08,0.39077955440712475,0.18619890065783307,0.325006419976318,0.7566316348680375,0.17218680423794744,0.7704269543541563
734,41.575,41.15,0.09,0.39358451746417217,0.1870595731288012,0.327759732931085,0.7547089102740477,0.17460894826544748,0.7688752940500801
735,41.699,41.21,0.09,0.39637210541067647,0.18797762976821744,0.33052476152095334,0.752797258618387,0.1770816806355601,0.7673425630170772
736,41.719,41.26,0.11,0.3991422779028514,0.18895253674563658,0.3333012657795445,0.7508970408001473,0.17960471431960956,0.7658287874789581
737,41.74,41.32,0.14,0.4018950136498231,0.1899837214480805,0.3360890016224046,0.749008596353772,0.18217772731553689,0.7643339685465749
738,41.801,41.37,0.13,0.40463031032941066,0.19107057311694592,0.33888772094291264,0.7471322432615712,0.1848003629397145,0.7628580822205743
739,41.863,41.43,0.14,0.4073481844795458,0.1922124435192037,0.3416971717122422,0.7452682778039232,0.18747223015692946,0.7614010794194872
740,41.925,41.48,0.15,0.4100486713658376,0.19340864765131063,0.3445170980835961,0.7434169744461208,0.1901929039481016,0.7599628860330938
741,42.047,41.54,0.13,0.4127318248258325,0.19465846447424348,0.3473472405009179,0.7415785857608138,0.19296192571528437,0.7585434030009904
742,42.068,41.59,0.11,0.4153977170905285,0.1959611376780863,0.3501873358122515,0.7397533423850268,0.1957788037234646,0.7571425064162475
743,42.089,41.65,0.12,0.41804643858370183,0.19731587647462856,0.35303711738787313,0.7379414530107385,0.19864301357862252,0.7557600476540167
744,42.15,41.7,0.12,0.42067809769959547,0.1987218564164579,0.3558963152432558,0.7361431044080261,0.20155399874143606,0.7543958535249025
745,42.191,41.76,0.1,0.42329282055950274,0.20017822024105367,0.35876465616685294,0.7343584614797667,0.20451117107591346,0.7530497264529019
746,42.252,41.81,0.12,0.4258907507477514,0.20168407873842717,0.36164186385260183,0.7325876673469234,0.20751391143212417,0.7517214446776971
747,42.313,41.87,0.15,0.4284720490275509,0.20323851164091392,0.3645276590369537,0.7308308434634974,0.2105615702620861,0.7504107624810785
748,42.416,41.92,0.16,0.43103689303712106,0.20484056853381624,0.36742175964016754,0.7290880897602935,0.21365346826776896,0.7491174104372704
749,42.436,41.98,0.18,0.4335854769664783,0.20648926978570284,0.370323880911554,0.7273594848167095,0.21678889708009733,0.747841095686933
750,42.478,42.03,0.21,0.4361180112152587,0.2081836074972526,0.3732337355783345,0.7256450860598039,0.21996711996779159,0.7465815022346016
751,42.519,42.09,0.23,0.4386347220320061,0.20992254646753591,0.37615103399777733,0.723944929989918,0.22318737257486498,0.7453382912692925
752,42.581,42.14,0.23,0.44113585113545845,0.21170502517654596,0.3790754843122867,0.7222590324320892,0.22644886368559033,0.7441111015079578
753,42.641,42.2,0.25,0.44362165531850745,0.21352995678265727,0.38200679260715753,0.7205873888124014,0.22975077601575852,0.7428995495614231
754,42.703,42.25,0.28,0.4460924060356463,0.21539623013351575,0.3849446630707615,0.7189299744582689,0.23309226702906038,0.7417032303224039
755,42.785,42.31,0.27,0.44854838897483484,0.21730271078873523,0.38788879815699673,0.7172867449214819,0.23647246977742373,0.7405217173751762
756,42.806,42.36,0.27,0.45098990361474295,0.2192482420527506,0.39083889874987693,0.715657636322729,0.23989049376413013,0.7393545634264761
757,42.847,42.42,0.27,0.45341726276827443,0.22123164601628817,0.39379466433014737,0.714042565716285,0.24334542582851593,0.7382013007572037
758,42.89,42.47,0.27,0.4558307921131612,0.2232517246050977,0.3967557931437925,0.7124414314735906,0.2468363310510312,0.7370614416945055
759,42.95,42.53,0.28,0.4582308297102838,0.22530726063480713,0.39972198237224915,0.710854113684507,0.25036225367737097,0.7359344791037995
760,43.01,42.58,0.31,0.46061772551023783,0.2273970188709745,0.40269292830406894,0.7092804745751047,0.2539222180603197,0.7348198869002891
761,43.072,42.64,0.32,0.46299184084853884,0.22951974709360723,0.405668326507698,0.7077203589408956,0.2575152296178664,0.7337171205794633
762,43.135,42.69,0.34,0.46535354792974887,0.2316741771655863,0.4086478720049716,0.7061735945944614,0.2611402758060779,0.7326256177660166
763,43.176,42.75,0.38,0.4677032293007352,0.23385902610457793,0.41163125944486034,0.7046399928265292,0.26479632710517076,0.7315447987805596
764,43.238,42.8,0.41,0.4700412773132233,0.23607299715813435,0.4146181832769463,0.7031193488797747,0.2684823380172052,0.730474067223434
765,43.299,42.86,0.42,0.4723680935757865,0.2383147808817939,0.4176083379240611,0.701611442434944,0.2721972480738322,0.7294128105749382
766,43.34,42.91,0.46,0.4746840883954111,0.2405830562200991,0.4206014179534931,0.7001160381091922,0.27593998285254795,0.728360400811267
767,43.402,42.97,0.49,0.47698968020877947,0.24287649159054722,0.4235971182461898,0.6986328859667148,0.27970945499995153,0.7273161950354993
768,43.505,43.02,0.5,0.479285295003479,0.2451937459705158,0.4265951341634435,0.697161722041765,0.28350456526054457,0.7262795361229986
769,43.525,43.08,0.5,0.48157136572945863,0.2475334699871379,0.42959516171065076,0.6957022688739976,0.28732420350964916,0.7252497533806186
770,43.566,43.13,0.52,0.4838483317012259,0.24989430700992993,0.43259689769785037,0.6942542360558164,0.2911672497890561,0.7242261632191356
771,43.608,43.19,0.52,0.48611663799148996,0.25227489424573013,0.43560003989686835,0.6928173207910698,0.2950325753440387,0.7232080698383075
772,43.668,43.24,0.51,0.4883767348171604,0.2546738638352454,0.4386042871949842,0.6913912084641141,0.29891904366036737,0.7221947659239597
773,43.73,43.3,0.52,0.4906290769187566,0.2570898439503045,0.4416093397450752,0.689975573218007,0.30282551149994114,0.72118553335646
774,43.771,43.35,0.53,0.4928741229343492,0.25952145989081976,0.44461489911217644,0.6885700785404723,0.30675082993361086,0.7201796439299379
775,43.834,43.41,0.54,0.495112334769137,0.26196733518046544,0.44762066841634,0.6871743778562223,0.31069384536970657,0.7191763600815788
776,43.895,43.46,0.57,0.49734417696169847,0.2644260926601596,0.4506263524716157,0.6857881151242589,0.3146534005767128,0.7181749356303206
777,43.937,43.52,0.62,0.4995701160478596,0.26689635557856717,0.45363165792092836,0.6844109254388292,0.3186283356984753,0.7171746165242728
778,43.998,43.57,0.65,0.5017906199230415,0.2693767486789881,0.45663629336660794,0.6830424356328084,0.32261748926028655,0.7161746415961828
779,44.06,43.63,0.68,0.5040061572038668,0.2718658992821576,0.45963996949633207,0.681682264882394,0.32661969916420064,0.7151742433262827
780,44.101,43.68,0.73,0.5062171965897488,0.2743624383646446,0.46264239920425193,0.6803300253121267,0.3306338036719638,0.7141726486118711
781,44.163,43.74,0.76,0.5084242062251484,0.2768650016326727,0.4656432977070977,0.6789853225993517,0.334658642374021,0.713169079542979
782,44.265,43.79,0.8,0.5106276530631492,0.2793722305912946,0.4686423826550924,0.6776477565772931,0.33869305714315145,0.7121627541834638
783,44.285,43.85,0.85,0.5128280022309912,0.2818827736089242,0.4716393742375394,0.6763169218359573,0.34273589307139224,0.711152887356863
784,44.326,43.9,0.88,0.515025716398179,0.28439528697726046,0.4746339952829932,0.674992408320109,0.3467859993890216,0.7101386914363218
785,44.388,43.96,0.89,0.5172212551477854,0.28690843596662763,0.47762597135395435,0.6736738019236205,0.35084223036449036,0.7091193771379036
786,44.451,44.01,0.91,0.5194150743515613,0.28942089587672404,0.4806150308360548,0.6723606850795729,0.35490344618430897,0.708094154316585
787,44.514,44.07,0.92,0.5216076255494618,0.29193135308271095,0.48360090502172226,0.6710526373455997,0.3589685138120045,0.7070622327642284
788,44.618,44.12,0.93,0.5237993553342252,0.2944385060764696,0.48658332818832944,0.6697492359840221,0.3630363078253532,0.7060228230088352
789,44.638,44.18,0.95,0.5259907047417015,0.29694106650267876,0.48956203767085604,0.6684500565363254,0.36710571123115016,0.7049751371143822
790,44.659,44.23,0.99,0.5281821086477281,0.29943776018913254,0.49253677392909523,0.667154673391435,0.371175616256817,0.7039183894805578
791,44.7,44.29,1.02,0.5303739951724309,0.30192732817049,0.4955072806094241,0.6658626603471469,0.375244925118175,0.7028517976416866
792,44.761,44.34,1.05,0.5325667850928902,0.30440852770448645,0.4984733046011445,0.6645735911639643,0.3793125507627504,0.7017745830641196
793,44.823,44.4,1.1,0.5347608912651113,0.3068801332795459,0.5014345960873893,0.6632870401105484,0.3833774175880386,0.7006859719413373
794,44.885,44.45,1.13,0.5369567180562075,0.3093409376126808,0.5043909085906096,0.6620025824999949,0.3874384621342474,0.6995851959859851
795,44.927,44.51,1.15,0.5391546607876309,0.3117897526365361,0.5073419990126934,0.6607197952161772,0.3914946337511565,0.698471493218045
796,44.988,44.56,1.18,0.5413551051902152,0.31422541047443536,0.5102876276698228,0.6594382572294779,0.3955448952388626,0.6973441087483463
797,45.05,44.62,1.22,0.5435584268717383,0.31664676440229855,0.5132275583222297,0.6581575501013294,0.3995882234623148,0.6962022955566382
798,45.091,44.67,1.23,0.5457649907977074,0.31905268979632273,0.5161615581990632,0.6568772584771251,0.4036236099396792,0.6950453152634849
799,45.154,44.73,1.24,0.5479751507860775,0.3214420850653467,0.519089398018643,0.6555969705672091,0.4076500614046963,0.6938724388952954
800,45.215,44.78,1.26,0.5501892490166049,0.3238138725668743,0.5220108520044152,0.654316278615804,0.41166660034330776,0.6926829476418317
801,45.257,44.84,1.25,0.5524076155555142,0.3261669995057875,0.5249256978969845,0.6530347793578544,0.41567226550492953,0.6914761336055673
802,45.36,44.89,1.23,0.5546305678961144,0.328500438814849,0.5278337169626096,0.6517520744638384,0.41966611238881857,0.6902513005422583
803,45.381,44.95,1.24,0.5568584105159402,0.3308131900161409,0.5307346939985415,0.6504677709726736,0.42364721370602887,0.6890077645920699
804,45.422,45.0,1.26,0.5590914344509104,0.33310428006262477,0.5336284173355232,0.6491814817128948,0.42761465981746444,0.6877448550005646
805,45.505,45.06,1.26,0.5613299168869312,0.335372764159026,0.5365146788377099,0.6478928257123149,0.4315675591485274,0.6864619148288336
806,45.526,45.11,1.28,0.5635741207692857,0.3376177265612664,0.5393932739001944,0.6466014285964112,0.43550503858083456,0.6851583016520553
807,45.589,45.17,1.31,0.5658242944300913,0.3398382813536958,0.5422640014442789,0.6453069229757283,0.4394262438214679,0.6838333882457672
808,45.648,45.22,1.32,0.5680806712340631,0.3420335732034144,0.5451266639105988,0.6440089488226729,0.44333033975023534,0.6824865632591662
809,45.71,45.28,1.33,0.570343469242765,0.3442027780910499,0.5479810672502158,0.6427071538381848,0.4472165107454457,0.6811172318747849
810,45.772,45.33,1.36,0.572612890897482,0.3463451040174564,0.5508270209138091,0.6414011938088923,0.4510839609887514,0.6797248164539241
811,45.834,45.39,1.36,0.5748891227207915,0.34845979168588836,0.553664337839127,0.6400907329554636,0.45493191474966016,0.6783087571672547
812,45.894,45.44,1.36,0.5771723350368998,0.35054611515923245,0.5564928344369031,0.6387754442728865,0.4587596166503705,0.6768685126100255
813,45.936,45.5,1.38,0.5794626817108688,0.35260338249176787,0.5593123305754879,0.6374550098633187,0.46256633191163343,0.6754035604013293
814,45.999,45.55,1.38,0.5817602999069942,0.3546309363346749,0.5621226495645211,0.6361291212619264,0.46635134658037986,0.6739133977668906
815,46.101,45.61,1.36,0.584065309866781,0.356628154514193,0.5649236181380248,0.6347974797558407,0.4701139677398801,0.67239754210485
816,46.163,45.66,1.36,0.5863778147070835,0.35859445058107414,0.5677150664373153,0.6334597966961445,0.4738535237032034,0.6708555315340238
817,46.184,45.72,1.36,0.5886979002390321,0.3605292743298593,0.5704968279941157,0.6321157938026877,0.4775693641907292,0.6692869254241244
818,46.204,45.77,1.35,0.5910256348083244,0.3624321122865054,0.5732687397142004,0.6307652034615039,0.48126086049242506,0.667691304907425
819,46.246,45.83,1.35,0.5933610691573847,0.3643024881629545,0.5760306418618396,0.6294077690146104,0.48492740561553754,0.6660682733713617
820,46.307,45.88,1.39,0.5957042363098222,0.36613996327729165,0.5787823780452597,0.6280432450419593,0.4885684144182822,0.6644174569315603
821,46.369,45.94,1.4,0.5980551514775958,0.36794413693813777,0.5815237952033144,0.6266713976352333,0.4921833237300565,0.6627385048847837
822,46.452,45.99,1.41,0.6004138119913066,0.3697146467918951,0.5842547435935705,0.6252920046630568,0.4957715924586572,0.661031090141306
823,46.472,46.05,1.44,0.6027801972540331,0.3714511691314731,0.586975076782028,0.6239048560271078,0.49933270168496235,0.6592949096362379
824,46.533,46.1,1.45,0.6051542687191007,0.3731534191651968,0.5896846516347123,0.6225097539085603,0.5028661547455455,0.6575296847193086
825,46.574,46.16,1.45,0.6075359698921161,0.37482115124472576,0.5923833283113826,0.6211065130043053,0.5063714773037056,0.655735161522594
826,46.636,46.21,1.47,0.6099252263575333,0.37645415905095897,0.59507097026161,0.6196949607524187,0.5098482174094213,0.6539111113056596
827,46.698,46.27,1.48,0.6123219458299733,0.37805227573704286,0.5977474442234924,0.6182749375463769,0.5132959455487642,0.6520573307775726
828,46.739,46.32,1.46,0.6147260182304622,0.3796153740277423,0.600412620225305,0.6168462969375227,0.5167142546833171,0.6501736423952349
829,46.842,46.38,1.46,0.6171373157876852,0.3811433662745873,0.6030663715904041,0.6154089058253003,0.5201027602801511,0.6482598946374949
830,46.863,46.43,1.46,0.6195556931642824,0.38263620446636654,0.6057085749457093,0.6139626446348029,0.523461100332891,0.6463159622544945
831,46.905,46.49,1.43,0.6219809876081313,0.3840938801946805,0.608339110234071,0.612507407481214,0.5267889353743542,0.6443417464917257
832,46.968,46.54,1.43,0.624413019128486,0.38551642457437546,0.6109578607307782,0.6110431023207593,0.5300859484811771,0.642337175288275
833,47.029,46.6,1.47,0.6268515906967533,0.38690390811879316,0.6135647130643792,0.6095696510878343,0.5333518452707414,0.6403022034487406
834,47.071,46.65,1.47,0.6292964884715988,0.38825644056986786,0.616159557241886,0.6080869898180168,0.5365863538906165,0.638236812788292
835,47.193,46.71,1.47,0.631747482047986,0.38957417068318395,0.6187422866783371,0.6065950687567012,0.5397892250006376,0.6361410122502992
836,47.214,46.76,1.51,0.6342043247296971,0.3908572859681635,0.6213127982306149,0.6050938524531061,0.5429602317476708,0.6340148379959168
837,47.275,46.82,1.54,0.6366667538248509,0.3921060123835915,0.6238709922353679,0.603583319839408,0.5460991697330829,0.6318583534650009
838,47.296,46.87,1.56,0.6391344909639155,0.3933206139887299,0.6264167725508868,0.6020634642947571,0.5492058569729115,0.6296716494077713
839,47.358,46.93,1.58,0.6416072424397123,0.39450139255032934,0.628950046602803,0.6005342936939673,0.5522801338507393,0.6274548438867393
840,47.44,46.98,1.61,0.6440846995689283,0.3956486871058887,0.6314707254335119,0.5989958304407278,0.555321863063294,0.6252080822485099
841,47.48,47.04,1.61,0.6465665390746944,0.3967628734835372,0.6339787237552644,0.5974481114852145,0.5583309295588464,0.6229315370651701
842,47.564,47.09,1.6,0.6490524234898236,0.3978443637789501,0.6364739600069198,0.5958911883259895,0.5613072404685119,0.6206254080450495
843,47.585,47.15,1.64,0.6515420015803086,0.3988936057897743,0.6389563564143861,0.5943251269960647,0.5642507250305921,0.6182899219127119
844,47.625,47.2,1.64,0.6540349087886841,0.39991108240808876,0.6414258390548045,0.5927500080329583,0.5671613345081021,0.6159253322580933
845,47.686,47.26,1.62,0.6565307676968689,0.40089731097141246,0.6438823379245495,0.5911659264324889,0.5700390420996205,0.613531919354732
846,47.727,47.31,1.61,0.6590291885081448,0.40185284257271314,0.6463257870111135,0.5895729915859342,0.5728838428435786,0.6111099899470157
847,47.788,47.37,1.62,0.6615297695479401,0.40277826132981187,0.648756124368928,0.5879713272001124,0.5756957535160739,0.6086598770063448
848,47.849,47.42,1.62,0.6640320977830769,0.4036741836145572,0.6511732921991221,0.5863610711999074,0.5784748125222254,0.606181939456097
849,47.932,47.48,1.65,0.6665357493590965,0.4045412572421733,0.6535772369331645,0.5847423756127844,0.5812210797810075,0.6036765618653177
850,47.952,47.53,1.68,0.6690402901551964,0.4053801606212625,0.6559679093202739,0.5831154064348686,0.5839346366034108,0.601144154111138
851,48.014,47.59,1.7,0.6715452763562508,0.4061916018650712,0.6583452645184407,0.581480343478218,0.5866155855637124,0.5985851510099854
852,48.076,47.64,1.72,0.6740502550412911,0.40697631786481137,0.6607092621888828,0.5798373801989627,0.5892640503636116,0.5960000119177434
853,48.116,47.7,1.77,0.6765547647877383,0.40773507332605546,0.6630598665937544,0.5781867235060292,0.5918801756889961,0.593389220299077
854,48.178,47.75,1.78,0.6790583362905972,0.4084686597694294,0.6653970466969411,0.5765285935502129,0.5944641270591388,0.5907532832662201
855,48.24,47.81,1.8,0.6815604929957766,0.40917789449697933,0.667720776267784,0.5748632234934141,0.5970160906681814,0.5880927310875808
856,48.281,47.86,1.82,0.6840607517466648,0.4098636195256961,0.6700310339875588,0.5731908592579403,0.5995362732188224,0.5854081166665872
857,48.342,47.92,1.84,0.6865586234430651,0.41052670048977924,0.6723278035585096,0.5715117592558784,0.6020249017481893,0.5827000149912497
858,48.404,47.97,1.83,0.689053613711542,0.41116802551332804,0.674611073815221,0.5698261940986373,0.604482223445924,0.5799690225549853
859,48.467,48.03,1.83,0.6915452235861774,0.4117885040552719,0.6768808388380925,0.5681344462868573,0.6069085054645381,0.5772157567493332
860,48.509,48.08,1.83,0.6940329501986932,0.41238906572843875,0.6791370980686865,0.5664368098809675,0.6093040347221151,0.574440855229266
861,48.592,48.14,1.82,0.6965162874768915,0.4129706590946878,0.6813798564267202,0.5647335901527123,0.6116691176974139,0.5716449752518821
862,48.655,48.19,1.81,0.6989947268503742,0.4135342504380263,0.6836091244284712,0.5630251032179526,0.6140040802174035,0.5688287929893315
863,48.676,48.25,1.84,0.7014677579624561,0.4140808225176634,0.6858249183063414,0.5613116756510522,0.616309267237186,0.5659930028168851
