,Time_Host,Time_Arduino,easingdata,CH1_Oxy,CH1_Deoxy,CH2_Oxy,CH2_Deoxy,CH3_Oxy,CH3_Deoxy
0,1.446,0.04,0.0,0.674065907679155,0.4104221094542143,1.0,0.2159343344073993,0.2324268281352203,1.0
1,1.466,0.1,0.0,0.6738098823971133,0.4192220344972792,0.9892931499571578,0.22924147438742398,0.2371156492259106,0.9882788273989549
2,1.487,0.15,0.0,0.6735576723495089,0.4280297282818949,0.9786326428246044,0.24250419219072322,0.24179493688883,0.9766474981921558
3,1.508,0.21,0.0,0.6733094765302234,0.4368422336433718,0.968022775890698,0.25571746254471434,0.24646310624662982,0.9651105377081711
4,1.53,0.26,0.0,0.6730654941204296,0.4456565979993317,0.957467803338416,0.2688763080892975,0.25111858813485194,0.9536723846173996
5,1.549,0.32,0.0,0.6728259243693019,0.45446987572606795,0.9469719324333693,0.2819758037261586,0.2557598304192738,0.9423373870839563
6,1.57,1.06,0.0,0.6725909664723227,0.46327913050825204,0.9365393197819983,0.29501108088574113,0.26038529928048276,0.9311097990641147
7,1.591,1.11,0.0,0.6723608194469791,0.4720814376591484,0.9261740676643625,0.3079773317072122,0.26499348046422205,0.9199937767554502
8,1.632,1.17,0.0,0.672135682005645,0.48087388640856493,0.9158802204457618,0.32086981312694374,0.26958288049613194,0.9089933752005019
9,1.713,1.22,0.0,0.6719157524254316,0.48965358215582067,0.9056617610712842,0.33368385087121055,0.2741520278595821,0.89811254504842
10,1.754,1.28,-0.06,0.6717012284147823,0.4984176486850613,0.8955226076472214,0.34641484334897354,0.2786994741353615,0.8873551294777575
11,1.814,1.33,-0.02,0.6714923069765896,0.507163230340294,0.8854666101131744,0.35905826544076885,0.28322379510205,0.8767248612832769
12,1.875,1.39,0.07,0.6712891842676109,0.515887494157572,0.8754975470085511,0.3716096721798454,0.2877235917959417,0.8662253601294302
13,1.917,1.45,0.02,0.6710920554539701,0.5245876319518924,0.8656191223370219,0.3840647023218299,0.2921974915294249,0.8558601299730239
14,1.978,1.5,0.02,0.6709011145625333,0.5332608623566144,0.8558349625322949,0.3964190817993807,0.29664414886677426,0.845632556657386
15,2.018,1.55,0.13,0.6707165543279678,0.5419044328134548,0.8461486135283068,0.40866862705850915,0.30106224655640024,0.835545905680031
16,2.059,1.61,0.15,0.6705385660353467,0.5505156215112578,0.836563537936643,0.42080924827344607,0.30545049641870636,0.8256033201353801
17,2.12,1.66,0.09,0.6703673393582475,0.5590917392717248,0.8270831123337263,0.43283695243710746,0.3098076401888129,0.8158078188336532
18,2.224,1.72,0.17,0.6702030621923837,0.5676301313802412,0.817710624660042,0.4447478463244168,0.31413245031352405,0.8061622945965834
19,2.244,1.77,0.22,0.6700459204848993,0.576128179359907,0.8084492717334544,0.45653813932594756,0.31842373070204244,0.7966695127301142
20,2.285,1.83,0.12,0.669896098059562,0.5845833026869107,0.7993021568785394,0.46820414614954436,0.3226803174300578,0.7873321096737969
21,2.348,1.88,0.14,0.6697537764381479,0.5929929604454771,0.7902722876737099,0.4797422893878081,0.3269010793969396,0.7781525918262546
22,2.409,1.94,0.22,0.6696191346583773,0.6013546529207868,0.7813625738177025,0.4911491019496229,0.3310849189358567,0.7691333345458069
23,2.492,2.0,0.19,0.6694923490887595,0.609665923128451,0.7725758251167891,0.5024212293541997,0.3352307723767079,0.7602765813251174
24,2.513,2.05,0.16,0.6693735932406875,0.6179243582793424,0.7639147495938382,0.5135554318863987,0.3393376105617879,0.7515844431385413
25,2.554,2.1,0.26,0.669263037578027,0.6261275911788046,0.7553819517201,0.5245485866123505,0.3434044393141584,0.743058897960564
26,2.616,2.16,0.28,0.669160849324379,0.6342733015594495,0.7469799307703656,0.535397689254596,0.34743029985875606,0.7347017904533362
27,2.679,2.21,0.26,0.6690671922681041,0.6423592173469159,0.7387110793019437,0.5460998559261079,0.3514142691963437,0.7265148318208866
28,2.742,2.27,0.34,0.6689822265651632,0.6503831158581481,0.730577681757698,0.5566523247227103,0.35535546043050115,0.718499599827195
29,2.784,2.33,0.38,0.6689061085398433,0.6583428249319159,0.7225819131932407,0.5670524571735612,0.3592530230479585,0.7106575389748991
30,2.887,2.38,0.31,0.6688389904835118,0.6662362239913922,0.7147258381282997,0.5772977395494936,0.3631061431526919,0.7029899608410433
31,2.908,2.43,0.36,0.6687810204516592,0.6740612450386655,0.7070114095222343,0.587385784029163,0.3669140436543147,0.6954980445660163
32,2.949,2.49,0.43,0.6687323420595932,0.6818158735811346,0.6994404678736007,0.5973143297231703,0.37067598441140204,0.688182837491678
33,3.01,2.54,0.4,0.6686930942772435,0.6894981494898436,0.6920147404435517,0.6070812435566009,0.3743912623304749,0.6810452559446126
34,3.071,2.6,0.37,0.6686634112235827,0.6971061677900146,0.6847358406026792,0.6166845210107087,0.3780592114214451,0.674086086160387
35,3.111,2.65,0.46,0.6686434219611701,0.704638079384288,0.6776052673006857,0.6261222867247558,0.38167920281039763,0.6673059853445449
36,3.173,2.71,0.45,0.6686332502913032,0.7120920917094203,0.6706244046581186,0.6353927949591824,0.385250644710665,0.6607054828658082
37,3.235,2.77,0.35,0.6686330145502138,0.71946646932736,0.6637945216793045,0.6444944299213377,0.38877298235321395,0.6542849815766505
38,3.297,2.82,0.37,0.6686428274066984,0.7267595344517342,0.6571167720855241,0.6534257059550126,0.39224569787741415,0.6480447592561276
39,3.338,2.87,0.39,0.668662795661534,0.7339696674107977,0.6505921942673528,0.662185267595051,0.3956683101832951,0.6419849701696327
40,3.399,2.93,0.34,0.6686930200490305,0.7410953070478312,0.6442217113549676,0.6707718894883874,0.3990403747463931,0.6361056467402132
41,3.5,2.98,0.37,0.6687335950410508,0.7481349510599123,0.6380061314050633,0.679184476183029,0.40236148339625316,0.6304067013262238
42,3.52,3.04,0.45,0.668784608653805,0.7550871562760054,0.63194614770286,0.6874220617867371,0.40563126405961936,0.6248879281002602
43,3.601,3.1,0.43,0.6688461422577001,0.76195053887544,0.6260423391775374,0.6954838094973897,0.4088493804693236,0.6195490050244251
44,3.621,3.15,0.42,0.6689182703905144,0.7687237745480654,0.6202951709292926,0.7033690110072213,0.4120155318399013,0.6143894959170167
45,3.662,3.2,0.52,0.6690010605741833,0.7754055985976234,0.6147049948660488,0.7110770857833262,0.41512945251099875,0.6094088526056755
46,3.723,3.26,0.48,0.669094573135516,0.7819948059900781,0.6092720504477076,0.7186075802269117,0.41819091155969873,0.6046064171619175
47,3.765,3.31,0.42,0.6691988610311917,0.7884902513487774,0.6039964655357486,0.7259601667138099,0.4211997123829468,0.5999814242118527
48,3.827,3.37,0.5,0.6693139696773963,0.7948908488983749,0.5988782573458629,0.7331346425187822,0.42415569225131267,0.5955330033178078
49,3.888,3.42,0.51,0.6694399367844991,0.8011955723594254,0.593917333501183,0.7401309286262557,0.42705872183535204,0.5912601814255749
50,3.97,3.48,0.43,0.6695767921972008,0.8074034547955058,0.5891134931835132,0.7469490684303045,0.4299087047058485,0.5871618853721485
51,3.99,3.54,0.47,0.6697245577405928,0.8135135884147212,0.5844664283797568,0.7535892263269783,0.4327055768092135,0.5832369444490361
52,4.053,3.59,0.52,0.6698832470725232,0.819525124327571,0.5799757252205328,0.7600516862024103,0.43544930591932035,0.5794840930164389
53,4.115,3.64,0.45,0.6700528655426123,0.8254372722633052,0.5756408654078207,0.7663368498204088,0.43813989106703977,0.5759019731638007
54,4.176,3.7,0.43,0.6702334100581917,0.8312493002470656,0.5714612277283602,0.772445235113442,0.44077736194872524,0.5724891374123952
55,4.217,3.75,0.52,0.6704248689573682,0.8369605342401937,0.567436089649438,0.7783774743810493,0.44336177831487394,0.5692440514557624
56,4.257,3.81,0.48,0.6706272218893469,0.8425703577460993,0.5635646289936765,0.7841343123997274,0.44589322934016123,0.5661650969338635
57,4.339,3.87,0.41,0.670840439702074,0.848078211383946,0.5598459256894786,0.7897166044482073,0.4483718329760126,0.5632505742368316
58,4.381,3.92,0.49,0.6710644843372258,0.8534835924321866,0.5562789635938924,0.7951253142518255,0.45079773528685085,0.5604987053341671
59,4.442,3.98,0.54,0.6712993087325965,0.8587860543436306,0.5528626323847964,0.8003615118494759,0.45317110977112696,0.5579076366252363
60,4.504,4.03,0.45,0.6715448567320218,0.8639852062333578,0.5495957295194235,0.8054263713864961,0.4554921566682122,0.5554754418070991
61,4.566,4.08,0.53,0.6718010630030686,0.869080712340578,0.5464769622562929,0.8103211688368709,0.45776110225219796,0.5532001247559951
62,4.606,4.14,0.61,0.6720678529627941,0.8740722914654964,0.5435049497376321,0.8150472796582466,0.4599781981136379,0.5510796224191286
63,4.689,4.2,0.58,0.6723451427119393,0.8789597163823462,0.540678225129421,0.819606176383343,0.46214372043027635,0.5491118077136417
64,4.71,4.25,0.56,0.6726328389779305,0.8837428132299439,0.5379952378162149,0.8239994261513947,0.4642579692278264,0.5472944924298501
65,4.772,4.3,0.65,0.6729308390670933,0.8884214608812949,0.535454355647866,0.8282286881832815,0.4663212676319048,0.5456254301358471
66,4.834,4.36,0.62,0.6732390308265136,0.8929955902938582,0.5330538672352576,0.8322957112039757,0.4683339611122731,0.5441023190805023
67,4.876,4.41,0.53,0.6735572926160341,0.8974651838420237,0.5307919842921879,0.8362023308158321,0.470296416720564,0.5427228050917953
68,4.939,4.47,0.61,0.6738854932909171,0.9018302746332046,0.5286668440205793,0.8399504668261473,0.472209022322678,0.541484484467361
69,5.001,4.53,0.65,0.6742234921957568,0.9060909458086962,0.5266765115362682,0.8435421205322827,0.47407218582702904,0.540384906854126
70,5.064,4.58,0.51,0.6745711391702756,0.9102473298302044,0.5248189823327275,0.8469793719675521,0.4758863344097796,0.5394215781140258
71,5.084,4.63,0.53,0.6749282745676068,0.9142996077528116,0.5230921847801332,0.8502643771110434,0.4776519137381597,0.5385919631729968
72,5.146,4.69,0.6,0.6752947292856053,0.9182480084851731,0.5214939826572105,0.8533993650645997,0.47936938719291,0.5378934888506635
73,5.208,4.75,0.54,0.6756703248115906,0.9220928080378219,0.5200221777133452,0.8563866352002086,0.48103923509082197,0.5373235466684094
74,5.249,4.8,0.53,0.6760548732808068,0.9258343287605713,0.518674512258541,0.8592285542809693,0.4826619539082597,0.5368794956338294
75,5.311,4.86,0.66,0.6764481775487343,0.9294729385700728,0.5174486717789015,0.8619275535586352,0.48423805550647286,0.5365586649997685
76,5.433,4.91,0.66,0.6768500312773021,0.9330090501685455,0.5163422875754524,0.8644861258504796,0.48576806635946074,0.5363583569962259
77,5.453,4.96,0.6,0.6772602190349942,0.9364431202545067,0.5153529394242362,0.8669068225979615,0.487252526785123,0.5362758495333672
78,5.494,5.02,0.69,0.6776785164108222,0.9397756487261224,0.5144781582556844,0.8691922509094379,0.48869199018044807,0.5363083988737694
79,5.556,5.08,0.71,0.6781046901421336,0.9430071778776072,0.5137154288513134,0.8713450705890092,0.4900870222615158,0.5364532422718844
80,5.596,5.13,0.61,0.6785384982562243,0.9461382915890223,0.5130621925558051,0.8733679911535084,0.4914382003091157,0.536707600578631
81,5.658,5.18,0.67,0.6789796902256896,0.9491696145098888,0.5125158500024334,0.8752637688397995,0.4927461124207875,0.5370686808091073
82,5.718,5.24,0.76,0.679428007137432,0.9521018112371429,0.5120737638495801,0.8770352036048764,0.49401135677008023,0.537533678671604
83,5.803,5.29,0.7,0.6798831818752514,0.9549355854880593,0.5117332615258459,0.8786851361216269,0.49523454087380764,0.538099781056376
84,5.823,5.35,0.67,0.6803449393159519,0.957671679268839,0.5114916379809697,0.8802164447734919,0.4964162808680494,0.5387641684829021
85,5.864,5.41,0.78,0.6808129965389045,0.9603108720396015,0.511346158439525,0.8816320426515394,0.4975572007936456,0.5395240175044682
86,5.926,5.46,0.75,0.6812870630489876,0.9628539798764939,0.5112940611542294,0.8829348745575883,0.4986579318919331,0.5403765030688288
87,5.967,5.51,0.65,0.6817668410127995,0.9653018546315358,0.5113325601557509,0.8841279140169088,0.4997191119114686,0.5413188008335248
88,6.049,5.57,0.74,0.6822520255079709,0.9676553830906713,0.5114588479959751,0.8852141603037926,0.5007413844264704,0.5423480894342257
89,6.09,5.62,0.76,0.6827423047853692,0.9699154861302524,0.5116700984818137,0.8861966354830466,0.5017253981676854,0.5434615527042758
90,6.173,5.68,0.67,0.6832373605439653,0.9720831178718953,0.5119634693967599,0.887078381470252,0.5026718063663436,0.5446563818435595
91,6.193,5.74,0.73,0.6837368682181296,0.974159264835438,0.5123361052074913,0.8878624571135529,0.5035812661118052,0.5459297775348548
92,6.255,5.79,0.79,0.6842404972771164,0.976144945089611,0.5127851397529666,0.8885519352996937,0.5044544377234519,0.5472789520059698
93,6.297,5.84,0.74,0.6847479115364996,0.9780412074000501,0.5133076989136642,0.8891499000869597,0.5052919841373333,0.5487011310361394
94,6.359,5.9,0.71,0.6852587694812884,0.9798491303744429,0.5139009032588169,0.8896594438675581,0.5060945703080494,0.5501935559053891
95,6.42,5.95,0.84,0.6857727246004087,0.9815698216048284,0.5145618706696039,0.8900836645618578,0.5068628626263287,0.5517534852857354
96,6.48,6.01,0.82,0.6862894257322003,0.9832044168072323,0.5152877189363682,0.8904256628467586,0.5075975283527608,0.5533781970731707
97,6.542,6.07,0.74,0.6868085174205647,0.9847540789588598,0.5160755683280263,0.8906885394202104,0.5082992350681277,0.5550649901593937
98,6.583,6.12,0.82,0.6873296402813851,0.9862199974330449,0.5169225441319834,0.8908753923036129,0.5089686501407766,0.556811186142225
99,6.667,6.17,0.83,0.6878524313788519,0.9876033871320925,0.517825779163022,0.890989314183537,0.5096064402114858,0.558614130973582
100,6.687,6.23,0.72,0.6883765246113439,0.9889054876180787,0.5187824162397815,0.8910333897940024,0.510213270696259,0.5604711965439004
101,6.769,6.29,0.74,0.6889015511065455,0.9901275622416569,0.5197896106274812,0.8910106933405234,0.5107898053074501,0.5623797822020087
102,6.79,6.34,0.79,0.6894271396254466,0.9912708972689919,0.5208445324454993,0.8909242859672412,0.5113367055935693,0.5643373162096574
103,6.849,6.39,0.71,0.6899529169748234,0.9923368010070733,0.5219443690383613,0.8907772132685773,0.5118546304980385,0.566341257130161
104,6.911,6.45,0.66,0.6904785084276847,0.9933266029277855,0.5230863273086138,0.8905725028469168,0.5123442359370837,0.5683890951508876
105,6.952,6.5,0.78,0.6910035381510651,0.9942416527911722,0.5242676360099526,0.8903131619178614,0.5128061743968548,0.5704783533395413
106,7.013,6.56,0.74,0.6915276296404737,0.9950833197682134,0.5254855479988969,0.8900021749645317,0.5132410945497817,0.5726065888343019
107,7.076,6.62,0.68,0.6920504061602439,0.9958529915632133,0.5267373424432575,0.8896425014422649,0.5136496408900852,0.5747713939679742
108,7.137,6.67,0.77,0.6925714911889933,0.9965520735356294,0.5280203269856258,0.8892370735348922,0.5140324533883003,0.5769703973263723
109,7.177,6.72,0.83,0.6930905088694037,0.9971819878209245,0.5293318398601202,0.8887887939637052,0.5143901671646194,0.5792012647412531
110,7.258,6.78,0.74,0.6936070844616055,0.997744172449804,0.5306692519606219,0.8883005338502661,0.5147234121808282,0.5814617002182733
111,7.342,6.83,0.79,0.6941208447995264,0.9982400804650993,0.5320299688585827,0.8877751306345664,0.5150328129505786,0.583749446800691
112,7.362,6.89,0.88,0.6946314187496666,0.9986711790355706,0.533411432768226,0.8872153860505376,0.5153189882677361,0.5860622873697279
113,7.403,6.95,0.8,0.6951384376718238,0.9990389485660025,0.5348111244568077,0.8866240641612625,0.5155825509525443,0.5883980453826541
114,7.465,7.0,0.79,0.6956415358813444,0.9993448818030992,0.5362265650975946,0.8860038894562968,0.5158241076153444,0.5907545855497506
115,7.508,7.05,0.89,0.6961403511124924,0.999590482936821,0.5376553180633471,0.885357545013355,0.5160442584375923,0.5931298144513099
116,7.568,7.11,0.86,0.6966345249825568,0.999777266696829,0.5390949906582616,0.884687670726351,0.5162435969699037,0.5955216810957521
117,7.648,7.16,0.8,0.697123703456339,0.9999067574436339,0.5405432357865071,0.8839968616015125,0.516422709946844,0.59792817741985
118,7.689,7.22,0.88,0.6976075373106633,0.9999804882539809,0.5419977535555979,0.8832876661230624,0.5165821771181545,0.600347338731984
119,7.749,7.28,0.91,0.6980856825985439,1.0,0.5434562928129271,0.8825625846898223,0.5167225710961031,0.6027772440992909
120,7.81,7.33,0.8,0.6985578011125795,0.9999668404217632,0.5449166526138691,0.8818240681239523,0.5168444572186202,0.60521601667958
121,7.852,7.38,0.81,0.6990235608470383,0.9998825631931766,0.5463766836199293,0.8810745162529917,0.5169483934278588,0.6076618239989363
122,7.913,7.44,0.9,0.6994826364579264,0.9997487269815454,0.5478342894254701,0.88031627656634,0.5170349301637932,0.6101128781759727
123,7.955,7.5,0.84,0.6999347097201675,0.9995668945015121,0.549287427811645,0.8795516429472848,0.5171046102724255,0.6125674360937359
124,7.996,7.55,0.79,0.7003794699808694,0.9993386315643562,0.550734111926261,0.8787828544815683,0.5171579689281176,0.6150237995203398
125,8.057,7.61,0.91,0.7008166146075344,0.9990655061238326,0.5521724113883538,0.8780120943433434,0.5171955335695098,0.617480315179425
126,8.119,7.66,0.89,0.7012458494300183,0.9987490873197862,0.5536004533163141,0.8772414887591771,0.5172178238484543,0.6199353747715616
127,8.202,7.71,0.86,0.701666889175053,0.9983909445207275,0.5550164232784218,0.8764731060506199,0.51722535159136,0.6223874149477718
128,8.243,7.77,0.96,0.70207945789218,0.9979926463664733,0.5564185661645877,0.8757089557558082,0.5172186207723268,0.6248349172364508
129,8.283,7.83,1.01,0.7024832893700232,0.9975557598118138,0.5578051869780786,0.8749509878305645,0.517198127497452,0.6272764079250346
130,8.385,7.88,0.94,0.702878127541949,0.9970818491720298,0.5591746515461757,0.8742010919293187,0.5171643599997191,0.6297104578978189
131,8.407,7.93,0.95,0.7032637268802916,0.9965724751710112,0.5605253871491551,0.8734610967658575,0.5171177986439163,0.6321356824313925
132,8.446,7.99,1.03,0.7036398527784262,0.9960291939928007,0.5618558830675616,0.8727327695534862,0.517058915941081,0.6345507409491807
133,8.508,8.05,0.97,0.7040062819200408,0.9954535563375366,0.5631646910483346,0.872017815523783,0.5169881765720064,0.6369543367366297
134,8.588,8.1,0.92,0.7043628026349825,0.994847106482941,0.5644504256907037,0.8713178775228273,0.5169060374193553,0.6393452166185857
135,8.628,8.16,1.01,0.7047092152410535,0.9942113813526076,0.565711764752949,0.8706345356836094,0.5168129476079251,0.6417221706003992
136,8.67,8.21,0.98,0.7050453323710939,0.9935479095923831,0.5669474493811726,0.8699693071731968,0.516709348552602,0.6440840314741861
137,8.73,8.27,0.89,0.7053709792846458,0.9928582106560655,0.5681562842612013,0.8693236460131635,0.5165956740135129,0.6464296743916222
138,8.791,8.32,0.97,0.7056859941633906,0.9921437939016307,0.5693371376946228,0.8686989429718315,0.516472350157852,0.6487580164046628
139,8.853,8.38,1.02,0.7059902283894823,0.991406157699152,0.5704889415998461,0.8680965255269912,0.5163397956278242,0.6510680159756709
140,8.913,8.43,0.9,0.7062835468058326,0.9906467885515657,0.5716106914390516,0.8675176578978628,0.516198421614108,0.6533586724586106
141,8.956,8.49,0.93,0.7065658279573956,0.9898671602293904,0.5727014460719164,0.8669635411452002,0.5160486319342065,0.6556290255531788
142,9.016,8.54,1.06,0.7068369643125569,0.9890687329203988,0.5737603275370556,0.8664353133385907,0.5158908231150339,0.6578781547339515
143,9.117,8.6,1.03,0.7070968624638475,0.9882529523950919,0.5747865207622522,0.8659340497900728,0.5157253844790748,0.660105178656785
144,9.137,8.65,1.0,0.7073454433073241,0.9874212491886919,0.5757792732046562,0.8654607633531907,0.5155526982334422,0.6623092545448174
145,9.179,8.71,1.11,0.707582642200043,0.9865750378003371,0.5767378944221838,0.8650164047865361,0.5153731395611967,0.6644895775563382
146,9.241,8.76,1.11,0.7078084090951318,0.9857157159100836,0.5776617555773523,0.8646018631807106,0.5151870767143459,0.6666453801365184
147,9.282,8.82,1.05,0.7080227086540295,0.9848446636142391,0.5785502888747737,0.8642179664474774,0.5149948711080096,0.6687759313546989
148,9.364,8.87,1.13,0.7082255203355117,0.9839632426795064,0.5794029869335187,0.8638654818697223,0.514796877415288,0.6708805362287331
149,9.384,8.93,1.17,0.7084168384611744,0.9830727958164435,0.5802194020956387,0.8635451167107036,0.5145934436624374,0.6729585350377852
150,9.488,8.98,1.09,0.7085966722571183,0.9821746459727627,0.5809991456724125,0.8632575188807965,0.5143849113239933,0.6750093026249979
151,9.509,9.04,1.07,0.7087650458716517,0.9812700956470259,0.581741887130365,0.8630032776595356,0.5141716154175359,0.6770322476914897
152,9.551,9.09,1.16,0.7089219983689226,0.9803604262233019,0.5824473532196626,0.8627829244702817,0.5139538845978249,0.6790268120831532
153,9.613,9.15,1.11,0.7090675836984648,0.9794468973273448,0.5831153270479917,0.862596933704417,0.5137320412500596,0.6809924700716994
154,9.674,9.2,1.04,0.7092018706406926,0.9785307462048413,0.5837456471033126,0.8624457235917239,0.5135064015820134,0.6829287276313781
155,9.737,9.26,1.14,0.7093249427283854,0.9776131871222485,0.5843382062289273,0.8623296571135285,0.5132772757147935,0.6848351217127109
156,9.777,9.31,1.16,0.709436898144203,0.9766954107906123,0.5848929505542373,0.8622490429551474,0.513044967771965,0.6867112195143953
157,9.879,9.37,1.06,0.7095378495942589,0.975778583812548,0.5854098783844673,0.8622041364941111,0.5128097759667839,0.6885566177543466
158,9.899,9.42,1.16,0.7096279241577989,0.9748638481523303,0.585889039052564,0.8621951408205731,0.5125719926872765,0.6903709419406954
159,9.941,9.48,1.19,0.7097072631130676,0.9739523206288586,0.5863305317364944,0.8622222077862665,0.5123319045789385,0.6921538456434675
160,10.002,9.53,1.11,0.7097760217395526,0.9730450924311472,0.5867345042452687,0.8622854390783646,0.5120897926248468,0.6939050097676633
161,10.043,9.59,1.11,0.7098343690968977,0.9721432286560038,0.5871011517770899,0.8623848873146889,0.511845932223022,0.6956241418285072
162,10.105,9.64,1.21,0.7098824877809117,0.9712477678676555,0.5874307156530778,0.8625205571568486,0.5116005932609067,0.6973109752296913
163,10.167,9.7,1.15,0.7099205736572108,0.9703597216791966,0.5877234820300622,0.8626924064379765,0.5113540401868618,0.6989652685454586
164,10.207,9.75,1.07,0.7099488355731618,0.9694800743557829,0.587979780595971,0.8629003473017098,0.5111065320785944,0.7005868048073775
165,10.268,9.81,1.2,0.7099674950488803,0.9686097824394972,0.5881999832513218,0.8631442473490212,0.5108583227084472,0.702175390796633
166,10.33,9.86,1.22,0.7099767859481317,0.9677497743956919,0.5883845027802288,0.8634239307894886,0.5106096606055072,0.7037308563425546
167,10.371,9.91,1.11,0.7099769541300398,0.9669009502804743,0.5885337915141751,0.8637391795936553,0.5103607891144931,0.705253053628026
168,10.432,9.97,1.19,0.7099682570825042,0.9660641814289903,0.5886483399915146,0.8640897346433947,0.5101119464514213,0.7067418565023371
169,10.514,10.03,1.2,0.7099509635382133,0.9652403101642186,0.5887286756153145,0.8644752968776295,0.5098633657560904,0.7081971598019283
170,10.576,10.08,1.07,0.7099253530741156,0.9644301495261027,0.5887753613118117,0.8648955284312687,0.5096152751414681,0.7096188786794734
171,10.596,10.14,1.05,0.7098917156951939,0.9636344830209709,0.5887889941913625,0.8653500537658791,0.5093678977400866,0.7110069479418406
172,10.658,10.19,1.13,0.7098503514033453,0.9628540643913538,0.5887702042133572,0.8658384607912553,0.5091214517475322,0.7123613213976318
173,10.719,10.25,1.09,0.7098015697521224,0.9620896174064396,0.5887196528562753,0.8663603019775026,0.5088761504630721,0.7136819712151568
174,10.801,10.3,1.04,0.7097456893880182,0.9613418356734874,0.5886380317939193,0.8669150954573934,0.5086322023273945,0.714968887291803
175,10.821,10.36,1.17,0.7096830375789149,0.9606113824704868,0.5885260615787961,0.8675023261187048,0.5083898109573858,0.7162220766357238
176,10.862,10.41,1.19,0.7096139497303035,0.9598988906001529,0.5883844903335506,0.8681214466861125,0.5081491751778643,0.7174415627605768
177,10.945,10.47,1.09,0.709538768889907,0.9592049622650899,0.5882140924512849,0.8687718787921251,0.5079104890501988,0.7186273850938215
178,11.007,10.52,1.18,0.709457845241372,0.9585301689638088,0.588015667305427,0.8694530140365753,0.5076739418978006,0.7197795983988973
179,11.047,10.58,1.24,0.7093715355877258,0.9578750514072762,0.5877900379696078,0.8701642150344052,0.507439718328541,0.7208982722114562
180,11.089,10.63,1.16,0.7092802028253725,0.9572401194557233,0.5875380499477354,0.8709048164518635,0.5072079982542115,0.7219834902897724
181,11.152,10.69,1.13,0.7091842154094826,0.9566258520755444,0.5872605699140324,0.8716741260318305,0.5069789569072072,0.7230353500794376
182,11.211,10.74,1.22,0.7090839468117244,0.9560326973162299,0.5869584844623398,0.8724714256096693,0.506752764854662,0.7240539621924267
183,11.253,10.8,1.16,0.7089797749713946,0.9554610723073518,0.586632698863657,0.8732959721214655,0.5065295880103203,0.725039449900556
184,11.316,10.85,1.09,0.7088720817410772,0.954911363275647,0.586284135830747,0.8741469986066774,0.5063095876444411,0.7259919486433568
185,11.378,10.91,1.17,0.7087612523279984,0.9543839255822375,0.5859137342886137,0.8750237152071401,0.5060929203920461,0.7269116055503575
186,11.42,10.96,1.18,0.7086476747322615,0.9538790837799535,0.5855224481497273,0.875925310164162,0.505879738259816,0.7277985789777047
187,11.481,11.02,1.06,0.7085317391831142,0.9533971316906888,0.5851112450930083,0.8768509508152027,0.5056701886319402,0.7286530380589863
188,11.542,11.07,1.11,0.70841383757434,0.9529383325027381,0.5846811053457056,0.8777997845914073,0.5054644142752097,0.7294751622700643
189,11.602,11.13,1.15,0.7082943628997921,0.9525029188881708,0.5842330204674283,0.8787709400171388,0.5052625533436451,0.7302651410076889
190,11.685,11.18,1.05,0.7081737086900105,0.9520910931404422,0.5837679921358314,0.8797635277124725,0.5050647393829404,0.7310231731816806
191,11.705,11.24,1.02,0.7080522684507836,0.9517030273325847,0.5832870309338292,0.880776641399337,0.5048711013349851,0.7317494668205459
192,11.745,11.29,1.13,0.7079304351044381,0.9513388634964455,0.5827911551386712,0.8818093589116512,0.5046817635426996,0.7324442386904434
193,11.808,11.35,1.07,0.7078086004345984,0.9509987138234102,0.5822813895136306,0.8828607432094548,0.5044968457553942,0.7331077139274015
194,11.85,11.4,1.02,0.7076871545351278,0.9506826608869514,0.5817587641033133,0.8839298433967219,0.5043164631348274,0.7337401256826566
195,11.912,11.46,1.11,0.7075664852639959,0.9503907578870863,0.5812243130337141,0.8850156957422995,0.5041407262621179,0.7343417147809059
196,11.973,11.51,1.12,0.7074469777028839,0.9501230289164914,0.5806790733182327,0.886117324703157,0.5039697411456718,0.7349127293911403
197,12.056,11.57,1.02,0.7073290136234555,0.9498794692476462,0.5801240836709081,0.8872337439489554,0.5038036092302947,0.7354534247096411
198,12.096,11.62,1.1,0.7072129709612911,0.9496600456401413,0.5795603833280816,0.8883639573869299,0.5036424274076755,0.7359640626547068
199,12.138,11.68,1.14,0.7070992232985275,0.9494646966672535,0.5789890108796315,0.8895069601861572,0.5034862880284577,0.7364449115727252
200,12.199,11.73,1.07,0.7069881393562253,0.9492933330610628,0.5784110031110352,0.8906617398002711,0.5033352789161244,0.7368962459553238
201,12.26,11.79,1.05,0.7068800824974479,0.9491458380756903,0.5778273938578395,0.8918272769874914,0.5031894833829461,0.7373183461674728
202,12.32,11.84,1.14,0.7067754102419755,0.949022067868538,0.577239212874552,0.8930025468265427,0.5030489802482618,0.7377114981864829
203,12.362,11.9,1.08,0.7066744737935673,0.9489218518995461,0.5766474847203438,0.8941865197267377,0.5029138438593778,0.7380759933518524
204,12.446,11.95,1.02,0.7065776175806892,0.9488449933483929,0.5760532276641723,0.8953781624302533,0.5027841441153827,0.7384121281258865
205,12.467,12.01,1.1,0.7064851788116665,0.9487912695493089,0.5754574526119925,0.8965764390044542,0.5026599464941759,0.7387202038649083
206,12.548,12.06,1.1,0.7063974870452417,0.9487604324428263,0.5748611620586835,0.8977803118219914,0.5025413120830047,0.7390005266006656
207,12.568,12.12,0.96,0.7063148637775281,0.948752209043448,0.5742653490672293,0.8989887425263423,0.5024282976128064,0.7392534068313393
208,12.629,12.17,1.01,0.7062376220462844,0.948766301922017,0.5736709962775113,0.900200692980518,0.502320955496634,0.7394791593214013
209,12.692,12.23,1.08,0.7061660660533102,0.9488023897015458,0.5730790749468889,0.9014151261968285,0.5022193338724269,0.739678102909531
210,12.776,12.28,0.98,0.706100490805586,0.9488601275654347,0.5724905440245873,0.9026310072457988,0.502123476650361,0.7398505603238766
211,12.796,12.34,0.96,0.7060411817755825,0.9489391477773474,0.5719063492617588,0.9038473041425646,0.5020334235649685,0.7399968580041193
212,12.857,12.39,1.07,0.7059884145809979,0.9490390602124029,0.5713274223589193,0.9050629887093141,0.5019492102321941,0.7401173259299137
213,12.898,12.45,1.02,0.7059424546840832,0.949159452899586,0.5707546801524157,0.9062770374124088,0.50187086821154,0.7402122974552843
214,12.96,12.5,0.93,0.7059035571107101,0.9492998925753181,0.5701890238416619,0.9074884321726604,0.5017984250734357,0.740282109148488
215,13.023,12.56,1.02,0.7058719661893732,0.9494599252479755,0.5696313382590364,0.9086961611469531,0.5017319044719603,0.7403271006367143
216,13.063,12.61,1.03,0.7058479153104003,0.9496390767728751,0.5690824911844955,0.9098992194791019,0.5016713262230391,0.7403476144548281
217,13.145,12.66,0.9,0.7058316267057373,0.9498368534369974,0.5685433327069936,0.9110966100177339,0.50161670638822,0.7403439958973269
218,13.186,12.72,0.95,0.7058233112497109,0.9500527425526428,0.5680146946345934,0.9122873439992274,0.5015680573641077,0.7403165928727581
219,13.249,12.78,1.01,0.7058231682811281,0.9502862130593487,0.5674973899547449,0.9134704416943101,0.5015253879775122,0.7402657557600067
220,13.29,12.83,0.94,0.7058313854469908,0.9505367161336584,0.5669922123457587,0.9146449330175769,0.5014887035863321,0.7401918372660469
221,13.332,12.89,0.9,0.7058481385679579,0.9508036858066837,0.5664999357400021,0.9158098580998867,0.501458006186159,0.7400951922849667
222,13.394,12.94,0.97,0.7058735915255572,0.9510865395897352,0.5660213139388636,0.9169642678242159,0.5014332945225621,0.7399761777581679
223,13.456,13.0,0.9,0.7059078961710232,0.9513846791084914,0.5655570802792064,0.9181072243259376,0.501414564208993,0.7398351525356056
224,13.518,13.05,0.86,0.7059511922555617,0.9516974907462156,0.5651079473509153,0.9192378014585666,0.5014018078502197,0.7396724772378338
225,13.579,13.11,0.94,0.706003607381763,0.9520243462963874,0.5646746067651099,0.920355085225921,0.5013950151711523,0.7394885141185488
226,13.64,13.16,0.94,0.7060652569758558,0.9523646036248741,0.564257728972588,0.9214581741815371,0.5013941731508755,0.7392836269272702
227,13.701,13.22,0.83,0.7061362442804645,0.9527176073415189,0.5638579631319637,0.9225461797961412,0.5013992661616553,0.7390581807718495
228,13.721,13.27,0.9,0.706216660367518,0.9530826894809045,0.5634759370267446,0.9236182267941713,0.5014102761126472,0.7388125419806518
229,13.783,13.33,0.98,0.7063065841709322,0.9534591701920614,0.5631122570303075,0.9246734534606288,0.5014271825980121,0.7385470779644878
230,13.886,13.38,0.93,0.706406082538687,0.9538463584370022,0.5627675081174807,0.9257110119198859,0.5014499630491164,0.7382621570786517
231,13.906,13.44,0.91,0.7065152103038741,0.9542435526981531,0.5624422539211749,0.9267300683883828,0.5014785928904754,0.7379581484856506
232,13.948,13.49,1.02,0.7066340103742826,0.9546500416949201,0.5621370368322348,0.9277298034034237,0.5015130456991143,0.7376354220192504
233,14.01,13.55,0.97,0.70676251384011,0.955065105109648,0.5618523781405315,0.928709412030347,0.501553293367059,0.737294348050334
234,14.053,13.6,0.88,0.7069007400994436,0.9554880143230822,0.5615887782153104,0.9296681040501634,0.5015993062666982,0.7369352973548943
235,14.115,13.66,0.96,0.7070486970012378,0.9559180331591959,0.561346716722888,0.9306051041294827,0.5016510534187838,0.7365586409843383
236,14.177,13.71,0.99,0.7072063810055846,0.9563544186389041,0.561126652879889,0.931519651974235,0.5017085026628404,0.7361647501381995
237,14.259,13.77,0.87,0.7073737773611612,0.956796421741838,0.5609290257402597,0.9324110024685253,0.5017716208297404,0.7357539960393829
238,14.28,13.82,0.9,0.707550860299763,0.9572432881751015,0.5607542545142085,0.933278425799962,0.5018403739161696,0.735326749812191
239,14.343,13.88,0.97,0.7077375932478104,0.9576942591478588,0.5606027389170763,0.934121207572954,0.5019147272606891,0.7348833823634889
240,14.404,13.93,0.92,0.7079339290546338,0.9581485721507025,0.5604748595460686,0.9349386489116044,0.5019946457210673,0.7344242642674804
241,14.465,13.99,0.91,0.7081398102372036,0.9586054617389752,0.5603709782827536,0.9357300665538772,0.5020800938525194,0.7339497656546909
242,14.527,14.04,1.02,0.708355169240821,0.9590641603194652,0.5602914387192166,0.9364947929386953,0.5021710360864654,0.7334602561057308
243,14.608,14.1,0.99,0.7085799287151802,0.9595238989399942,0.5602365666057203,0.9372321762875487,0.5022674369094177,0.7329561045502355
244,14.628,14.15,0.95,0.7088140018051446,0.9599839080814233,0.5602066703176929,0.9379415806820252,0.5023692610416249,0.7324376791710857
245,14.69,14.21,1.02,0.7090572924555516,0.9604434184515315,0.5602020413398174,0.9386223861385342,0.5024764736151353,0.7319053473137315
246,14.711,14.26,1.07,0.7093096957293723,0.9609016617800926,0.5602229547649873,0.9392739886813641,0.502589040350981,0.7313594754002124
247,14.773,14.32,0.96,0.7095710981386008,0.9613578716143455,0.5602696698059638,0.9398958004151091,0.5027069277352316,0.7308004288473481
248,14.833,14.37,1.01,0.7098413779872633,0.9618112841140458,0.5603424303175838,0.9404872495974977,0.5028301031936915,0.7302285719885749
249,14.895,14.43,1.09,0.7101204057259546,0.9622611388454156,0.5604414653273632,0.9410477807137235,0.5029585352650563,0.729644267998986
250,14.955,14.48,1.01,0.7104080443173113,0.962706679573476,0.5605669895723113,0.941576854553491,0.5030921937723684,0.7290478788232864
251,15.017,14.54,0.96,0.7107041496118511,0.9631471550524386,0.5607192040397013,0.9420739482921394,0.5032310499926231,0.7284397651065473
252,15.038,14.59,1.05,0.711008570733594,0.9635818198140021,0.5608982965094397,0.942538555577342,0.5033750768243933,0.7278202861277294
253,15.1,14.65,1.03,0.7113211504748791,0.9640099349534611,0.5611044420956476,0.9429701866229215,0.5035242489533526,0.7271897997359456
254,15.162,14.7,0.95,0.7116417256997716,0.9644307689134681,0.561337803785139,0.9433683683111711,0.5036785430155662,0.7265486622894162
255,15.224,14.76,1.01,0.7119701277554449,0.9648435982651021,0.5615985329705637,0.9437326443048266,0.5038379377584059,0.725897228597026
256,15.265,14.81,1.01,0.7123061828909238,0.9652477084856028,0.5618867699760919,0.9440625751696138,0.5040024141989328,0.725235851862309
257,15.346,14.87,0.91,0.7126497126825679,0.9656423947318903,0.5622026445736024,0.9443577385081201,0.5041719557795773,0.7245648836296564
258,15.368,14.92,0.96,0.7130005344656087,0.9660269626088944,0.562546276487365,0.9446177291057379,0.5043465485209173,0.7238846737326188
259,15.429,14.98,1.05,0.7133584617709509,0.9664007289317877,0.5629177758851751,0.9448421590895444,0.5045261811713153,0.7231955702443377
260,15.491,15.03,0.98,0.713723304766358,0.9667630224813353,0.5633172438538916,0.9450306581010707,0.5047108453531409,0.7224979194303307
261,15.533,15.09,0.97,0.7140948707010769,0.9671131847517094,0.5637447728573163,0.9451828734839817,0.5049005357052744,0.7217920657040161
262,15.615,15.14,1.09,0.7144729643529382,0.9674505706902586,0.5642004471743004,0.9452984704877195,0.5050952500216019,0.7210783515853453
263,15.657,15.2,1.06,0.7148573884770023,0.9677745494287722,0.5646843433149246,0.9453771324881453,0.5052949893852403,0.7203571176627539
264,15.718,15.25,0.96,0.7152479442548575,0.968084505005803,0.5651965304125895,0.9454185612261162,0.5054997582982701,0.7196287025584058
265,15.781,15.31,1.04,0.715644431743717,0.9683798370796122,0.565737070589915,0.9454224770647571,0.5057095648067886,0.7188934428965337
266,15.863,15.36,1.08,0.7160466503245144,0.9686599616312719,0.5663060192965242,0.9453886192659321,0.5059244206211277,0.7181516732745993
267,15.885,15.41,0.97,0.7164543991482871,0.968924311657408,0.5669034256171881,0.9453167462860547,0.5061443412310894,0.7174037262371303
268,15.927,15.47,1.01,0.7168674775802172,0.9691723378520272,0.5675293325493359,0.945206636090945,0.506369346016046,0.7166499322523294
269,15.989,15.53,1.09,0.7172856856407879,0.969403509276888,0.5681837772495714,0.9450580864890098,0.5065994583497497,0.7158906196917907
270,16.05,15.58,1.04,0.7177088244435682,0.9696173140199303,0.5688667912493495,0.944870915481722,0.506834705699692,0.7151261148138273
271,16.092,15.64,1.0,0.7181366966291516,0.9698132598413779,0.5695784006401927,0.9446449616302813,0.5070751197208523,0.714356741750978
272,16.154,15.69,1.1,0.7185691067947486,0.9699908748072362,0.5703186262287794,0.9443800844374123,0.5073207363436856,0.7135828225021495
273,16.195,15.75,1.06,0.7190058619188933,0.9701497079098905,0.5710874836621223,0.944076164743296,0.5075715958562244,0.712804676929558
274,16.278,15.8,0.92,0.7194467717806944,0.9702893296753335,0.5718849835229863,0.9437331051345508,0.5078277429801845,0.7120226227602828
275,16.32,15.86,1.01,0.719891649373025,0.9704093327562946,0.5727111313956773,0.9433508303650731,0.5080892269409719,0.7112369755919316
276,16.382,15.91,1.03,0.720340311309047,0.9705093325102209,0.573565927902447,0.942929287787371,0.5083561015314746,0.7104480489016843
277,16.485,15.97,0.94,0.7207925782215062,0.9705889675607963,0.5744493687111341,0.9424684477926883,0.5086284251694767,0.7096561540579863
278,16.506,16.02,1.0,0.7212482751542767,0.9706479003415827,0.575361444515213,0.9419683042577622,0.5089062609484718,0.7088616003343314
279,16.547,16.07,1.08,0.7217072319456559,0.9706858176204718,0.5763021409880578,0.9414288749955864,0.5091896766816195,0.7080646949248424
280,16.61,16.13,1.03,0.7221692836029417,0.9707024310038039,0.5772714387137182,0.940850202207181,0.5094787449385664,0.7072657429616034
281,16.651,16.18,1.01,0.7226342706678274,0.9706974774191695,0.5782693130967069,0.9402323529312108,0.5097735430748672,0.7064650475338784
282,16.714,16.24,1.13,0.7231020395721793,0.9706707195759836,0.5792957342532237,0.9395754194882762,0.510074153253765,0.7056629097093592
283,16.777,16.3,1.09,0.7235724429837818,0.9706219464029251,0.5803506668860607,0.9388795199167362,0.5103806624601325,0.7048596285574761
284,16.819,16.35,1.01,0.7240453401416633,0.9705509734612789,0.5814340701452331,0.9381447983969605,0.5106931625064216,0.7040555011746207
285,16.902,16.41,1.09,0.7245205971806471,0.9704576433331277,0.5825458974761686,0.9373714256610691,0.5110117500305124,0.7032508227109636
286,16.922,16.46,1.12,0.7249980874448312,0.9703418259832165,0.5836860964571522,0.9365595993854761,0.5113365264853877,0.7024458863984244
287,16.966,16.51,1.01,0.7254776917897824,0.9702034190931502,0.5848546086276276,0.9357095445638617,0.511667598120572,0.7016409835793465
288,17.026,16.57,1.03,0.7259592988733109,0.9700423483664683,0.5860513693088478,0.934821513858608,0.5120050759552776,0.7008364037355341
289,17.088,16.62,1.09,0.7264428054347248,0.9698585678031071,0.5872763074181914,0.9338957879291552,0.5123490757431918,0.7000324345174243
290,17.15,16.68,1.0,0.7269281165624829,0.9696520599417745,0.5885293452783271,0.9329326757360624,0.5126997179288331,0.6992293617733003
291,17.191,16.73,0.97,0.7274151459501086,0.9694228360688151,0.5898103984222915,0.9319325148197435,0.5130571275953658,0.6984274695785995
292,17.272,16.79,1.09,0.7279038161401438,0.9691709363922469,0.5911193753954,0.9308956715529844,0.5134214344037401,0.6976270402654329
293,17.293,16.84,1.11,0.7283940587558124,0.9688964301796982,0.5924561775547958,0.9298225413664035,0.5137927725229813,0.696828354452417
294,17.354,16.9,1.06,0.7288858147199623,0.9685994158590523,0.5938206988673678,0.928713548945996,0.5141712805514417,0.6960316910748555
295,17.416,16.95,1.16,0.7293790344607469,0.9682800210807262,0.5952128257067155,0.9275691484018806,0.5145571014288319,0.6952373274152231
296,17.476,17.01,1.21,0.72987367810349,0.9679384027406374,0.5966324366498302,0.9263898234073654,0.5149503823389108,0.6944455391337586
297,17.598,17.07,1.12,0.7303697156482145,0.9675747469630117,0.5980794022741629,0.9251760873075258,0.5153512746027967,0.6936566002988503
298,17.618,17.12,1.12,0.7308671271324196,0.9671892690422765,0.5995535849556884,0.923928483196692,0.5157599335629417,0.6928707834168173
299,17.658,17.17,1.18,0.7313659027787791,0.9667822133434515,0.6010548386684678,0.9226475839645535,0.516176518457895,0.692088359460644
300,17.699,17.23,1.09,0.7318660431275386,0.9663538531606256,0.6025830087861351,0.9213339923108285,0.5166011922880243,0.6913095978972548
301,17.761,17.28,1.05,0.7323675591534455,0.9659044905333146,0.604137931885663,0.9199883407285956,0.5170341216723747,0.6905347667130372
302,17.803,17.34,1.18,0.7328704723670926,0.9654344560206723,0.605719435553616,0.9186112914564747,0.5174754766968253,0.6897641324374684
303,17.844,17.39,1.18,0.7333748149005948,0.9649441084336131,0.6073273381949962,0.917203536399847,0.5179254307536799,0.6889979601648184
304,17.926,17.45,1.06,0.733880629577568,0.9644338345248702,0.608961448844727,0.915765797021219,0.5183841603728113,0.6882365135739664
305,17.967,17.5,1.15,0.7343879699674024,0.9639040486369626,0.6106215669818098,0.9142988241997643,0.5188518450444788,0.6874800549463393
306,18.008,17.56,1.17,0.7348969004238431,0.9633551923079934,0.6123074823461899,0.9128033980600456,0.519328667033976,0.6867288451819024
307,18.069,17.61,1.07,0.7354074961079163,0.9627877338352291,0.6140189747583629,0.9112803277699926,0.5198148111882832,0.6859831438130951
308,18.131,17.67,1.05,0.7359198429952292,0.9622021677965332,0.6157558139416189,0.9097304513084584,0.5203104647348937,0.6852432090166968
309,18.193,17.73,1.17,0.7364340378676534,0.9615990145299411,0.6175177593466163,0.9081546352030438,0.5208158170729725,0.6845092976237258
310,18.234,17.78,1.12,0.7369501882893632,0.9609788195718586,0.6193045599777862,0.9065537742391414,0.5213310595569803,0.6837816651276076
311,18.296,17.83,1.08,0.7374684125671525,0.9603421530545591,0.6211159542209114,0.9049287911413133,0.521856385272861,0.6830605656909403
312,18.358,17.89,1.2,0.7379888396949125,0.9596896090637703,0.6229516696710294,0.9032806362281899,0.5223919888068889,0.6823462521511378
313,18.399,17.94,1.2,0.7385116092821591,0.9590218049571287,0.6248114229596128,0.901610287042125,0.5229380660072865,0.6816389760250007
314,18.462,18.0,1.12,0.7390368714665311,0.9583393806441652,0.6266949195797828,0.8999187479549032,0.5234948137387677,0.6809389875120241
315,18.524,18.05,1.19,0.7395647868102365,0.9576429978284213,0.6286018537080903,0.8982070497509459,0.5240624296302048,0.6802465354960426
316,18.585,18.11,1.24,0.7400955261804698,0.9569333392123066,0.6305319080212235,0.8964762491896533,0.5246411118156811,0.6795618675447291
317,18.668,18.16,1.13,0.7406292706138944,0.9562111076654285,0.6324847535060992,0.8947274285485339,0.5252310586692202,0.6788852299065182
318,18.689,18.22,1.15,0.7411662111653258,0.9554770253573506,0.634460049262179,0.8929616951485536,0.5258324685335162,0.6782168675047006
319,18.731,18.27,1.24,0.7417065487407996,0.9547318328560201,0.6364574422954173,0.8911801808627934,0.5264455394430005,0.677557023928603
320,18.792,18.33,1.18,0.7422504939152442,0.9539762881933529,0.6384765673037882,0.8893840416091703,0.5270704688415874,0.6769059414218944
321,18.834,18.39,1.12,0.7427982667350216,0.9532111658996159,0.6405170464546548,0.8875744568277563,0.5277074532954462,0.6762638608681174
322,18.895,18.44,1.21,0.7433500965055925,0.9524372560083265,0.6425784891543573,0.8857526289431361,0.528356688201154,0.6756310217734524
323,18.956,18.5,1.17,0.7439062215645532,0.9516553630333692,0.6446604918103832,0.8839197828121984,0.5290183674895927,0.67500766224654
324,19.039,18.55,1.1,0.7444668890402454,0.9508663049199663,0.6467626375864084,0.8820771651577536,0.5296926833259517,0.6743940189750218
325,19.081,18.6,1.17,0.745032354596082,0.9500709119711193,0.6488844961503542,0.8802260439884553,0.5303798258061752,0.6737903271984175
326,19.142,18.66,1.23,0.7456028821606683,0.9492700257511497,0.6510256234154871,0.878367708005597,0.5310799826501773,0.6731968206769708
327,19.183,18.71,1.15,0.7461787436437537,0.9484644979679897,0.6531855612746758,0.8765034659973465,0.5317933388921284,0.6726137316561746
328,19.246,18.77,1.18,0.7467602186380187,0.9476551893359515,0.6553638373282226,0.8746346462207674,0.5325200765681168,0.6720412908267418
329,19.308,18.82,1.26,0.7473475941067018,0.9468429684208254,0.6575599646061153,0.8727625957716789,0.5332603744015039,0.6714797272797731
330,19.39,18.88,1.18,0.7479411640571265,0.9460287104692208,0.6597734412859385,0.8708886799420904,0.5340144074863309,0.670929268456775
331,19.411,18.93,1.12,0.7485412292002855,0.9452132962240974,0.6620037504078742,0.8690142815647385,0.5347823469691572,0.6703901400940813
332,19.473,18.99,1.25,0.7491480965967453,0.9443976107283825,0.6642503595882245,0.8671408003441485,0.5355643597297333,0.6698625661610969
333,19.494,19.05,1.25,0.7497620792892552,0.9435825421184117,0.6665127207328213,0.865269652173543,0.5363606080609236,0.6693467687916949
334,19.556,19.1,1.14,0.7503834959225592,0.9427689804086734,0.6687902697516231,0.8634022684368393,0.5371712493482816,0.668842968208092
335,19.618,19.16,1.22,0.751012670351,0.9419578162691054,0.6710824262757167,0.8615400952950037,0.5379964357496883,0.668351382636553
336,19.679,19.21,1.31,0.7516499312345934,0.9411499397960515,0.6733885933779021,0.8596845929561041,0.5388363138754744,0.6678722282142996
337,19.78,19.26,1.2,0.7522956116243243,0.9403462392779667,0.675708157298187,0.8578372349283888,0.5396910244694747,0.667405718887016
338,19.8,19.32,1.16,0.7529500485374612,0.9395475999570513,0.6780404871758647,0.8559995072555217,0.5405607020914711,0.6669520662963697
339,19.862,19.37,1.24,0.7536135825236966,0.9387549027881485,0.6803849347903073,0.8541729077328026,0.5414454748015138,0.6665114796568703
340,19.902,19.43,1.17,0.7542865572229043,0.9379690231963626,0.6827408343129886,0.8523589451029293,0.542345463846622,0.6660841656212603
341,19.962,19.48,1.07,0.7549693189152438,0.9371908298349275,0.6851075020734385,0.8505591382297015,0.5432607833503436,0.6656703281335683
342,20.003,19.54,1.17,0.7556622160642656,0.9364211833448188,0.6874842363418031,0.8487750152480134,0.5441915400055954,0.6652701682689349
343,20.044,19.59,1.18,0.7563655988535771,0.9356609351174325,0.6898703171306392,0.8470081126883979,0.5451378327711403,0.6648838840592987
344,20.147,19.65,1.11,0.7570798187175359,0.9349109260614148,0.6922650060184914,0.845259974574303,0.5460997525719815,0.6645116703040529
345,20.167,19.7,1.17,0.7578052278663377,0.9341719853745591,0.6946675459976803,0.8435321514902826,0.5470773820038927,0.6641537183648548
346,20.208,19.76,1.22,0.7585421788057798,0.933444929321651,0.6970771613485851,0.8418261996194204,0.5480707950422783,0.6638102159438724
347,20.271,19.82,1.13,0.7592910238519506,0.9327305600192436,0.6994930575425934,0.8401436797485077,0.5490800567555522,0.6634813468449003
348,20.333,19.87,1.14,0.7600521146410932,0.9320296642285625,0.7019144211757106,0.8384861562398152,0.5501052230232246,0.6631672907170119
349,20.395,19.92,1.26,0.7608258016349264,0.9313430121580004,0.7043404199345951,0.8368551959686548,0.5511463402588903,0.6628682227806637
350,20.436,19.98,1.2,0.7616124336217643,0.9306713562768243,0.7067702025966086,0.8352523672261446,0.5522034451383055,0.6625843135363979
351,20.498,20.03,1.13,0.762412357213842,0.9300154301417732,0.7092028990653848,0.8336792385866225,0.5532765643327378,0.6623157284564533
352,20.56,20.09,1.22,0.7632259163412938,0.929375947238182,0.7116376204433704,0.8321373777390607,0.5543657142477718,0.6620626276596534
353,20.622,20.14,1.22,0.7640534517432717,0.9287535998371522,0.7140734591427623,0.8306283502817319,0.5554709007677692,0.6618251655699333
354,20.664,20.2,1.14,0.7648953004567103,0.9281490578701652,0.7165094890361887,0.8291537184793657,0.5565921190061602,0.661603490558927
355,20.748,20.25,1.22,0.7657517953032167,0.9275629678224737,0.7189447656482842,0.8277150399821941,0.5577293530617297,0.661397744573191
356,20.769,20.31,1.26,0.7666232643745036,0.9269959516466675,0.7213783263890466,0.8263138665065989,0.5588825757810366,0.6612080627468263
357,20.852,20.36,1.16,0.7675100305166901,0.926448605697902,0.7238091908296125,0.8249517424774457,0.5600517485271007,0.6610345730004441
358,20.873,20.42,1.15,0.768412410813684,0.925921499692416,0.7262363610208606,0.8236302036325747,0.5612368209544717,0.6608773956275611
359,20.935,20.48,1.28,0.769330716069749,0.9254151756910672,0.7286588218550472,0.8223507755902743,0.5624377307907991,0.6607366428695475
360,20.997,20.53,1.22,0.7702652502912565,0.9249301471096306,0.731075541470605,0.8211149723807313,0.5636544036249894,0.6606124184801763
361,21.058,20.58,1.15,0.7712163101675408,0.9244668977575277,0.7334854717002812,0.8199242949423935,0.5648867527020149,0.6605048172806857
362,21.119,20.64,1.28,0.7721841845507121,0.9240258809064646,0.735887548562837,0.8187802295840173,0.5661346787244144,0.6604139247060606
363,21.16,20.69,1.31,0.7731691539343059,0.9236075183901464,0.738280692798578,0.8176842464129573,0.567398069660523,0.6603398163430261
364,21.242,20.75,1.25,0.7741714899307025,0.9232121997358963,0.7406638104489744,0.8166377977301,0.5686768005594672,0.660282557460161
365,21.262,20.8,1.34,0.7751914547473441,0.922840281328788,0.7430357934805654,0.8156423163918145,0.5699707333729697,0.6602422025305422
366,21.325,20.86,1.41,0.776229300661829,0.9224920856088615,0.7453955204532413,0.814699214139396,0.5712797167840498,0.6602187947473053
367,21.388,20.91,1.32,0.7772852694960262,0.9221679003021135,0.7477418572328834,0.8138098798967037,0.5726035860427744,0.6602123655324841
368,21.449,20.97,1.33,0.7783595920893785,0.9218679776861849,0.750073657748108,0.8129756780370629,0.5739421628092655,0.6602229340395074
369,21.511,21.02,1.44,0.77945248777162,0.9215925338918909,0.7523897647905522,0.8121979466209724,0.575295255004246,0.6602505066497545
370,21.571,21.08,1.38,0.7805641638352291,0.9213417482418009,0.7546890108578578,0.8114779956065163,0.5766626566674319,0.6602950764636036
371,21.611,21.14,1.29,0.7816948150080817,0.9211157626269822,0.7569702190382523,0.8108171050346099,0.5780441478241141,0.6603566227864008
372,21.652,21.19,1.38,0.7828446229269053,0.9209146809227863,0.759232203935334,0.8102165231913879,0.5794394943602791,0.6604351106097035
373,21.693,21.25,1.38,0.7840137556122456,0.9207385684442855,0.7614737726313457,0.8096774647502217,0.5808484479066226,0.6605304900880765
374,21.755,21.3,1.25,0.785202366945724,0.920587451441707,0.7636937256869383,0.8092011088960742,0.5822707457317847,0.6606426960117772
375,21.816,21.35,1.32,0.7864105961503537,0.9204613166360498,0.7658908581751596,0.8087885974352345,0.583706110645087,0.6607716472758821
376,21.877,21.41,1.36,0.7876385672746488,0.9203601107950142,0.7680639607472814,0.8084410328938287,0.585154250909001,0.6609172463466751
377,21.981,21.46,1.29,0.7888863886811863,0.9202837403493833,0.7702118207281698,0.8081594766086653,0.5866148601615248,0.6610793787263984
378,22.002,21.52,1.3,0.790154152540195,0.9202320710500983,0.7723332232392178,0.8079449468138623,0.5880876173485761,0.6612579124177415
379,22.022,21.57,1.42,0.7914419343286743,0.9202049276663697,0.7744269523472389,0.8077984167264416,0.5895721866664704,0.6614526973896104
380,22.084,21.63,1.38,0.7927497923355392,0.9202020937251855,0.7764917922380301,0.8077208126337627,0.5910682175145228,0.661663565045798
381,22.146,21.68,1.33,0.7940777671733596,0.920223311292461,0.7785265284134708,0.807713011985422,0.5925753444578034,0.6618903276981564
382,22.187,21.74,1.41,0.795425881297348,0.9202682807959093,0.7805299489110427,0.8077758414920653,0.5940931872000901,0.6621327780457803
383,22.248,21.8,1.46,0.7967941385323811,0.9203366608894435,0.7825008455446474,0.807910075233455,0.5956213505670902,0.6623906886615774
384,22.351,21.85,1.36,0.798182523608947,0.9204280683586596,0.7844380151655528,0.8081164327780791,0.597159424500018,0.6626638114875948
385,22.371,21.91,1.44,0.7995910017089957,0.9205420780667455,0.7863402609421597,0.8083955773166747,0.5987069840596253,0.6629518773406134
386,22.413,21.96,1.52,0.8010195180227149,0.9206782229401065,0.7882063936570859,0.8087481138122623,0.6002635894407927,0.6632545954297316
387,22.475,22.01,1.45,0.8024679973172719,0.9208359939931053,0.7900352330198643,0.8091745871695566,0.6018287859978044,0.663571652887899
388,22.539,22.07,1.49,0.8039363435185306,0.9210148403915999,0.791825608993323,0.8096754804269857,0.6034021042804532,0.663902714319568
389,22.58,22.12,1.6,0.8054244393067207,0.9212141695552837,0.793576363131486,0.810251212974887,0.6049830600811545,0.664247421366701
390,22.701,22.18,1.54,0.8069321457270312,0.9214333472989891,0.79528634992672,0.8109021388036172,0.6065711544933073,0.6646053922952454
391,22.722,22.23,1.48,0.8084593018161212,0.9216716980130463,0.7969544381638466,0.8116285447852927,0.6081658739811785,0.6649762216038897
392,22.743,22.29,1.54,0.810005724245576,0.9219285048825528,0.7985795122789628,0.8124306489927312,0.609766690461646,0.6653594796564594
393,22.805,22.34,1.53,0.8115712069833647,0.9222030101450834,0.8001604737207124,0.8133085990590173,0.6113730613981687,0.6657547123388473
394,22.867,22.4,1.41,0.8131555209743467,0.9224944153861294,0.8016962423116994,0.814262470581032,0.612984429907342,0.6661614407410451
395,22.908,22.45,1.5,0.8147584138407775,0.9228018818714715,0.8031857576076077,0.8152922655703286,0.6146002248783582,0.6665791608647177
396,22.97,22.51,1.56,0.8163796096036277,0.9231245309157993,0.8046279802514081,0.8163979109549017,0.6162198611056411,0.6670073433567872
397,23.012,22.57,1.48,0.818018808425378,0.9234614442871028,0.8060218933198695,0.8175792571356298,0.6178427394348561,0.6674454332696441
398,23.073,22.62,1.46,0.819675686374842,0.9238116646466747,0.8073665036593746,0.8188360766014818,0.619468246922454,0.6678928498487978
399,23.134,22.67,1.58,0.8213498952144951,0.9241741960248436,0.808660843207826,0.8201680626078961,0.6210957570088761,0.668348986348866
400,23.197,22.73,1.53,0.8230410622107965,0.9245480043326814,0.8099039702992499,0.8215748279229468,0.6227246297055424,0.668813209878791
401,23.238,22.78,1.48,0.8247487899680209,0.9249320179098566,0.8110949709475929,0.8230559036459303,0.6243542117957152,0.6692848612771124
402,23.299,22.84,1.57,0.8264726562861493,0.9253251281086109,0.8122329601061502,0.8246107381029174,0.6259838370493247,0.6697632550180066
403,23.362,22.89,1.61,0.8282122140434172,0.9257261899135547,0.8133170828990913,0.8262386958236303,0.6276128264518374,0.6702476791486199
404,23.445,22.95,1.51,0.8299669911041505,0.9261340225967161,0.8143465158216366,0.8279390566038392,0.6292404884472367,0.6707373952580724
405,23.466,23.0,1.57,0.8317364902525349,0.9265474104071567,0.8153204679054612,0.8297110146574203,0.6308661191951894,0.6712316384784398
406,23.506,23.06,1.59,0.8335201891529348,0.9269651032944778,0.8162381818459081,0.8315536778622572,0.632489002842473,0.6717296175179938
407,23.567,23.11,1.51,0.8353175403373315,0.9273858176656766,0.8170989350877339,0.8334660671041101,0.6341084118087341,0.6722305147270478
408,23.671,23.17,1.49,0.8371279712203791,0.9278082371749901,0.8179020408664137,0.8354471157223651,0.6357236070866252,0.6727334861968916
409,23.692,23.23,1.58,0.8389508841424802,0.9282310135465606,0.8186468492024216,0.8374956690612476,0.6373338385563193,0.6732376618924264
410,23.773,23.28,1.53,0.8407856564412051,0.9286527674298501,0.8193327478461979,0.8396104841297465,0.6389383453143386,0.6737421458191564
411,23.814,23.33,1.51,0.8426316405512899,0.929072089287664,0.8199591631716612,0.8417902293731916,0.6405363560165647,0.6742460162251697
412,23.855,23.39,1.6,0.8444881641333762,0.9294875403164451,0.8205255610161156,0.8440334845591854,0.6421270892352354,0.6747483258386259
413,23.937,23.44,1.61,0.8463545302315852,0.92989765339821,0.8210314474644065,0.8463387407803383,0.6437097538297027,0.6752481021410738
414,23.958,23.5,1.52,0.8482300174599827,0.9303009340832132,0.8214763695752304,0.8487044005759755,0.6452835493306972,0.6757443476767707
415,24.019,23.55,1.64,0.8501138802179381,0.93069586160229,0.8218599160476552,0.851128778174654,0.6468476663378425,0.6762360403981251
416,24.06,23.61,1.71,0.8520053489343714,0.9310808899078769,0.8221817178261595,0.853610099858952,0.6484012869301491,0.6767221340474281
417,24.121,23.66,1.64,0.8539036303408544,0.9314544487429148,0.8224414486428823,0.8561465044535759,0.6499435850892237,0.6772015585751473
418,24.183,23.72,1.63,0.8558079077735071,0.9318149447371565,0.8226388254962304,0.8587360439374181,0.6514737271349359,0.6776732205951218
419,24.245,23.77,1.78,0.8577173415036139,0.9321607625306934,0.8227736090654661,0.8613766841798172,0.6529908721733158,0.6781360038769578
420,24.326,23.83,1.71,0.8596310690968909,0.9324902659246299,0.8228456040613019,0.8640663058009584,0.6544941725564941,0.6785887698758141
421,24.347,23.89,1.67,0.861548205801382,0.9328017990587346,0.8228546595127648,0.8668027051560813,0.6559827743545128,0.6790303582996358
422,24.408,23.94,1.75,0.8634678449639969,0.9330936876156761,0.8228006689906536,0.8695835954429454,0.6574558178388491,0.6794595877137062
423,24.449,24.0,1.75,0.8653890584757256,0.9333642400511794,0.8226835707678921,0.8724066079318232,0.6589124379775188,0.6798752561821696
424,24.552,24.05,1.63,0.8673108972455705,0.9336117488491863,0.8225033479169855,0.8752692933171762,0.6603517649416208,0.6802761419460595
425,24.595,24.1,1.69,0.8692323917031666,0.9338344918009984,0.8222600283446071,0.8781691231902184,0.6617729246231604,0.680661004137392
426,24.616,24.16,1.74,0.8711525523299578,0.9340307333074236,0.8219536847632062,0.8811034916316839,0.6631750391639502,0.6810285835289699
427,24.678,24.21,1.67,0.8730703702186756,0.9341987257031024,0.8215844345996118,0.8840697169240639,0.6645572274953274,0.6813776033197024
428,24.72,24.27,1.69,0.8749848176607116,0.9343367106024171,0.8211524398409344,0.8870650433823201,0.6659186058883593,0.6817067699554139
429,24.781,24.32,1.81,0.8768948487608618,0.9344429202666032,0.8206579068185104,0.8900866433016714,0.6672582885141591,0.6820147739851693
430,24.843,24.38,1.79,0.8787994000788144,0.9345155789917524,0.8201010859310568,0.8931316190205957,0.6685753880139045,0.6823002909530578
431,24.904,24.43,1.74,0.8806973912967204,0.9345529045173374,0.8194822713085013,0.8961970050967369,0.6698690160781448,0.6825619823251724
432,24.966,24.49,1.83,0.8825877259122041,0.9345531094546711,0.8188018004181006,0.8992797705930266,0.6711382840350033,0.6827984964512208
433,25.028,24.55,1.87,0.8844692919562602,0.9345144027344047,0.8180600536145053,0.9023768214710568,0.6723823034469125,0.6830084695598956
434,25.069,24.6,1.8,0.8863409627355826,0.9344349910718499,0.8172574536353532,0.905485003088664,0.6736001867155486,0.6831905267869365
435,25.132,24.66,1.89,0.8882015975989046,0.9343130804487951,0.8163944650436917,0.9086011027988344,0.6747910476946511,0.6833432832347741
436,25.172,24.71,1.95,0.8900500427269143,0.9341468776105996,0.8154715936181668,0.9117218526473552,0.6759540023104399,0.6834653450626222
437,25.233,24.76,1.86,0.8918851319452574,0.9339345915775883,0.8144893856916782,0.9148439321667987,0.6770881691893744,0.6835553106058389
438,25.276,24.82,1.85,0.8937056875601123,0.9336744351700568,0.8134484274392637,0.9179639712643679,0.6781926702930389,0.6836117715232853
439,25.339,24.87,1.98,0.8955105212158179,0.93336462654637,0.8123493441162615,0.9210785532008524,0.6792666315599627,0.6836333139712826
440,25.4,24.93,1.92,0.8972984347740791,0.9330033907536303,0.8111927992481512,0.9241842176575937,0.6803091835542027,0.6836185198026458
441,25.461,24.98,1.85,0.8990682212143282,0.9325889612901609,0.8099794937736771,0.9272774638880934,0.6813194621205043,0.683565967789205
442,25.503,25.04,1.93,0.9008186655548605,0.9321195816787343,0.808710165142867,0.9303547539507165,0.6822966090458588,0.6834742348660784
443,25.564,25.09,1.92,0.9025485457943802,0.9315935070490821,0.8073855863714957,0.9334125160188749,0.6832397727272576,0.6833418973957686
444,25.668,25.15,1.83,0.9042566338735448,0.9310090057279331,0.8060065650533952,0.9364471477650887,0.6841481088454356,0.6831675324500173
445,25.69,25.2,1.89,0.9059416966559688,0.9303643608347326,0.8045739423317367,0.9394550198155441,0.6850207810443472,0.6829497191073848
446,25.729,25.26,1.95,0.9076024969279828,0.929657871881272,0.8030885918300891,0.9424324792720872,0.6858569616160658,0.6826870397645917
447,25.792,25.32,1.85,0.9092377944162721,0.9288878563736227,0.8015514185439028,0.9453758532987888,0.6866558321907598,0.6823780814598126
448,25.874,25.37,1.86,0.9108463468224114,0.9280526514149346,0.7999633576932064,0.9482814527701389,0.6874165844313406,0.6820214372062646
449,25.894,25.42,1.98,0.912426910873245,0.9271506153078163,0.7983253735376804,0.9511455759775926,0.6881384207323522,0.6816157073345609
450,25.934,25.48,1.91,0.9139782433860733,0.9261801291550599,0.796638458155717,0.9539645123907435,0.6888205549226503,0.681159500842366
451,26.017,25.53,1.86,0.9154991023476552,0.9251395984574018,0.7949036301893904,0.9567345464689639,0.6894622129713895,0.6806514367499357
452,26.077,25.59,1.97,0.9169882480060967,0.9240274547067916,0.7931219335573885,0.9594519615190248,0.6900626336968257,0.6800901454600631
453,26.098,25.64,1.98,0.9184444439747625,0.9228421569733514,0.7912944361379288,0.9621130435939858,0.6906210694774326,0.679474270120877
454,26.16,25.7,1.87,0.919866458347407,0.9215821934839388,0.7894222284235062,0.9647140854286362,0.691136786964812,0.6788024679899205
455,26.223,25.75,1.93,0.9212530648237133,0.9202460831901432,0.7875064221490073,0.9672513904069798,0.6916090677978669,0.6780734117980208
456,26.263,25.81,1.99,0.9226030438443998,0.918832377323636,0.7855481488944744,0.9697212765575715,0.6920372093176949,0.6772857911115759
457,26.387,25.86,1.89,0.9239151837349902,0.9173396609370299,0.7835485586638261,0.9721200805726066,0.6924205252826379,0.6764383136920525
458,26.407,25.92,1.86,0.9251882818572513,0.9157665544286684,0.7815088184411855,0.9744441618464588,0.6927583465828971,0.6755297068516783
459,26.449,25.98,1.95,0.9264211457672357,0.9141117150499697,0.7794301107269846,0.9766899065289485,0.6930500219540835,0.6745587188044497
460,26.511,26.03,1.89,0.9276125943787804,0.9123738383940008,0.7773136320565115,0.9788537315881743,0.6932949186890327,0.6735241200116469
461,26.531,26.08,1.84,0.9287614591312742,0.9105516598638738,0.7751605915038692,0.9809320888773719,0.693492423347144,0.6724247045210753
462,26.593,26.14,1.96,0.9298665851604119,0.9086439561194263,0.7729722091744219,0.9829214691999473,0.6936419424604363,0.6712592912992332
463,26.654,26.19,1.98,0.9309268324705592,0.9066495465004991,0.770749714688821,0.9848184063665456,0.6937429032354523,0.6700267255554883
464,26.738,26.25,1.9,0.9319410771072334,0.9045672944250258,0.7684943456616612,0.9866194812378002,0.6937947542500997,0.6687258800572448
465,26.758,26.3,2.01,0.9329082123280976,0.9023961087601577,0.7662073461776711,0.9883213257464176,0.6937969661445031,0.6673556564350153
466,26.819,26.36,2.08,0.9338271497707986,0.9001349451647376,0.7638899652682578,0.9899206268923522,0.6937490323049492,0.6659149864762725
467,26.861,26.41,1.99,0.9346968206159592,0.8977828074015893,0.7615434553913473,0.9914141307048154,0.6936504695400401,0.6644028334069954
468,26.943,26.47,2.01,0.9355161767436493,0.8953387486182848,0.7591690709178404,0.9927986461646067,0.6935008187482076,0.6628181931598679
469,26.984,26.52,2.09,0.9362841918817001,0.8928018725952189,0.7567680666284529,0.9940710490798669,0.6932996455757833,0.661160095628094
470,27.046,26.58,2.02,0.9369998627443131,0.8901713349599084,0.7543416962250555,0.995228285908026,0.6930465410648626,0.6594276059037744
471,27.151,26.64,1.97,0.9376622101595099,0.8874463443664272,0.751891210860709,0.9962673775165658,0.6927411222902208,0.6576198254998198
472,27.173,26.69,2.09,0.9382702801840661,0.8846261636388216,0.7494178576924547,0.9971854228752518,0.6923830329845342,0.6557358935544033
473,27.212,26.75,2.11,0.9388231452046562,0.8817101108772312,0.7469228784607588,0.9979796026725342,0.6919719441511576,0.6537749880169627
474,27.253,26.8,2.02,0.9393199050239859,0.8786975605252961,0.744407508099356,0.998647182848818,0.6915075546636865,0.6517363268147599
475,27.316,26.85,2.1,0.9397596879306896,0.8755879443973491,0.7418729733790654,0.9991855180393955,0.6909895918515414,0.6496191689989735
476,27.378,26.91,2.12,0.9401416517517297,0.8723807526638423,0.7393204915888845,0.9995920549200863,0.6904178120708252,0.6474228158692054
477,27.42,26.96,2.01,0.940464984885985,0.8690755347934583,0.7367512692573375,0.999864335449165,0.6897920012597364,0.6451466120752014
478,27.48,27.02,2.0,0.940728907317631,0.8656719004504673,0.7341665009165989,1.0,0.6891119754778308,0.6427899466945681
479,27.542,27.07,2.09,0.9409326716078251,0.8621695203460407,0.7315673679114488,0.9999967903798433,0.6883775814284151,0.640352254285276
480,27.603,27.13,2.04,0.9410755638631326,0.8585681270423831,0.728955037254837,0.9998525527309023,0.6875886969633282,0.6378330159118004
481,27.664,27.18,2.0,0.941156904679076,0.8548675157085981,0.7263306605317742,0.9995652403100317,0.6867452315693046,0.635231760143852
482,27.727,27.24,2.12,0.9411760500571559,0.8510675448272217,0.7236953728533414,0.999132916143255,0.6858471268350782,0.6325480640266872
483,27.748,27.3,2.13,0.9411323922937089,0.8471681368502848,0.7210502918627517,0.998553755551053,0.6848943568983678,0.6297815540219547
484,27.852,27.35,2.07,0.9410253608390282,0.8431692788036415,0.7183965167954235,0.9978260485402921,0.6838869288718867,0.6269319069179651
485,27.874,27.41,2.19,0.940854423125255,0.839071022838189,0.7157351275947578,0.9969482020590004,0.682824883247562,0.623998850708229
486,27.916,27.46,2.22,0.940619085361678,0.8348734867265314,0.7130671840848226,0.99591874211091,0.6817082942781939,0.6209821654370531
487,27.978,27.51,2.12,0.9403188932962417,0.8305768543035652,0.7103937252006769,0.9947363157274225,0.6805372703358695,0.6178816840109852
488,28.019,27.57,2.16,0.9399534329422298,0.8261813758494763,0.7077157682766556,0.9933996927953562,0.6793119542465158,0.6146972929749508
489,28.079,27.62,2.24,0.9395223312692337,0.8216873684136998,0.7050343083926317,0.9919077677394398,0.6780325236000537,0.6114289332519864
490,28.142,27.68,2.18,0.9390252568576117,0.8170952160785294,0.7023503177780775,0.9902595610589111,0.6766991910356731,0.6080766008455387
491,28.242,27.73,2.11,0.9384619205156965,0.8124053701612346,0.6996647452736542,0.9884542207177781,0.6753122045017779,0.6046403475033191
492,28.263,27.79,2.19,0.9378320758589862,0.8076183493537772,0.6969785158499445,0.9864910233883334,0.673871847490184,0.6011202813416004
493,28.305,27.84,2.16,0.9371355198505276,0.8027347397993582,0.6942925301828798,0.9843693755474562,0.6723784392441838,0.5975165674286456
494,28.367,27.9,2.08,0.9363720933016847,0.7977551951050421,0.6916076642853874,0.9820888144250407,0.67083233494009,0.5938294283258245
495,28.428,27.95,2.15,0.9355416813324675,0.7926804362896609,0.6889247691948119,0.9796490088036636,0.6692339258418576,0.5900591445849309
496,28.49,28.01,2.19,0.9346442137905844,0.7875112516661322,0.6862446707157146,0.9770497596684004,0.6675836394283754,0.5862060552002138
497,28.573,28.07,2.1,0.9336796656284011,0.7822484966572548,0.6835681692177067,0.974291000705624,0.6658819394929981,0.5822705580136494
498,28.593,28.12,2.12,0.9326480572370084,0.7768930935440262,0.680896039487911,0.9713727986497808,0.6641293262149046,0.5782531100720066
499,28.634,28.17,2.2,0.931549454736655,0.7714460311455772,0.6782290306375348,0.9682953534774754,0.6623263362018851,0.5741542279342813
500,28.697,28.23,2.14,0.9303839702228902,0.765908364429962,0.6755678660619726,0.9650589984484815,0.6604735425041904,0.5699744879281391
501,28.759,28.28,2.12,0.9291517619678294,0.7602812140552742,0.6729132434538584,0.9616641999934097,0.6585715545991044,0.5657145263541067
502,28.799,28.34,2.22,0.9278530345760109,0.754565765840869,0.670265834868536,0.9581115574477433,0.6566210183459323,0.5613750396362904
503,28.861,28.39,2.19,0.9264880390943534,0.7487632701687228,0.6676262868415461,0.9544018026317662,0.6546226159111403,0.5569567844183397
504,28.966,28.45,2.11,0.9250570730757839,0.7428750413151052,0.6649952205579027,0.9505357992756567,0.6525770656634378,0.5524605776032662
505,28.987,28.5,2.17,0.9235604805961676,0.7369024567128563,0.6623732320730685,0.9465145422888636,0.6504851220386392,0.5478872963356307
506,29.008,28.56,2.18,0.9219986522242668,0.7308469561446027,0.6597608925855843,0.9423391568728966,0.6483475753742052,0.5432378779245611
507,29.071,28.61,2.06,0.9203720249445928,0.7247100408672411,0.6571587487611347,0.9380108974770787,0.6461652517133905,0.5385133197061491
508,29.132,28.67,2.09,0.9186810820331459,0.7184932726680148,0.654567323107354,0.93353114659772,0.643939012578953,0.5337146788439945
509,29.173,28.73,2.13,0.9169263528861442,0.712198272852585,0.6519871143980459,0.9289014134223735,0.6416697547163828,0.5288430720669423
510,29.235,28.78,2.04,0.9151084128018951,0.7058267211656358,0.6494185981450143,0.9241233323218454,0.6393584098066005,0.5238996753433555
511,29.317,28.83,2.01,0.913227882715987,0.6993803546447594,0.6468622271154381,0.9191986611932973,0.6370059441480644,0.5188857234915271
512,29.338,28.89,2.12,0.9112854288899686,0.6928609664085849,0.6443184318925705,0.9141292796582012,0.6346133583082009,0.5138025097260034
513,29.398,28.94,2.11,0.9092817625536946,0.6862704043802426,0.6417876214774733,0.9089171871191127,0.632181686744081,0.5086513851396274
514,29.459,29.0,2.03,0.9072176395015805,0.679610569947238,0.6392701839295206,0.9035645006792399,0.6297119973922638,0.5034337581211005
515,29.54,29.05,2.09,0.9050938596431297,0.672883416558689,0.6367664870434886,0.898073452928677,0.6272053912277668,0.49815109370777794
516,29.561,29.11,2.12,0.902911266508286,0.6660909482607323,0.6342768790611613,0.8924463896010635,0.6246630017921844,0.49280491287333855
517,29.623,29.16,2.02,0.900670746708376,0.659235218170834,0.6318016894155196,0.8866857671043857,0.6220859946910399,0.48739679175000666
518,29.707,29.22,2.05,0.8983732293535934,0.6523183268918553,0.6293412295056378,0.8807941499298051,0.619475567060503,0.4819283607852142
519,29.727,29.27,2.14,0.8960196854281258,0.6453424208670384,0.6268957935004354,0.8747742079426896,0.6168329470036478,0.47640130383289175
520,29.789,29.33,2.07,0.8936111271241659,0.6383096906774768,0.6244656591695071,0.8686287135603336,0.6141593929964703,0.4708173571799304
521,29.85,29.39,2.01,0.8911486071361682,0.631222369284098,0.6220510887393059,0.8623605388211044,0.6114561932639313,0.46517830850869185
522,29.891,29.44,2.09,0.8886332179168274,0.6240827302166114,0.6196523297729344,0.8559726523500107,0.6087246651263502,0.45948599579667115
523,29.954,29.5,2.05,0.8860660908963865,0.6168930857121782,0.6172696160717563,0.8494681162258776,0.605966154316542,0.4537423061545568
524,30.055,29.55,1.97,0.8834483956669924,0.6096557848067578,0.6149031685970463,0.8428500827554151,0.60318203426814,0.44794917460407024
525,30.076,29.6,2.0,0.8807813391338821,0.6023732113821945,0.612553196409914,0.8361217911595272,0.60037370537557,0.44210858279711257
526,30.139,29.66,2.02,0.8780661646352136,0.5950477821721911,0.6102198976277372,0.8292865641773465,0.5975425942261796,0.43622255767788337
527,30.18,29.71,1.89,0.8753041510323148,0.58768194473035,0.6079034603952521,0.8223478045937173,0.5946901528050347,0.4302931700897971
528,30.241,29.77,1.91,0.8724966117720617,0.580278175363525,0.6056040638682052,0.8153089916962933,0.5918178576729024,0.4243225333292296
529,30.281,29.82,1.97,0.8696448939229793,0.572838977033842,0.6033218792071556,0.8081736776689299,0.5889272091179456,0.4183128016483266
530,30.343,29.88,1.87,0.8667503771865398,0.5653668772329041,0.6010570705787918,0.8009454839284453,0.5860197302816464,0.4122661687093097
531,30.425,29.93,1.85,0.8638144728849964,0.5578644258319027,0.5988097961620267,0.7936280974119962,0.5830969662594688,0.4061848659928874
532,30.446,29.99,1.93,0.8608386229269992,0.5503341929115115,0.5965802091561434,0.7862252668222955,0.5801604831767758,0.40007116116344227
533,30.508,30.05,1.88,0.8578242987522028,0.5427787665754528,0.5943684587883478,0.778740798837727,0.5772118672405334,0.3939273563935591
534,30.549,30.1,1.82,0.8547730002560867,0.5352007507514899,0.5921746913181928,0.7711785542941281,0.5742527237673535,0.387755786650235
535,30.611,30.16,1.87,0.8516862546962362,0.5276027629834016,0.5899990510363833,0.7635424443447246,0.5712846761884596,0.3815588179448096
536,30.673,30.21,1.88,0.8485656155813538,0.5199874322172625,0.587841681255489,0.7558364266044103,0.568309365032202,0.37533884554831165
537,30.735,30.26,1.74,0.8454126615442861,0.5123573965851815,0.5857027252901374,0.7480645012842668,0.5653284468847902,0.36909829217366763
538,30.797,30.32,1.76,0.8422289952003109,0.5047153011896112,0.5835823274243302,0.7402307073219251,0.562343593329943,0.36283960612609983
539,30.838,30.37,1.8,0.8390162419918791,0.497063795891427,0.5814806338636096,0.7323391185130997,0.5593564898681761,0.35656525942307454
540,30.9,30.43,1.7,0.8357760490209314,0.48940553310509205,0.5793977936699022,0.7243938396493989,0.5563688348164574,0.3502777458853541
541,30.942,30.48,1.66,0.8325100838698718,0.48174316560432145,0.5773339596769295,0.7163990026673275,0.5533823381889357,0.34397957920097366
542,31.005,30.54,1.72,0.8292200334122192,0.4740793443416723,0.5752892893841107,0.7083587628132736,0.5503987205594415,0.33767329096417154
543,31.046,30.59,1.66,0.8259076026139309,0.4664167162853667,0.5732639458269693,0.700277294829052,0.5474197119064428,0.33136142869134816
544,31.108,30.65,1.57,0.8225745133263518,0.458757922276409,0.5712580984221611,0.6921587891622435,0.5444470504411265,0.32504655381607445
545,31.168,30.7,1.63,0.8192225030716915,0.45110559490873586,0.5692719237853774,0.6840074482051194,0.5414824814192593,0.31873123966501293
546,31.21,30.76,1.64,0.8158533238218951,0.4434623564347533,0.5673056065204914,0.675827482565473,0.5385277559374766,0.31241806941643147
547,31.27,30.82,1.56,0.8124687407717399,0.4358308166982646,0.5653593399784452,0.6676231073722406,0.5355846297146387,0.3061096340429166
548,31.331,30.87,1.61,0.8090705311069593,0.42821357109653996,0.5634333269844359,0.6593985386184608,0.5326548618588899,0.2998085302399557
549,31.371,30.92,1.67,0.8056604827681849,0.42061319857315527,0.5615277805319966,0.651157989543891,0.5297402136210756,0.29351735834217685
550,31.454,30.98,1.6,0.8022403932115098,0.41303225964318185,0.5596429244425577,0.6429056670594765,0.5268424471352062,0.2872387202291287
551,31.537,31.03,1.57,0.7988120681665006,0.4054732944523188,0.5577789939890451,0.6346457682158165,0.5239633241467213,0.2809752172225264
552,31.558,31.09,1.67,0.7953773203925205,0.3979388208715738,0.5559362364820344,0.6263824767177517,0.5211046047293765,0.2747294479768263
553,31.619,31.14,1.59,0.7919379684342465,0.39043133262905444,0.5541149118170436,0.6181199594870759,0.5182680459916646,0.2685040063648638
554,31.659,31.2,1.52,0.7884958353772902,0.3829532974803005,0.5523152929816563,0.6098623632751584,0.5154554007737475,0.2623014793601379
555,31.719,31.25,1.57,0.7850527476048117,0.3755071554184153,0.5505376665212757,0.6016138113270121,0.5126684163359392,0.25612444491717323
556,31.761,31.31,1.55,0.7816105335559895,0.3680953169250302,0.5487823329623901,0.5933784000981004,0.5099088330398319,0.24997546985127
557,31.821,31.36,1.45,0.7781710224871472,0.36072016126292245,0.547049607192302,0.585160196024977,0.5071783830231832,0.24385710771896327
558,31.902,31.42,1.46,0.7747360432362784,0.35338403481095554,0.5453398187943519,0.5769632323507194,0.5044787888697011,0.23777189670065518
559,31.943,31.48,1.5,0.7713074229916294,0.34608924944194114,0.5436533123377585,0.5687915060060741,0.5018117622748682,0.23172235748709352
560,32.004,31.53,1.44,0.7678869860649422,0.3388380809439995,0.5419904476213055,0.5606489745472606,0.4991790027089545,0.22571099117162394
561,32.066,31.58,1.44,0.7644765526698809,0.3316327674860407,0.540351599870167,0.5525395531514935,0.4965821960783635,0.21974027715041086
562,32.108,31.64,1.54,0.761077937706068,0.324475508128076,0.5387371598851871,0.5444671116714284,0.49402301338647414,0.21381267103299784
563,32.151,31.69,1.49,0.7576929495491076,0.317368461377128,0.5371475341439956,0.536435471749841,0.49150310939518804,0.20793060256562432
564,32.255,31.75,1.43,0.7543233888469753,0.31031374378950766,0.5355831448534435,0.5284484039958761,0.48902412128846395,0.2020964735696733
565,32.297,31.8,1.54,0.7509710473232332,0.3033134286201618,0.5340444299529483,0.5205096252242062,0.4865876673392242,0.19631265589754
566,32.318,31.86,1.54,0.7476377065876638,0.29636954451965963,0.5325318430684653,0.5126227957584152,0.48419534558112376,0.19058148940813263
567,32.379,31.91,1.46,0.7443251369550741,0.2894840742792235,0.531045853416949,0.5047915167998702,0.4818487324867768,0.1849052799642232
568,32.421,31.97,1.51,0.7410350962731628,0.2826589536240702,0.5295869456613338,0.49701932786330816,0.4795493816541374,0.17928629745393834
569,32.482,32.03,1.57,0.7377693287604908,0.2758960700552339,0.5281556197162666,0.4893097042803817,0.47729882250284694,0.17372677383878768
570,32.545,32.08,1.46,0.7345295638557547,0.26919726173997627,0.5267523905050738,0.48166605477251007,0.47509855898247183,0.16822890123079648
571,32.628,32.14,1.4,0.7313175150797009,0.26256431645089284,0.5253777876686363,0.4740917190946106,0.4729500682946611,0.1627948300015202
572,32.649,32.19,1.42,0.7281348789111401,0.25599897055390236,0.5240323552269934,0.46658996575161593,0.4708547996313471,0.15742666692587212
573,32.711,32.25,1.3,0.724983333678588,0.2495029080453969,0.5227166511946642,0.4591639897899345,0.46881417293118177,0.15212647336376378
574,32.752,32.3,1.2,0.7218645384690666,0.24307775963895406,0.5214312471508423,0.4518169106661215,0.46682957765641003,0.14689626348259754
575,32.813,32.35,1.23,0.7187801320555521,0.23672510190214002,0.5201767277657378,0.4445517701950256,0.4649023715923459,0.1417380025236452
576,32.874,32.41,1.21,0.7157317318444398,0.23044645644402026,0.5189536902843997,0.43737153057959977,0.4630338796715425,0.13665360511526653
577,32.916,32.47,1.11,0.7127209328442764,0.22424328915402655,0.5177627439694177,0.43027907252441056,0.46122539282465314,0.13164493363578206
578,32.998,32.52,1.12,0.7097493066568528,0.21811700949285318,0.5166045095039257,0.4232771934347159,0.4594781668598953,0.1267137966286138
579,33.059,32.58,1.11,0.7068184004916429,0.21206896983607618,0.5154796183563669,0.4163686057028435,0.4577934213729761,0.12186194727205793
580,33.101,32.63,0.97,0.7039297362044964,0.20610046487122025,0.514388712108495,0.40955593508349,0.45617233868929197,0.11709108190584101
581,33.161,32.69,0.96,0.7010848093614692,0.200212731049062,0.5133324417481259,0.4028417191594747,0.4546160628401745,0.11240283861650964
582,33.223,32.74,1.0,0.6982850883286758,0.19440694609003792,0.512311466928219,0.3962284058993819,0.4531256985748948,0.10779879588368485
583,33.264,32.8,0.92,0.6955320133890565,0.18868422854667585,0.5113264551939765,0.38971835230839497,0.45170231041006176,0.1032804712892509
584,33.368,32.85,0.84,0.6928269958869315,0.18304563742300528,0.5103780811797335,0.38331382317346396,0.45034692171796775,0.09884932029155921
585,33.388,32.91,0.88,0.6901714174011648,0.17749217185190733,0.5094670257774604,0.37701698990379645,0.44906051385536283,0.09450673506662848
586,33.45,32.96,0.82,0.6875666289477206,0.17202477083126017,0.5085939752787006,0.37082992946747767,0.44784402533408363,0.0902540434181055
587,33.47,33.02,0.71,0.685013950212361,0.1666443130195153,0.5077596204917995,0.3647546234248218,0.4466983510348867,0.08609250775756118
588,33.553,33.07,0.72,0.6825146688141945,0.16135161659107208,0.5069646558362676,0.3587929570588669,0.4456243414657601,0.08202332415657237
589,33.573,33.13,0.73,0.6800700396007272,0.15614743915153803,0.5062097784161306,0.35294671860328014,0.4446228020658884,0.07804762147196903
590,33.635,33.18,0.64,0.6776812839749987,0.15103247771267575,0.505495687074137,0.3472175985678222,0.44369449255634114,0.07416646054561238
591,33.738,33.24,0.64,0.6753495892552835,0.14600736872660028,0.5048230814287227,0.3416071891614449,0.4428401263384409,0.0703808334800728
592,33.759,33.29,0.68,0.6730761080677212,0.14107268817864652,0.5041926608956633,0.33611698381303623,0.4420603699406764,0.0666916629914966
593,33.8,33.35,0.59,0.6708619577721053,0.13622895173826852,0.503605123696382,0.3307483767897307,0.44135584251494553,0.06309980184080423
594,33.861,33.4,0.53,0.6687082199209505,0.1314766149673513,0.5030611658549193,0.32550266291259133,0.4407271153828421,0.05960603234418422
595,33.903,33.46,0.59,0.6666159397518547,0.12681607358538788,0.5025614801855361,0.3203810373693639,0.4401747116326351,0.05621106596367148
596,33.965,33.51,0.55,0.6645861257131113,0.1222476637910184,0.5021067552728596,0.3153845956238926,0.4396991057675101,0.052915542978424976
597,34.048,33.57,0.49,0.6626197490224788,0.11777166263941934,0.501697674446404,0.3105143334216633,0.4393007234055596,0.049720032237173396
598,34.108,33.62,0.53,0.660717743258988,0.1133882884749576,0.5013349147511733,0.3057711468908231,0.43897994103192195,0.046625030992152705
599,34.149,33.67,0.55,0.6588810039876717,0.10909770141837943,0.5010191459159382,0.30115583273792523,0.43873708580340526,0.043630964814679624
600,34.19,33.73,0.43,0.6571103884171362,0.10490000390761131,0.500751029320672,0.2966690885375401,0.4385724354058664,0.040738187592309585
601,34.252,33.78,0.43,0.6554067150899147,0.10079524129107938,0.5005312169645708,0.2923115131147613,0.43848621796456266,0.03794698160731563
602,34.293,33.84,0.45,0.653770763605544,0.0967834024723439,0.5003603504360483,0.288083607019525,0.43847861200763466,0.0352575576959921
603,34.353,33.9,0.36,0.6522032743762788,0.09286442060480618,0.5002390598861043,0.28398577309153017,0.4385497464827988,0.03267005548809716
604,34.414,33.95,0.3,0.6507049484152965,0.0890381738352774,0.5001679630064657,0.2800183171144254,0.438699700827225,0.030184543725609952
605,34.476,34.01,0.35,0.649276447157153,0.08530448609526653,0.5001476640138676,0.27618144855781146,0.4389285050904486,0.027801020659820312
606,34.517,34.06,0.31,0.6479183923101398,0.08166312793885012,0.5001787526418178,0.2724752814054799,0.4392361401100388,0.025519414525548685
607,34.58,34.12,0.24,0.6466313657400694,0.0781138174258912,0.5002618031411551,0.26889983506813886,0.439622537739599,0.023339584091052277
608,34.642,34.17,0.31,0.6454159093849258,0.07465622104918879,0.5003973732906728,0.2654550353787053,0.44008758112854873,0.021261319281949763
609,34.684,34.23,0.34,0.64427252519977,0.07128995470390294,0.5005860034190497,0.2621407156680632,0.44063110505301323,0.019284341877309336
610,34.747,34.28,0.23,0.6432016751313031,0.06801458469738453,0.5008282154393173,0.25895661791904045,0.441252896297045,0.017408306275927713
611,34.851,34.34,0.28,0.642203781121502,0.06482962879747091,0.5011245118970584,0.25590239399626413,0.4419526940833181,0.015632800330760362
612,34.871,34.39,0.36,0.6412792251397466,0.061734557317410725,0.5014753750334752,0.2529776069495194,0.4427301905523657,0.013957346249405329
613,34.933,34.45,0.31,0.6404283492428441,0.05872879423580333,0.5018812658644265,0.25018173238821084,0.4435850312893714,0.012381401558501379
614,34.973,34.5,0.28,0.639651455662354,0.05581171835018071,0.5023426232764817,0.24751415992450077,0.4445168158974684,0.0109043601298427
615,35.015,34.56,0.36,0.6389488069186411,0.052982664463020544,0.5028598631409962,0.2449741946826618,0.4455250986164623,0.0095255532658402
616,35.076,34.61,0.29,0.6383206259611449,0.05024092459898067,0.5034333774472077,0.242561058872106,0.44660938898587327,0.008244250841670584
617,35.118,34.67,0.21,0.6377670963344241,0.04758574925202038,0.5040635334553698,0.24027389342142183,0.4477691525511593,0.007059662501156512
618,35.201,34.72,0.27,0.6372883623695583,0.045016348660903274,0.5047506728709371,0.23811175967061604,0.44900381161192826,0.00597093890319687
619,35.241,34.78,0.26,0.6368845294004898,0.042531894111385304,0.505495111040831,0.23607364111861867,0.45031274601086374,0.004977173015451877
620,35.282,34.83,0.16,0.6365556640048441,0.040131519263192465,0.5062971361728085,0.23415844522298018,0.4516952939619727,0.0040774014520197546
621,35.344,34.89,0.21,0.6363017942686962,0.03781432149974149,0.5071570085789406,0.23236500524861325,0.45315075291663026,0.003270605851962384
622,35.406,34.94,0.28,0.6361229100746435,0.035579363298495086,0.5080749599441352,0.23069208216243559,0.4546783804657705,0.002555714295673184
623,35.467,35.0,0.2,0.6360189634124305,0.03342567361986234,0.5090511926205644,0.22913836657083447,0.45627739527644645,0.001931602756231025
624,35.571,35.05,0.2,0.6359898687112828,0.03135224931261044,0.5100858789487615,0.22770248069697613,0.45794697806087803,0.0013970965830394423
625,35.591,35.1,0.33,0.6360355031930883,0.02935805653377023,0.5111791606061035,0.22638298039507754,0.45968627257602407,0.0009509720151683568
626,35.632,35.16,0.31,0.6361557072456074,0.02744203218094029,0.5123311479833899,0.22517835719880128,0.46149438665165377,0.0005919577218998117
627,35.674,35.22,0.26,0.6363502848149821,0.025603085334743484,0.5135419195902391,0.22408704040092164,0.46337039324484597,0.00031873636804055503
628,35.734,35.27,0.39,0.6366190038168869,0.02384009870901646,0.5148115214900039,0.22310739916137978,0.4653133315188197,0.00012994620155314847
629,35.797,35.33,0.41,0.6369615965657442,0.022151930106139122,0.5161399667648756,0.22223774464080412,0.4673222079439948,2.4182660969125186e-05
630,35.839,35.38,0.31,0.6373777602214685,0.020537413874815613,0.5175272350118406,0.22147633215652962,0.46939599741918714,0.0
631,35.941,35.44,0.39,0.637867157253199,0.018995362367648965,0.5189732718701031,0.22082136335815086,0.4715336444108349,5.591292679174165e-05
632,35.961,35.49,0.49,0.6384294159194764,0.01752456739595675,0.5204779885805417,0.2202709884196971,0.4737340641081569,0.00019039825539096273
633,36.003,35.55,0.43,0.6390641307643188,0.016123801679388382,0.5220412615777233,0.21982330824559743,0.4759961435921236,0.0004018965672187601
634,36.064,35.6,0.41,0.6397708631286617,0.01479182028805237,0.5236629321149571,0.21947637668771203,0.47831874301610805,0.0006888138806349073
635,36.106,35.66,0.49,0.6405491416766089,0.01352736207505822,0.5253428059228351,0.21922820277082303,0.4807006967960738,0.0010495233268886554
636,36.167,35.71,0.47,0.6413984629358847,0.012329151097586253,0.5270806529016797,0.21907675292406298,0.48314081480815724,0.0014823668308687984
637,36.23,35.77,0.47,0.6423182918517933,0.011195898024764237,0.5288762068482588,0.21901995321581738,0.4856378835914738,0.0019856567951529293
638,36.313,35.82,0.61,0.6433080623538782,0.010126301530718612,0.5307291652170437,0.21905569158967308,0.4881906675539401,0.002557677785890517
639,36.334,35.88,0.66,0.6443671779343928,0.009119049671161445,0.5326391889161886,0.21918182009898424,0.4907979101788867,0.0031966882190218905
640,36.396,35.93,0.64,0.6454950122376636,0.008172821241809902,0.5346059021383622,0.21939615713758567,0.49345833523024635,0.0039009220452719423
641,36.438,35.99,0.79,0.6466909096594419,0.007286287116869375,0.5366288922265604,0.21969648966414926,0.4961706479541635,0.004668590432283648
642,36.5,36.04,0.88,0.6479541859554172,0.006458111565770881,0.5387077095750648,0.22008057541766304,0.4989335362749724,0.005497883442171597
643,36.561,36.1,0.81,0.6492841288581684,0.005686953546351569,0.5408418675658211,0.22054614512150314,0.5017456719836195,0.006386971702686233
644,36.643,36.15,0.87,0.6506799987019428,0.004971467972765622,0.5430308425406065,0.22109090467359319,0.5046057119167475,0.007334008070079846
645,36.684,36.21,0.97,0.6521410290547446,0.004310306956620736,0.5452740738094094,0.22171253732021956,0.5075122991248091,0.008337129281677621
646,36.768,36.26,0.94,0.6536664273572795,0.0037021210201233098,0.5475709636954723,0.22240870581116534,0.510464064027706,0.009394457596165312
647,36.788,36.32,0.89,0.6552553755683186,0.003145560280343534,0.5499208776174049,0.22317705453393616,0.5134596255565462,0.010504102419733851
648,36.83,36.37,1.0,0.6569070308160181,0.0026392756040363443,0.5523231442086878,0.2240152116249638,0.5164975922801868,0.011664161916356861
649,36.891,36.42,1.01,0.6586205260546996,0.002181919732665453,0.5547770554747994,0.2249207910557402,0.5195765635152965,0.012872724600535304
650,36.932,36.48,0.96,0.6603949707265458,0.0017721483773620527,0.5572818669881278,0.22589139469185193,0.5226951304187107,0.014127870910892331
651,37.033,36.53,1.03,0.6622294514276066,0.0014086212835405403,0.5598367981207631,0.22692461432290212,0.5258518770608718,0.01542767476302923
652,37.054,36.59,1.08,0.6641230325774398,0.0010900032647880712,0.562441032315203,0.2280180336613436,0.5290453814791917,0.016770205080061065
653,37.116,36.65,1.02,0.6660747570916596,0.0008149652054822736,0.5650937173929468,0.22916923030832892,0.532274216710201,0.018153527299262045
654,37.159,36.7,1.11,0.6680836470566105,0.0005821850314630089,0.5677939659008441,0.23037577768484457,0.5355369517993896,0.019575704853343454
655,37.22,36.76,1.24,0.670148704405345,0.00039034864806554307,0.5705408554949235,0.23163524692662946,0.5388321527876787,0.021034800625040387
656,37.282,36.81,1.23,0.6722689115941067,0.00023815084489841294,0.5733334293613133,0.23294520874160526,0.5421583836735275,0.02252887837389513
657,37.342,36.87,1.24,0.6744432322785727,0.00012429616689738985,0.5761706966737831,0.23430323522874127,0.545514207349763,0.02405600413433391
658,37.445,36.92,1.38,0.6766706119892522,4.7499751332677775e-05,0.5790516330873671,0.23570690165743535,0.5488981865143469,0.025614247584233533
659,37.466,36.98,1.38,0.678949978805581,6.4881305186164305e-06,0.5819751812674868,0.23715378820659408,0.5523088845544525,0.02720168338315537
660,37.487,37.03,1.36,0.6812802440284156,0.0,0.5849402514539879,0.23864148166262175,0.5557448664033775,0.02881639247936519
661,37.548,37.09,1.43,0.6836603028507331,2.6786952003395675e-05,0.5879457220595109,0.24016757707552022,0.5592046993699705,0.03045646338467807
662,37.61,37.14,1.46,0.6860890350264294,8.561417395442064e-05,0.5909904403016454,0.24172967937229162,0.5626869539403919,0.03211999341610359
663,37.652,37.2,1.38,0.6885653055371795,0.0001752611118708855,0.5940732228683548,0.24332540492685037,0.566190204552148,0.03380508990327304
664,37.713,37.25,1.41,0.6910879652573544,0.00029452209850651623,0.5971928566161923,0.24495238308573317,0.5697130303404281,0.03550987136076355
665,37.774,37.31,1.48,0.693655851616997,0.00044220694624988357,0.6003480993008217,0.24660825764903813,0.5732540158568373,0.03723246862467205
666,37.835,37.36,1.4,0.6962677892628285,0.0006171415049485732,0.6035376803393753,0.24829068830619186,0.576811751760653,0.03897102595311166
667,37.876,37.42,1.38,0.6989225907172041,0.0008181681850369298,0.6067603016040934,0.24999735202635312,0.5803848354827469,0.04072370209065396
668,37.937,37.47,1.5,0.7016190570348421,0.001044146446568818,0.6100146382465658,0.2517259444035025,0.5839718718623241,0.042488671296986136
669,38.02,37.53,1.46,0.7043559784570588,0.001293953254897563,0.6132993395517319,0.2534741809564514,0.5875714737566368,0.04426412434011945
670,38.04,37.58,1.4,0.7071321350631474,0.0015664835037418343,0.6166130298206784,0.2552397983840938,0.591182262623823,0.046048269454422565
671,38.143,37.64,1.52,0.7099462974184859,0.0018606504062419313,0.619954309281151,0.25702055577625454,0.5948028690790412,0.047839333263612234
672,38.164,37.69,1.58,0.7127972272189459,0.0021753858544100225,0.6233217550245774,0.25881423578049867,0.598431933424083,0.04963556166871629
673,38.204,37.75,1.54,0.7156836779311797,0.0025096407472584813,0.6267139219683036,0.2606186457252567,0.6020681061506786,0.05143522070102204
674,38.266,37.8,1.61,0.7186043954283671,0.0028623852879305633,0.6301293438416609,0.26243161869963677,0.605710048417757,0.05323659734008275
675,38.307,37.85,1.65,0.7215581186209956,0.0032326092503119808,0.6335665341944301,0.26425101459033506,0.6093564325029998,0.055038000296886484
676,38.369,37.91,1.57,0.7245435800822655,0.0036193222157802005,0.6370239874262612,0.2660747210761191,0.6130059422291295,0.0568377607623031
677,38.431,37.97,1.58,0.7275595066677522,0.0040215537808999035,0.6405001798356275,0.26790065458043877,0.6166572733654554,0.05863423312101196
678,38.512,38.02,1.67,0.7306046201290227,0.00443835373699925,0.6439935706869276,0.2697267611828152,0.6203091340052558,0.06042579563127473
679,38.532,38.08,1.58,0.7336776377209856,0.004868792222626551,0.6475026032944026,0.27155101748973,0.6239602449196079,0.06221085107111739
680,38.595,38.13,1.55,0.7367772728028217,0.005311959849897598,0.6510257061215384,0.2733714314658027,0.6276093398882712,0.06398782735168139
681,38.677,38.19,1.66,0.739902235432388,0.005766967805701158,0.6545612938945767,0.27518604322611784,0.631255166008221,0.06575517809864286
682,38.698,38.24,1.66,0.7430512329539941,0.006232947928588198,0.6581077687286777,0.27699292579059137,0.6348964839804051,0.06751138320267322
683,38.759,38.3,1.57,0.7462229705794539,0.006709052761950592,0.6616635212652466,0.2787901858012351,0.6385320683752702,0.06925494933995345
684,38.799,38.35,1.66,0.7494161519622624,0.00719445558388209,0.6652269318189162,0.2805759642031224,0.6421607078775899,0.07098441046370993
685,38.882,38.41,1.73,0.7526294797646937,0.007688350413967,0.668796371532685,0.2823484368898145,0.6457812055111283,0.07269832826761476
686,38.925,38.46,1.66,0.7558616562175464,0.008189951997172904,0.6723702035397303,0.28410581531398027,0.6493923788436841,0.07439529262183288
687,38.988,38.52,1.68,0.7591113836722247,0.00869849576504079,0.6759467841304105,0.28584634706399153,0.6529930601730672,0.07607392198255877
688,39.05,38.57,1.8,0.7623773651448491,0.009213237774428581,0.6795244639229412,0.28756831640737895,0.656582096694584,0.07773286377599925
689,39.111,38.63,1.76,0.7656583048521375,0.009733454624166813,0.6831015890362523,0.28927004480211926,0.6601583506506395,0.07937079475786896
690,39.153,38.68,1.76,0.7689529087388405,0.010258443350138778,0.6866765022635971,0.29094989137673705,0.6637206994630976,0.08098642134956673
691,39.194,38.74,1.86,0.7722598849965505,0.01078752129949468,0.6902475442455667,0.29260625338015334,0.6672680358490675,0.08257847995221494
692,39.236,38.79,1.86,0.7755779445737334,0.011320025984859447,0.6938130546412551,0.29423756660212347,0.670799267920845,0.08414573723963496
693,39.317,38.85,1.77,0.7789058016768812,0.011855314919451566,0.6973713732963882,0.2958423057650123,0.6743133192707763,0.08568699043117138
694,39.379,38.9,1.86,0.7822421742627303,0.01239276543406781,0.7009208414072665,0.29741898488761076,0.677809129041856,0.08720106754512966
695,39.419,38.96,1.9,0.7855857845215365,0.012931774476920864,0.7044598026794423,0.29896615762168627,0.6812856519849055,0.08868682763349539
696,39.46,39.01,1.81,0.788935359351441,0.013471758397367355,0.707986604480151,0.3004824175619477,0.684741858503184,0.09014316099860327
697,39.52,39.07,1.85,0.7922896308239846,0.014012152714610811,0.7114995989836255,0.3019663985301188,0.6881767346852738,0.09156898939249845
698,39.623,39.12,1.91,0.7956473366408293,0.014552411872480154,0.714997144308526,0.3034167748338273,0.6915892823270822,0.09296326619978248
699,39.645,39.17,1.84,0.7990072205817369,0.01509200898135753,0.7184776056468366,0.30483226150101067,0.6949785189437804,0.09432497660473586
700,39.686,39.23,1.83,0.8023680329437923,0.0156304355483287,0.7219393563836614,0.3062116144905122,0.6983434777724761,0.0956531377434638
701,39.748,39.28,1.96,0.8057285309717355,0.016167201196674988,0.7253807792074236,0.30755363087948556,0.7016832077663767,0.09694679884168732
702,39.81,39.34,1.91,0.8090874792791487,0.016701833375855554,0.7288002672100321,0.3088571490281217,0.7049967735811774,0.09820504133863812
703,39.85,39.4,1.87,0.8124436502601748,0.017233877063093136,0.7321962249766683,0.3101210487220462,0.7082832555543704,0.09942697899738334
704,39.911,39.45,1.97,0.8157958244914388,0.017762894457555748,0.7355670696649339,0.31134425129255316,0.7115417496781694,0.10061175800180537
705,40.013,39.51,2.0,0.8191427911239129,0.01828846466794012,0.7389112320732382,0.3125257197146675,0.7147713675667354,0.10175855704040551
706,40.034,39.56,1.92,0.8224833482645459,0.01881018339410832,0.7422271576984577,0.3136644586828658,0.7179712364183972,0.10286658737714992
707,40.074,39.62,2.0,0.8258163033475371,0.01932766260340584,0.7455133077830455,0.3147595146642104,0.7211404989735485,0.10393509290972476
708,40.136,39.67,2.07,0.8291404734951872,0.0198405302024005,0.7487681603518441,0.3158099759286496,0.7242783134689147,0.1049633502157573
709,40.197,39.73,1.99,0.8324546858683162,0.020348429704967835,0.7519902112389323,0.3168149725562764,0.727383853588883,0.10595066858780418
710,40.238,39.78,1.99,0.835757778006264,0.020851019897909644,0.7551779751048187,0.31777367642141374,0.730456308414581,0.10689639005817621
711,40.34,39.84,2.1,0.8390485981564976,0.02134797450556952,0.7583299864442512,0.31868530115349997,0.7334948823713938,0.10779988941488458
712,40.361,39.89,2.06,0.842326005593827,0.021838981855107995,0.7614448005848354,0.31954910207481857,0.7364987951755984,0.10866057421011549
713,40.402,39.95,2.0,0.8455888709292247,0.02232374454417213,0.7645209946765937,0.3203643761151249,0.7394672817807699,0.10947788476267607
714,40.464,40.0,2.1,0.8488360764082067,0.02280197911265361,0.7675571686725321,0.3211304617031734,0.7423995923246023,0.11025129415571475
715,40.526,40.06,2.12,0.8520665161987034,0.023273415720063518,0.7705519463002122,0.32184673863507535,0.7452949920767594,0.11098030823073729
716,40.586,40.11,2.06,0.855279096668311,0.02373779782981383,0.7735039760242449,0.3225126279193651,0.7481527613883534,0.1116644655786277
717,40.648,40.17,2.16,0.8584727366507728,0.024194881901467277,0.7764119319994766,0.3231275915986915,0.7509721956436087,0.11230333752813174
718,40.71,40.22,2.23,0.8616463677015364,0.0246444370918409,0.7792745150144901,0.323691132548168,0.7537526052142608,0.11289652813209411
719,40.731,40.28,2.14,0.8647989343422824,0.025086244965724164,0.7820904534249215,0.324202794250577,0.7564933154172339,0.11344367415168376
720,40.792,40.33,2.15,0.867929394294424,0.025520099216924032,0.7848585040759681,0.3246621605488425,0.7591936664761555,0.11394444503885372
721,40.855,40.39,2.24,0.8710367187017051,0.025945805400364896,0.7875774532133576,0.32506885537643715,0.7618530134872873,0.11439854291729125
722,40.896,40.44,2.19,0.8741198923421715,0.026363180675989688,0.7902461173820005,0.3254225424665657,0.7644707263904565,0.1148057025621495
723,40.959,40.5,2.15,0.8771779138299038,0.026772053565219108,0.7928633443115517,0.32572292504103817,0.7670461899455475,0.11516569137895358
724,41.02,40.55,2.27,0.880209795807001,0.027172263720713675,0.7954280137880954,0.3259697454797605,0.7695788037150779,0.11547830938217347
725,41.081,40.6,2.27,0.8832145651263561,0.02756366171012002,0.7979390385111533,0.32616278497175244,0.7720679820533454,0.11574338917401183
726,41.144,40.66,2.19,0.8861912630257888,0.02794610881439137,0.8003953649351613,0.326301863148584,0.7745131541025925,0.11596079592396388
727,41.186,40.72,2.24,0.8891389452940739,0.028319476841151672,0.8027959740944737,0.32638683770113086,0.7769137637966156,0.11613042734965145
728,41.248,40.77,2.26,0.8920566824293904,0.028683647953382903,0.8051398824108941,0.3264176039805641,0.7792692698722224,0.11625221369929563
729,41.291,40.83,2.16,0.8949435597907124,0.029038514513463544,0.8074261424827263,0.3263940945844993,0.7815791458889128,0.11632611773607981
730,41.332,40.88,2.19,0.8977986777426537,0.02938397894235807,0.8096538438543545,0.3263162789292639,0.7838428802570888,0.11635213472465533
731,41.392,40.94,2.27,0.9006211517942443,0.029719953593615782,0.8118221137653658,0.326184162809328,0.7860599762750221,0.11633029242009867
732,41.454,40.99,2.24,0.9034101127320672,0.03004636064178793,0.813930117878217,0.3259977879450392,0.7882299521747006,0.11626065105970879
733,41.496,41.05,2.23,0.9061647067481059,0.030363131984904167,0.815977060983403,0.32575723151988306,0.7903523411765919,0.1161433033581074
734,41.557,41.1,2.38,0.9088840955626016,0.03067020916071419,0.8179621876810141,0.3254626057085439,0.7924266915533023,0.11597837450609452
735,41.619,41.16,2.37,0.9115674565421905,0.03096754327641807,0.81988478303753,0.32511405719700953,0.7944525667020759,0.11576602217358459
736,41.68,41.21,2.32,0.9142139828136273,0.03125509495156329,0.8217441732167257,0.32471176669583507,0.7964295452260909,0.11550643651672002
737,41.721,41.27,2.4,0.9168228833734601,0.03153283427368533,0.8235397260836266,0.3242559484475105,0.7983572210245166,0.11519984018892564
738,41.825,41.32,2.43,0.9193933831941173,0.031800740766088444,0.8252708517805132,0.3237468497287142,0.800235203391336,0.11484648835532203
739,41.865,41.38,2.33,0.9219247233269896,0.03205880336693762,0.8269370032740314,0.32318475034811894,0.8020631171229463,0.11444666870968544
740,41.885,41.43,2.38,0.9244161610031596,0.03230702041868713,0.8285376768724911,0.3225699621403685,0.8038406026345357,0.11400070149308017
741,41.947,41.49,2.45,0.9268669697324682,0.03254539966687859,0.8300724127124834,0.3219028284568358,0.8055673160852187,0.11350893951333833
742,42.008,41.54,2.39,0.929276439401551,0.03277395826750384,0.8315407952140773,0.3211837236537535,0.807242929511861,0.11297176816466635
743,42.048,41.6,2.37,0.9316438763714102,0.03299272280239187,0.8329424535039605,0.32041305257830577,0.808867130971475,0.11238960544676442
744,42.11,41.65,2.46,0.9339686035749835,0.03320172930234878,0.8342770618059226,0.3195912500533048,0.8104396246920107,0.1117629019828352
745,42.174,41.71,2.38,0.9362499606150988,0.033401023277924186,0.8355443397980858,0.31871878036107426,0.8119601312313274,0.11109214103569372
746,42.236,41.76,2.31,0.9384873038631498,0.03359065975765346,0.8367440529362671,0.3177961367271025,0.8134283876440653,0.11037783852094762
747,42.299,41.82,2.42,0.9406800065587777,0.033770703333446055,0.8378760127428372,0.3168238408039085,0.8148441476560716,0.10962054301596053
748,42.32,41.87,2.45,0.9428274589108232,0.03394122821249514,0.8389400770604175,0.31580244215541303,0.8162071818459485,0.10882083576311628
749,42.38,41.92,2.38,0.9449290681998068,0.03410231827478707,0.8399361502697623,0.31473251774193406,0.8175172778331904,0.10797933066584868
750,42.441,41.98,2.48,0.9469842588821759,0.034254067135117354,0.8408641834711781,0.313614671405807,0.8187742404722912,0.10709667427594241
751,42.586,42.03,2.56,0.948992472696555,0.034396578208517326,0.841724174628836,0.31244953335757325,0.8199778920521696,0.10617354577066512
752,42.606,42.09,2.5,0.9509531687722375,0.03452996477811608,0.8425161686773586,0.3112377596626835,0.8211280725002305,0.10521065691835293
753,42.627,42.15,2.52,0.9528658237401789,0.03465435006467696,0.8432402575901188,0.309980031728703,0.8222246395903948,0.10420875203115755
754,42.668,42.2,2.63,0.9547299318467443,0.034769867297335263,0.8438965804087926,0.3086770557930536,0.8232674691544595,0.1031686079037126
755,42.709,42.26,2.59,0.9565450050704623,0.03487665978534486,0.8444853232338729,0.30732956241132364,0.8242564552961653,0.10209103373649576
756,42.771,42.31,2.56,0.958310573242037,0.034974880990868755,0.8450067191760084,0.3059383059461036,0.8251915106073804,0.10097687104267078
757,42.834,42.37,2.67,0.9600261841678437,0.035064694602972166,0.8454610482680965,0.3045040640562123,0.8260725663858084,0.09982699353714092
758,42.917,42.42,2.67,0.9616914037571386,0.03514627461295749,0.8458486373381061,0.30302763718605363,0.82689957285365,0.0986423070064163
759,42.937,42.48,2.58,0.9633058161532059,0.03521980539100499,0.84616985984261,0.3015098480547255,0.8276724993766462,0.09742374915774353
760,42.999,42.53,2.61,0.9648690238686682,0.03528548176385523,0.8464251356610307,0.2999515411444178,0.8283913346829238,0.09617228944578714
761,43.041,42.59,2.65,0.966380647925182,0.03534350909303296,0.8466149308506304,0.2983535821875777,0.8290560870810597,0.09488892887501839
762,43.143,42.64,2.58,0.9678403279977096,0.035394103352936426,0.8467397573623704,0.2967168576522862,0.8296667846767385,0.09357469977593727
763,43.163,42.7,2.63,0.9692477225634991,0.03543749120803932,0.8468001727178325,0.2950422742253142,0.8302234755873075,0.09223066555334967
764,43.225,42.75,2.74,0.9706025090557954,0.03547391008847454,0.8467967796474285,0.2933307582924283,0.830726228153476,0.09085792040506163
765,43.286,42.81,2.71,0.97190438402223,0.035503608263315306,0.8467302256901441,0.29158325541562186,0.8311751311473414,0.0894575890094745
766,43.307,42.86,2.7,0.9731530632877898,0.03552684491092934,0.8466012027551051,0.28980072980700644,0.8315702939759201,0.08803082618065959
767,43.368,42.92,2.87,0.9743482821222438,0.03554389018585521,0.8464104466452876,0.2879841637991072,0.8319118468793739,0.08657881648953404
768,43.429,42.97,2.87,0.9754897954119379,0.03555502528168651,0.8461587365438228,0.28613455731123405,0.8321999411231861,0.08510277384974603
769,43.472,43.03,2.82,0.9765773778359262,0.03556054248938813,0.845846894463507,0.28425292731144974,0.8324347491835998,0.08360394106685885
770,43.532,43.08,2.89,0.977610824046507,0.03556074525030225,0.8454757846603235,0.2823403072734793,0.8326164649257255,0.08208358934935872
771,43.595,43.14,2.91,0.978589948854352,0.03555594820286627,0.8450463130119323,0.28039774662775474,0.8327453037738164,0.08054301777992968
772,43.657,43.19,2.82,0.9795145874185119,0.035546477221875455,0.844559426362183,0.2784263102057222,0.8328215028732896,0.07898355274546802
773,43.718,43.25,2.87,0.9803845954415992,0.03553266944907263,0.8440161118326545,0.27642707767661145,0.8328453212441039,0.0774065473245131
774,43.8,43.3,2.92,0.9811998493704217,0.035514873313928226,0.8434173961021205,0.2744011429760362,0.8328170399251187,0.0758133806310973
775,43.82,43.35,2.85,0.9819602466022758,0.035493448543591884,0.8427643446547565,0.2723496137259832,0.8327369621090511,0.07420545711437805
776,43.882,43.41,2.82,0.9826657056970176,0.03546876616112577,0.8420580609978432,0.2702736106459395,0.8326054132676313,0.0725842058137611
777,43.922,43.47,2.93,0.983316166594918,0.03544120847125323,0.8412996858496357,0.2681742669551197,0.8324227412665344,0.07095107956946882
778,44.025,43.52,2.89,0.983911590840173,0.035411169032903284,0.8404903962979673,0.2660527277659012,0.8321893164696585,0.06930755418862233
779,44.046,43.58,2.84,0.9844519618098002,0.035379052617774284,0.8396314049301014,0.26391014946860486,0.8319055318322816,0.06765512756693196
780,44.086,43.63,2.92,0.9849372849475307,0.03534527515400014,0.8387239589342818,0.26174769910767504,0.8315718029826268,0.06599531876603922
781,44.148,43.69,2.94,0.9853675880022009,0.035310263653823656,0.8377693391734189,0.2595665537491725,0.8311885682913629,0.0643296670464972
782,44.211,43.74,2.85,0.985742921270087,0.03527445612405912,0.836768859231339,0.257367899839356,0.8307562889285769,0.0626597308564528
783,44.252,43.8,2.92,0.9860633578405527,0.03523830145815208,0.8357238644320253,0.2551529325540511,0.8302754489077531,0.06098708677633876
784,44.313,43.85,3.0,0.98632899384431,0.03520225930880754,0.8346357308323061,0.2529228551385043,0.8297465551163073,0.05931332842024439
785,44.395,43.91,2.94,0.986539948703532,0.03516679994036593,0.833505864188488,0.2506788782374953,0.8291701373322334,0.05764006529509805
786,44.437,43.96,2.94,0.986696365383017,0.03513240406031518,0.8323356988974503,0.24842221921563704,0.828546748226434,0.05596892161929878
787,44.477,44.02,3.03,0.986798410641581,0.035099562629514476,0.8311266969127203,0.24615410146798639,0.8278769633503493,0.05430153510285005
788,44.519,44.07,2.97,0.9868462752828525,0.03506877665086401,0.8298803466361075,0.24387575372120218,0.8271613811085354,0.05263955569131388
789,44.58,44.13,2.89,0.9868401744046151,0.035040556936294646,0.8285981617855688,0.24158840932547826,0.8264006227158951,0.05098464427603762
790,44.642,44.18,2.96,0.9867803476457853,0.03501542385203902,0.8272816802400699,0.23929330553740386,0.8255953321392806,0.049338471373121806
791,44.683,44.24,2.93,0.9866670594300577,0.03499390704210963,0.8259324628622794,0.2369916827937942,0.8247461760232042,0.04770271577351712
792,44.766,44.29,2.81,0.9865005992052026,0.03497654512975743,0.8245520922999651,0.23468478397643244,0.8238538435993559,0.046079063166570615
793,44.808,44.35,2.88,0.9862812816769326,0.034963885396515425,0.8231421717669498,0.2323738536676259,0.8229190465795808,0.04446920473931802
794,44.869,44.4,2.96,0.9860094470362125,0.03495648343829294,0.821704323804415,0.2300601373965144,0.8219425190319032,0.04287483575379409
795,44.931,44.46,2.87,0.9856854611788087,0.03495490279791708,0.8202401890232769,0.22774488087616818,0.8209250172391208,0.0412976541046215
796,44.993,44.51,2.86,0.9853097159157935,0.0349597145735793,0.8187514248282857,0.22542932923168257,0.8198673195394477,0.03973935885912747
797,45.074,44.57,2.95,0.9848826291736299,0.034971497002848316,0.8172397041244408,0.2231147262196776,0.8187702261486733,0.038201648782184905
798,45.114,44.62,2.89,0.9844046451824214,0.03499083502219051,0.8157067140062939,0.22080231343974938,0.8176345589633175,0.036686220847941375
799,45.134,44.67,2.88,0.9838762346509016,0.03501831980224368,0.8141541544307084,0.21849332953847644,0.8164611613442656,0.035194768740638836
800,45.195,44.73,3.01,0.9832978949267609,0.03505454825936579,0.8125837368736248,0.2161890094065916,0.8152508978803724,0.03372898134676714
801,45.236,44.78,2.99,0.9826701501409537,0.03510012254413308,0.810997182971357,0.21389058336990663,0.8140046541315386,0.03229054124072923
802,45.297,44.84,2.91,0.9819935513346885,0.03515564950746264,0.8093962231469247,0.21159927637454637,0.8127233363508051,0.030881123165993857
803,45.359,44.9,2.97,0.9812686765678535,0.03522174014495072,0.8077825952219262,0.2093163071670283,0.8114078711850653,0.029502392513387255
804,45.42,44.95,3.0,0.980496131007677,0.03529900901990174,0.8061580430145118,0.20704288746969032,0.8100592053540655,0.028156003797824083
805,45.502,45.01,2.88,0.9796765469964211,0.035388073665425436,0.804524314924151,0.2047802211519121,0.8086783053074142,0.02684359913457972
806,45.523,45.06,2.89,0.9788105840969025,0.035489553965958105,0.8028831625040376,0.20252950339753262,0.8072661568593373,0.02556680671618865
807,45.564,45.12,2.97,0.9778989291145717,0.03560407151861611,0.8012363390220947,0.20029191986888384,0.8058237648009124,0.02432723929114728
808,45.626,45.17,2.9,0.9769422960948572,0.035732248974887165,0.7995855980116471,0.198068645867908,0.804352152489506,0.02312649264575945
809,45.729,45.23,2.89,0.9759414262944368,0.035874709363298056,0.7979326918128815,0.19586084549488553,0.8028523614151053,0.02196614409065777
810,45.749,45.28,3.04,0.974897088125069,0.0360320753938398,0.796279370106246,0.19366967080534553,0.8013254507432251,0.020847750953657564
811,45.855,45.34,3.02,0.9738100770685917,0.03620496874504261,0.7946273784389803,0.19149626096572764,0.799772496834088,0.019772849080599685
812,45.875,45.39,2.98,0.9726812155617411,0.036394009334655024,0.7929784567460352,0.18934174140830587,0.7981945927378209,0.018742951345745714
813,45.915,45.45,3.06,0.9715113528495098,0.036599814574911245,0.7913343378667215,0.1872072229858152,0.7965928476654941,0.01775954617311283
814,45.977,45.5,3.07,0.9703013648058962,0.036822998613379516,0.789696746058557,0.18509380112615706,0.7949683864359364,0.016824096069949366
815,46.039,45.56,3.01,0.9690521537210287,0.03706417156041328,0.7880673955098947,0.18300255498755033,0.7933223488983656,0.01593803617348505
816,46.08,45.61,3.08,0.9677646480537858,0.03732393870432691,0.7864479888529582,0.18093454661460123,0.7916558893309585,0.01510277281221169
817,46.121,45.67,3.16,0.9664398021491529,0.03760289971558065,0.7848402156788719,0.17889082009596388,0.7899701758155702,0.01431968208317301
818,46.182,45.72,3.09,0.9650785959197097,0.03790164784146147,0.7832457510562493,0.17687240072446964,0.7882663895888911,0.01359010844699126
819,46.224,45.78,3.07,0.9636820344907633,0.03822076909295328,0.7816662540548767,0.17488029416077394,0.7865457243704289,0.012915363342528017
820,46.287,45.83,3.16,0.9622511478088022,0.038560841425654684,0.7801033662760313,0.17291548560169498,0.784809385667807,0.012296723823071483
821,46.348,45.89,3.06,0.9607869902130795,0.038922433916657034,0.7785587103909845,0.17097893895448088,0.7830585900599882,0.011735431215773612
822,46.41,45.94,3.0,0.959290639970263,0.03930610593926446,0.7770338886892739,0.1690715960182557,0.7812945644591087,0.011232689805840844
823,46.472,46.0,3.07,0.9577631987721534,0.039712406337346524,0.7755304816383387,0.16719437567389647,0.7795185453516724,0.010789665546780305
824,46.513,46.05,3.07,0.9562057911965157,0.040141872600947155,0.7740500464561445,0.16534817308358454,0.7777317780198759,0.010407484797839671
825,46.596,46.1,3.0,0.9546195641310885,0.0405950300445564,0.7725941156984707,0.16353385890125688,0.7759355157438504,0.010087233089685389
826,46.617,46.16,3.08,0.9530056861608563,0.04107239098926131,0.7711641958625592,0.16175227849519727,0.7741310189856151,0.009829953919311601
827,46.679,46.22,3.12,0.9513653469186988,0.04157445394987941,0.7697617660088174,0.16000425118406134,0.7723195545555738,0.009636647575135058
828,46.72,46.27,3.04,0.9496997563996135,0.04210170282815637,0.7683882764022713,0.15829056948770304,0.7705023947624533,0.00950826999325438
829,46.782,46.33,3.04,0.9480101442388277,0.042654606113195666,0.7670451471754766,0.15661199839426632,0.7686808165476565,0.009445731645932575
830,46.843,46.38,3.12,0.9462977589542426,0.04323361609040729,0.7657337670146616,0.15496927464509447,0.7668561006051074,0.009449896463446052
831,46.904,46.44,3.03,0.9445638671538304,0.043839168060326845,0.7644554918709903,0.15336310603906347,0.7650295304877466,0.009521580790519932
832,46.985,46.49,2.94,0.9428097527087784,0.044471679568668626,0.7632116436989347,0.151794170757958,0.7632023917019021,0.00966155237866219
833,47.027,46.55,3.02,0.9410367158933319,0.04513154964897256,0.7620035092237609,0.15026311671451922,0.7613759707908199,0.009870529415771673
834,47.048,46.6,2.97,0.9392460724924359,0.04581915807918336,0.760832338740107,0.1487705609247883,0.7595515544086626,0.010149179594397059
835,47.13,46.66,2.86,0.9374391528783794,0.04653486465344538,0.759699344943575,0.14731708890633277,0.7577304283862946,0.010498119220006357
836,47.172,46.71,2.87,0.935617301057719,0.047279008470329745,0.7586057017971886,0.14590325410390306,0.7559138767901542,0.010917912360561848
837,47.232,46.77,2.84,0.9337818736898094,0.048051907238611746,0.7575525434344766,0.14452957734401967,0.7541031809755026,0.011409070038562136
838,47.337,46.82,2.73,0.9319342390782941,0.04885385660160446,0.756540963100877,0.14319654631994086,0.7522996186352988,0.011972049466593802
839,47.356,46.88,2.75,0.9300757761368923,0.049685129480996404,0.755572012135048,0.14190461510842578,0.7505044628458947,0.012607253327398635
840,47.397,46.93,2.81,0.9282078733307514,0.050545975441169434,0.7546466989915774,0.14065420371968815,0.7487189811106689,0.0133150290995041
841,47.439,46.99,2.74,0.9263319275945622,0.05143662007506553,0.7537659883064923,0.13944569768189888,0.7469444344026499,0.014095668429589737
842,47.5,47.04,2.71,0.9244493432285691,0.05235726441280461,0.7529308000069009,0.13827944766154643,0.745182076207123,0.014949406552943002
843,47.561,47.1,2.79,0.9225615307735879,0.053308084354401236,0.7521420084660332,0.13715576912089902,0.7434331515652135,0.015876421763481495
844,47.622,47.15,2.75,0.9206699058661821,0.05428923012800048,0.7514004417049106,0.13607494201371306,0.7416988961194393,0.016876834934835883
845,47.705,47.21,2.68,0.9187758880752275,0.05530082577502519,0.7507068806418409,0.13503721052018913,0.7399805351622607,0.01795070909391461
846,47.726,47.26,2.74,0.9168808997212106,0.056342968663498916,0.7500620583908922,0.1340427828220253,0.7382792826886788,0.019098049048229777
847,47.787,47.32,2.74,0.9149863646797389,0.057415729030606266,0.7494666596104459,0.1330918309182528,0.7365963404539712,0.020318801068099877
848,47.828,47.37,2.62,0.9130937071708677,0.0585191495553409,0.7489213199028962,0.1321844904823786,0.7349328970376817,0.021612852624742263
849,47.891,47.42,2.62,0.9112043505359346,0.059653244961974355,0.7484266252665203,0.13132086076122923,0.7332901269149906,0.02298003218524817
850,47.952,47.48,2.65,0.9093197160036239,0.06081800165508967,0.7479831116005015,0.13050100451580324,0.7316691895366001,0.024420109065458225
851,48.014,47.53,2.54,0.9074412214469796,0.06201337738702458,0.7475912642640454,0.1297249480043651,0.7300712284182453,0.025932793341816623
852,48.056,47.59,2.48,0.9055702801330331,0.06323930095872507,0.7472515176904688,0.12899268100795477,0.7284973702408978,0.0275177358233424
853,48.119,47.65,2.54,0.9037082994666603,0.06449567195513727,0.7469642550570419,0.1283041568984507,0.7269487239626705,0.02917452808482262
854,48.181,47.7,2.51,0.9018566797302204,0.06578236051627136,0.7467298080112723,0.12765929274926832,0.7254263799433667,0.03090270256218853
855,48.223,47.76,2.47,0.9000168128205166,0.06709920714491689,0.7465484564542062,0.1270579694886858,0.7239314090825376,0.0327017327108541
856,48.265,47.81,2.57,0.898190080984604,0.06844602255172523,0.7464204283812147,0.12650003209568,0.7224648619718569,0.03457103322758674
857,48.327,47.87,2.57,0.8963778555559814,0.06982258753806701,0.7463458997806334,0.1259852898380282,0.7210277680625965,0.036509960336241425
858,48.388,47.92,2.48,0.8945814956927339,0.07122865291679671,0.7463249945905338,0.12551351655229928,0.7196211348490088,0.038517812137456205
859,48.43,47.98,2.52,0.8928023471192211,0.07266393947087207,0.7463577847138279,0.1250844509652679,0.7182459470684639,0.040593829022215394
860,48.492,48.03,2.58,0.8910417408729552,0.07412813794967889,0.74644429009182,0.12469779705624574,0.7169031659192538,0.042737194149066744
861,48.534,48.09,2.47,0.8893009920583633,0.07562090910291948,0.74658447883624,0.12435322445983137,0.7155937282970213,0.044947033984781774
862,48.596,48.14,2.47,0.8875813986091639,0.07714188375205977,0.7467782674196835,0.12405036890863401,0.7143185460507976,0.047222418908360715
863,48.658,48.2,2.52,0.8858842400611197,0.07869066289952813,0.7470255209242989,0.12378883271559431,0.713078505259664,0.04956236387839044
864,48.719,48.25,2.43,0.8842107763369809,0.08026681787603254,0.7473260533485032,0.1235681852955524,0.7118744655310577,0.05196582916382009
865,48.803,48.31,2.34,0.8825622465454538,0.0818698905264819,0.7476796279714725,0.12338796372569703,0.7107072593217401,0.05443172113821177
866,48.822,48.36,2.36,0.8809398677960033,0.08349939343507741,0.74808595777508,0.12324767334448496,0.7095776912824147,0.05695889313741661
867,48.863,48.42,2.32,0.8793448340312148,0.08515481019014373,0.7485447059228875,0.1231467883885302,0.7084865376269379,0.0595461463804374
868,48.924,48.47,2.23,0.8777783148783475,0.08683559568917748,0.7490554862957273,0.1230847526668303,0.7074345455269775,0.06219223095305708
869,48.986,48.53,2.32,0.8762414545215854,0.08854117648444883,0.7496178640833302,0.12306098027156422,0.7064224325328726,0.0648958468536316
870,49.048,48.58,2.36,0.8747353705963887,0.09027095116932518,0.7502313564313657,0.1230748563245885,0.7054508860213521,0.0676556451002303
871,49.089,48.64,2.27,0.8732611531072733,0.09202429080531727,0.7508954331431829,0.12312573775868199,0.7045205626706916,0.07047022889808471
872,49.169,48.69,2.3,0.8718198633703169,0.09380053938972623,0.7516095174354496,0.12321295413256345,0.7036320879638658,0.07333815486614949
873,49.21,48.75,2.37,0.8704125329817266,0.09559901436371451,0.7523729867467924,0.12333580847872609,0.702786055720261,0.07625793432146376
874,49.271,48.8,2.3,0.8690401628138843,0.09741900716060922,0.7531851735984565,0.12349357818315948,0.7019830276565439,0.07922803461995785
875,49.333,48.85,2.27,0.8677037220403777,0.09925978379427398,0.7540453665059592,0.12368551589602869,0.701223532977304,0.08224688055235344
876,49.374,48.91,2.35,0.8664041471916071,0.10112058548742976,0.7549528109406889,0.1239108504723335,0.7005080679961121,0.08531285579377601
877,49.435,48.97,2.29,0.8651423412426128,0.10300062933979687,0.7559067103404183,0.12416878794145712,0.6998370957876546,0.08842430440563778
878,49.558,49.02,2.19,0.8639191727348176,0.10489910903584032,0.7569062271677408,0.12445851250435452,0.6992110458716077,0.09157953238828487
879,49.578,49.08,2.21,0.86273547493342,0.10681519559169728,0.7579504840154103,0.12477918755698625,0.6986303139289111,0.09477680928284737
880,49.598,49.13,2.15,0.8615920450222251,0.10874803814054332,0.7590385647575243,0.12512995673847613,0.6980952615510756,0.09801436982065675
881,49.639,49.19,2.01,0.8604896433377349,0.11069676475529057,0.7601695157454305,0.1255099450023529,0.6976062160230938,0.10129041561857569
