,Time_Host,Time_Arduino,easingdata,CH1_Oxy,CH1_Deoxy,CH2_Oxy,CH2_Deoxy,CH3_Oxy,CH3_Deoxy
0,1.357,0.04,0.0,0.7961710962870397,0.6645536865016729,0.8353246452473551,0.5938390273083427,0.5588199258520896,0.3340302160016474
1,1.377,0.1,0.0,0.7998946306024632,0.66452880621992,0.8413075640455625,0.5961650436248191,0.5660879329088809,0.34718598832576547
2,1.398,0.16,0.0,0.8036454203273727,0.664514050593041,0.8472309456299619,0.5984521502645486,0.5733767369887914,0.3602999267321186
3,1.419,0.21,0.0,0.8074214559964226,0.6645099403729713,0.8530908619218823,0.600699704981533,0.5806833764844316,0.3733669726395609
4,1.44,0.27,0.0,0.8112206870768558,0.6645169976205357,0.8588834151860469,0.602907110613393,0.5880048688943647,0.3863821146435618
5,1.461,1.06,0.0,0.8150410236562333,0.6645357449865207,0.86460474251813,0.6050738156402914,0.5953382134491221,0.39934039311415626
6,1.482,1.11,0.0,0.8188803381899153,0.6645667049726113,0.8702510203066116,0.6071993146626703,0.6026803937622034,0.41223690470875907
7,1.523,1.17,0.0,0.8227364673053145,0.6646103991733344,0.8758184686590255,0.6092831487968385,0.6100283805019285,0.42506680679327286
8,1.584,1.22,0.0,0.8266072136597608,0.6646673475002447,0.8813033557825296,0.6113249059876446,0.617379134079897,0.43782532176504874
9,1.687,1.28,0.0,0.8304903478486281,0.6647380673896922,0.8867020023085612,0.6133242212376624,0.6247296073516985,0.45050774127137205
10,1.708,1.33,0.38,0.8343836103601876,0.6648230729956117,0.8920107855511626,0.6152807767525105,0.6320767483253974,0.4631094303172484
11,1.77,1.39,0.36,0.8382847135734505,0.6649228743689019,0.8972261436884047,0.6171943020021456,0.6394175028732092,0.4756258312563386
12,1.812,1.44,0.41,0.8421913437950885,0.6650379766251294,0.9023445798562695,0.6190645736982241,0.6467488174417482,0.4880524676589273
13,1.853,1.5,0.75,0.8461011633314649,0.6651688791024666,0.9073626661445895,0.6208914156878541,0.6540676417562672,0.5003849480508645
14,1.914,1.55,0.84,0.8500118125919222,0.6653160745118586,0.9122770474852202,0.6226746987642132,0.6613709315144413,0.5126189695176115
15,1.976,1.61,0.89,0.8539209122196635,0.6654800480814579,0.9170844454234076,0.6244143403946482,0.6686556510653942,0.5247503211679367
16,2.059,1.66,0.91,0.857826065246667,0.6656612766974478,0.9217816617640185,0.6261103043671651,0.675918776069851,0.5367748874523529
17,2.08,1.72,1.11,0.8617248592690953,0.6658602280435161,0.9263655820849708,0.6277626003566098,0.6831572961374918,0.548688651331956
18,2.142,1.77,1.09,0.8656148686396964,0.6660773597413567,0.9308331791108628,0.6293712834121753,0.6903682174377498,0.5604876972939182
19,2.184,1.83,1.12,0.8694936566737417,0.6663131184946234,0.9351815159404703,0.6309364533681384,0.6975485652804138,0.5721682142105513
20,2.247,1.88,1.49,0.873358777865086,0.6665679392387445,0.9394077491223887,0.6324582541799427,0.7046953866624828,0.5837264980395183
21,2.309,1.94,1.43,0.8772077801089793,0.6668422442989423,0.9435091315737092,0.6339368731878873,0.7118057527778009,0.595158954363329
22,2.35,1.99,1.46,0.8810382069282892,0.6671364425586956,0.9474830153372231,0.6353725403108081,0.7188767614861087,0.6064621007666952
23,2.473,2.05,1.77,0.8848475996998071,0.6674509286408309,0.9513268541733176,0.6367655271722403,0.7259055397382885,0.6176325690506596
24,2.493,2.1,1.82,0.8886334998773722,0.667786082103371,0.9550382059835626,0.6381161461615954,0.7328892459547458,0.6286671072827335
25,2.534,2.16,1.85,0.8923934512086825,0.6681422666521999,0.9586147350638907,0.6394247494329136,0.7398250723540337,0.6395625816826311
26,2.596,2.21,1.98,0.8961250019427823,0.668519829372574,0.9620542141860583,0.6406917278438972,0.746710247229004,0.6503159783435667
27,2.658,2.27,2.18,0.8998257070253033,0.6689190999815376,0.9653545265067125,0.6419175098381826,0.7535420371679515,0.6609244047894058
28,2.699,2.32,2.14,0.9034931302786531,0.6693403901033097,0.9685136673039889,0.6431025602740472,0.7603177492184071,0.6713850913682881
29,2.779,2.38,2.15,0.9071248465644546,0.669783992569687,0.9715297455420543,0.6442473792029367,0.7670347329914026,0.6816953924836344
30,2.799,2.43,2.47,0.9107184439256063,0.670250180747477,0.974400985264357,0.6453525006014104,0.7736903827041981,0.6918527876637345
31,2.841,2.49,2.33,0.9142715257053894,0.6707392078949247,0.9771257268165879,0.646418491060283,0.7802821391596181,0.7018548824713484
32,2.903,2.54,2.29,0.9177817126410671,0.6712513065490425,0.9797024279005658,0.6474459484349139,0.786807491660277,0.7116994092550067
33,2.964,2.6,2.55,0.9212466449294092,0.6717866879457216,0.9821296644604662,0.6484355004607213,0.7932639798561061,0.7213842277439049
34,3.025,2.65,2.59,0.9246639842615889,0.6723455414744222,0.9844061314031264,0.6493878033380377,0.7996491955236981,0.730907325488496
35,3.088,2.71,2.61,0.9280314158249512,0.6729280341690975,0.9865306431544929,0.6503035402903475,0.805960784276067,0.7402668181490991
36,3.149,2.76,2.72,0.9313466502691905,0.6735343102368588,0.9885021340545558,0.6511834200998831,0.8121964472015072,0.7494609496350546
37,3.191,2.82,2.91,0.9346074256345267,0.6741644906257623,0.9903196585933454,0.6520281756245114,0.8183539424303595,0.7584880920971463
38,3.233,2.87,2.88,0.9378115092395898,0.6748186726329927,0.991982391490844,0.6528385622997726,0.8244310866286383,0.7673467457761738
39,3.314,2.93,2.91,0.940956699526907,0.6754969295546006,0.9934896276239445,0.6536153566298286,0.8304257564176313,0.7760355387107438
40,3.354,2.98,3.26,0.9440408278640587,0.6761993103778552,0.9948407818037934,0.6543593546710141,0.836335889718751,0.7845532263074956
41,3.417,3.04,3.14,0.9470617602987695,0.6769258395171857,0.9960353884070442,0.6550713705116131,0.8421594870230871,0.7928986907771208
42,3.519,3.09,3.09,0.950017399266383,0.6776765165946027,0.9970731008646778,0.6557522347514583,0.8478946125852823,0.8010709404396664
43,3.54,3.15,3.31,0.9529056852483307,0.6784513162654596,0.9979536910121719,0.6564027929849534,0.853539395541532,0.8090691089027146
44,3.582,3.2,3.3,0.9557245983804156,0.6792501880903374,0.998677048304995,0.6570239042910706,0.8590920309516707,0.8168924541161431
45,3.643,3.26,3.3,0.9584721600099829,0.6800730564536829,0.999243178903612,0.6576164397337655,0.8645507807654372,0.8245403573073097
46,3.745,3.31,3.36,0.9611464342012408,0.6809198205296539,0.9996522046322959,0.6581812808761541,0.8699139747130971,0.8320123218006501
47,3.765,3.37,3.58,0.9637455291881305,0.6817903542954804,0.9999043618160569,0.6587193183117487,0.8751800111207048,0.8393079717257944
48,3.785,3.42,3.51,0.9662675987742615,0.6826845065924927,1.0,0.6592314502159875,0.8803473576503843,0.8464270506183463
49,3.888,3.48,3.49,0.9687108436795611,0.6836021012348205,0.999939580555425,0.659718580921221,0.8854145519661296,0.8533694199174968
50,3.908,3.53,3.82,0.9710735128333956,0.6845429371656118,0.9997236751769679,0.6601816195182394,0.8903802023257492,0.8601350573646233
51,3.949,3.59,3.68,0.973353904614041,0.6855067886604894,0.9993529642750643,0.6606214784873254,0.8952429880997257,0.8667240553070179
52,4.011,3.64,3.6,0.9755503680344599,0.6864934055778489,0.9988282352679821,0.6610390723617331,0.9000016602178953,0.8731366189108976
53,4.053,3.7,3.79,0.9776613038743873,0.6875025136555402,0.9981503807776375,0.6614353164264186,0.90465504154499,0.8793730642878552
54,4.112,3.75,3.77,0.9796851657587903,0.6885338148533838,0.9973203967334614,0.6618111254547024,0.9092020271862022,0.8854338165389101
55,4.175,3.81,3.74,0.9816204611828896,0.6895869877408036,0.9963393803887217,0.6621674124852247,0.9136415847240127,0.8913194077203309
56,4.256,3.86,3.72,0.9834657524840542,0.6906616879286488,0.995208528253834,0.6625050876411648,0.9179727543875696,0.8970304747354603
57,4.276,3.92,3.85,0.9852196577609742,0.691757548544092,0.9939291339512919,0.6628250569932819,0.9221946491559557,0.9025677571567827
58,4.378,3.97,3.71,0.9868808517406373,0.6928741807472932,0.9925025859969442,0.6631282214679645,0.9263064547967176,0.9079320949824797
59,4.399,4.03,3.63,0.9884480665937245,0.694011174288349,0.9909303655123928,0.6634154758011769,0.9303074298410483,0.9131244263316988
60,4.462,4.08,3.95,0.9899200926990686,0.6951680981029011,0.9892140438732426,0.6636877075389648,0.9341969054970167,0.9181457850827328
61,4.524,4.14,3.83,0.9912957793577838,0.6963445009446764,0.9873552802978868,0.6639457960849962,0.9379742855022215,0.9229972984582908
62,4.625,4.19,3.77,0.9925740354576229,0.6975399120531557,0.9853558193814087,0.6641906117954646,0.9416390459172337,0.9276801845620293
63,4.646,4.25,3.95,0.9937538300880403,0.6987538418545886,0.98321748857913,0.6644230151216042,0.9451907348612103,0.9321957498705067
64,4.667,4.3,3.97,0.9948341931064463,0.699985782694582,0.9809421956443544,0.6646438557999694,0.9486289721911085,0.9365453866846503
65,4.729,4.36,3.95,0.9958142156562463,0.7012352096004723,0.9785319260249985,0.6648539720904623,0.9519534491259892,0.9407305705447785
66,4.771,4.41,3.96,0.9966930506373823,0.7025015810716494,0.9759887402238823,0.6650541900619243,0.9551639278179271,0.944752857613156
67,4.831,4.47,4.13,0.9974699131301863,0.7037843398960145,0.973314771127464,0.6652453229250018,0.9582602408711244,0.9486138820279949
68,4.892,4.52,4.0,0.9981440807734907,0.7050829139907284,0.9705122213078506,0.6654281704118589,0.9612422908108672,0.9523153532327255
69,5.036,4.58,3.89,0.9987148940980827,0.7063967172653682,0.9675833603029562,0.6656035182021725,0.9641100495040247,0.9558590532842621
70,5.056,4.63,4.16,0.999181756816701,0.7077251505055716,0.9645305218797751,0.6657721373946884,0.9668635575328278,0.9592468341439022
71,5.077,4.69,4.02,0.9995441360718652,0.7090676022751898,0.961356101285875,0.6659347840234254,0.9695029235236775,0.9624806149543995
72,5.118,4.74,3.95,0.9998015626428702,0.7104234498349414,0.9580625524943749,0.666092198617432,0.9720283234327298,0.9655623793066834
73,5.179,4.8,4.11,0.9999536311132524,0.7117920600755815,0.9546523854477135,0.6662451058028905,0.9744399997899792,0.968494172499613
74,5.219,4.85,4.15,1.0,0.7131727904636268,0.9511281633055186,0.6663942139462768,0.9767382609035641,0.9712780987960143
75,5.28,4.91,4.1,0.9999403918458352,0.7145649899976464,0.9474924997018465,0.6665402148371642,0.9789234800260055,0.9739163186781248
76,5.362,4.96,4.08,0.9997745932759572,0.7159680001730775,0.943748056016994,0.6666837834091658,0.9809960944840936,0.9764110461054569
77,5.383,5.02,4.26,0.9995024550206998,0.7173811559535193,0.9398975386689592,0.6668255774974691,0.9829566047741635,0.9787645457779909
78,5.444,5.07,4.12,0.9991238919056569,0.7188037867464269,0.9359436964294922,0.6669662376314094,0.9848055736245342,0.9809791304075103
79,5.487,5.13,3.99,0.9986388828109319,0.72023521738109,0.9318893177695274,0.6671063868605228,0.986543625026914,0.9830571579998112
80,5.549,5.18,4.28,0.9980474706012387,0.7216747690867467,0.9277372282385912,0.667246630612518,0.9881714432385627,0.9850010291504284
81,5.611,5.24,4.15,0.9973497620286357,0.7231217604686591,0.9234902878826098,0.6673875565815593,0.9896897717570043,0.9868131843564699
82,5.652,5.29,4.05,0.99654592760969,0.7245755084799909,0.9191513887043545,0.6675297346452146,0.991099412269036,0.9884961013470996
83,5.736,5.35,4.13,0.9956362014787752,0.7260353293874116,0.9147234521705058,0.6676737168084453,0.9924012235757501,0.9900522924351725
84,5.756,5.4,4.14,0.9946208812190865,0.7275005397284668,0.910209426769057,0.6678200371730857,0.9935961204952656,0.9914843018923841
85,5.817,5.46,4.06,0.9935003276728764,0.728970457258798,0.9056122856205294,0.6679692119312672,0.9946850727448199,0.9927947033501688
86,5.877,5.51,4.08,0.992274964732269,0.730444401887329,0.9009350241461668,0.6681217393812742,0.995669103803821,0.9939860972284258
87,5.938,5.57,4.3,0.990945279111817,0.7319216965976013,0.8961806577959168,0.6682780999643805,0.996549289759387,0.9950611081940183
88,6.001,5.62,4.15,0.9895118201037459,0.7334016683535264,0.8913522198386217,0.6684387563212938,0.9973267581358656,0.9960223826508265
89,6.083,5.68,3.99,0.9879751993166528,0.7348836489878904,0.8864527592164796,0.6686041533668867,0.9980026867097989,0.9968725862629447
90,6.104,5.73,4.27,0.9863360903982984,0.7363669760720267,0.8814853384654849,0.668774718381969,0.998578302311802,0.9976144015124254
91,6.164,5.79,4.19,0.9845952287430585,0.7378509937651373,0.8764530317032587,0.6689508611209096,0.9990548796168052,0.9982505252928131
92,6.226,5.84,4.09,0.982753411184498,0.7393350536418312,0.8713589226853589,0.6691329739340066,0.999433739924081,0.9987836665396297
93,6.287,5.9,4.11,0.9808114956733589,0.7408185154966036,0.866206102930762,0.6693214319036641,0.9997162499284288,0.9992165438989142
94,6.327,5.95,4.14,0.9787704009410383,0.742300748124136,0.8609976699167853,0.6695165929936423,0.9999038204838575,0.9995518834348174
95,6.389,6.01,4.0,0.976631106148512,0.7437811300743964,0.8557367253433549,0.6697187982107876,0.9999979053610745,0.9997924163771422
96,6.451,6.06,3.91,0.9743946505205249,0.7452590503815805,0.8504263734661561,0.6699283717787745,1.0,0.9999408769096629
97,6.471,6.12,4.13,0.9720621329646858,0.7467339092660369,0.8450697194978158,0.6701456213235302,0.9999116402584347,1.0
98,6.533,6.17,3.93,0.9696347116748868,0.7482051188084409,0.8396698680758647,0.6703708380701079,0.9997344011578781,0.9999725192717659
99,6.593,6.23,3.83,0.9671136037182261,0.7496721035955808,0.8342299217958856,0.6706042970508149,0.9994698956273782,0.9998611649196202
100,6.655,6.28,4.08,0.9645000846044098,0.7511343013372245,0.8287529798079747,0.6708462573243904,0.9991197732461667,0.999668661667791
101,6.696,6.34,4.03,0.9617954878364791,0.7525911634536101,0.8232421364745268,0.6710969622059337,0.9986857189857441,0.9993977267725583
102,6.758,6.39,3.95,0.9590012044416093,0.7540421556332247,0.8177004800872815,0.6713566395071893,0.9981694519519709,0.9990510680691946
103,6.819,6.45,3.98,0.9561186824805594,0.7554867583607751,0.812131091641432,0.6716255017868222,0.9975727241276591,0.9986313820638789
104,6.879,6.5,4.07,0.9531494265341571,0.7569244674155714,0.8065370436644053,0.6719037466104563,0.9968973191161222,0.9981413520710798
105,6.921,6.56,3.95,0.9500949971650863,0.758354794340792,0.8009213990967622,0.6721915568203772,0.9961450508861049,0.997583646396893
106,6.982,6.61,3.92,0.9469570103532251,0.7597772668842271,0.7952872102225744,0.6724891008148608,0.9953177625184674,0.9969609165688393
107,7.043,6.67,4.18,0.9437371369027915,0.7611914294111451,0.7896375176465913,0.6727965328370886,0.9944173249549411,0.9962757956126618
108,7.105,6.72,3.99,0.9404371018196358,0.7625968432898939,0.7839753493155448,0.6731139932735186,0.9934456357492146,0.9955308963766852
109,7.207,6.78,3.82,0.9370586836571109,0.7639930872507981,0.7783037195809774,0.6734416089614718,0.992404617820568,0.9947288099042942
110,7.228,6.83,3.98,0.9336037138290281,0.7653797577188854,0.7726256283009643,0.6737794935056225,0.9912962182102278,0.9938721038550413
111,7.269,6.89,3.92,0.9300740758882865,0.7667564691209269,0.7669440599780951,0.6741277476030085,0.9901224068405655,0.9929633209748578
112,7.309,6.94,3.86,0.9264717047698569,0.7681228541671964,0.761261982931047,0.6744864593761013,0.9888851752771576,0.9920049776158554
113,7.35,7.0,3.9,0.9227985859968078,0.7694785641082855,0.7555823484969735,0.6748557047134474,0.9875865354935967,0.9909995623062832
114,7.41,7.05,4.06,0.9190567548480221,0.7708232689672875,0.749908090261781,0.6752355476174161,0.986228518638842,0.9899495343712419
115,7.471,7.11,3.95,0.9152482954862924,0.772156657747631,0.7442421233152765,0.6756260405586012,0.9848131738068161,0.9888573226047818
116,7.595,7.16,3.89,0.911375340045577,0.7734784386167938,0.7385873435281307,0.6760272248364025,0.9833425668079121,0.987725323994019
117,7.617,7.22,4.22,0.907440067676346,0.7747883390660889,0.7329466268476085,0.6764391309452815,0.9818187789420609,0.9865559024958859
118,7.636,7.27,4.07,0.9034447035480998,0.7760861060466828,0.7273228286090933,0.6768617789461125,0.9802439057730084,0.9853513878670898
119,7.697,7.33,4.03,0.8993915178082864,0.7773715060820149,0.7217187828605192,0.6772951788419902,0.9786200559034569,0.9841140745478059
120,7.738,7.38,4.2,0.895282824496932,0.778644325356852,0.7161373016969325,0.6777393309578383,0.9769493497507599,0.9828462205995504
121,7.8,7.44,4.13,0.8911209804164236,0.7799043697832709,0.7105811746025741,0.678194226323123,0.9752339183228985,0.9815500466975536
122,7.862,7.49,4.08,0.8869083839560518,0.7811514650438388,0.7050531677981229,0.6786598470568458,0.9734759019945042,0.9802277351778338
123,7.924,7.55,4.04,0.8826474738710504,0.782385456612218,0.699556023590935,0.6791361667538508,0.971677449282703,0.9788814291390909
124,7.985,7.6,4.22,0.8783407280159445,0.7836062097513995,0.6940924597262603,0.6796231508713693,0.9698407156225458,0.977513231599442
125,8.026,7.66,4.09,0.8739906620321256,0.7848136094897029,0.6886651687375168,0.6801207571146134,0.9679678621417823,0.9761252047079277
126,8.069,7.71,4.0,0.8695998279896676,0.7860075605746125,0.6832768172937708,0.6806289358201598,0.9660610544346893,0.9747193690106534
127,8.129,7.77,4.37,0.865170812983507,0.7871879874044276,0.6779300455425605,0.6811476303358371,0.9641224613346553,0.9732977027713386
128,8.192,7.82,4.25,0.8607062376842234,0.7883548339376499,0.6726274664462455,0.6816767773958244,0.9621542536852126,0.9718621413460126
129,8.294,7.88,4.2,0.8562087548438,0.7895080635799877,0.6673716651101331,0.6822163074896972,0.9601586031092255,0.9704145766115673
130,8.335,7.93,4.37,0.8516810477569057,0.7906476590488862,0.6621651981007673,0.6827661452242244,0.9581376807760069,0.9689568564478516
131,8.355,7.99,4.44,0.8471258286784699,0.7917736222155031,0.6570105927529837,0.6833262096767646,0.9560936561662239,0.9674907842728889
132,8.417,8.04,4.4,0.842545837198653,0.7928859739239784,0.6519103464646465,0.6838964147390574,0.9540286958345661,0.9660181186306868
133,8.458,8.1,4.37,0.8379438385766312,0.7939847537877521,0.6468669259782246,0.6844766694501687,0.9519449621702376,0.9645405728310135
134,8.519,8.15,4.56,0.8333226220348698,0.7950700199626275,0.6418827666484944,0.6850668783173698,0.9498446121554588,0.9630598146404039
135,8.58,8.21,4.4,0.8286849990157743,0.7961418488962366,0.6369602716957713,0.6856669416237854,0.9477297961222704,0.9615774660235438
136,8.662,8.26,4.23,0.8240338014027729,0.7972003350535444,0.6321018114441443,0.6862767557217044,0.9456026565080349,0.9600951029340621
137,8.683,8.32,4.49,0.8193718797079631,0.798245590618035,0.6273097225442614,0.6868962133105263,0.9434653266100963,0.9586142551536877
138,8.744,8.37,4.36,0.8147021012284921,0.7992777451682453,0.62258630718032,0.6875252036983535,0.9413199293400917,0.9571364061786654
139,8.785,8.43,4.29,0.8100273481738197,0.8002969453293411,0.617933832261008,0.6881636130462714,0.9391685759784084,0.9556629931523337
140,8.846,8.48,4.42,0.8053505157658725,0.8013033543995548,0.6133545285941918,0.6888113245944404,0.9370133649292663,0.9541954068427607
141,8.927,8.54,4.49,0.8006745103139441,0.8022971519514417,0.6088505900452473,0.6894682188691953,0.9348563804769255,0.9527349916642724
142,8.949,8.59,4.41,0.7960022472661137,0.8032785334080198,0.6044241726791584,0.6901341738703324,0.9326996915435556,0.9512830457416206
143,9.031,8.65,4.39,0.7913366492389103,0.8042477095939528,0.6000773938867786,0.6908090652377441,0.9305453504493559,0.9498408210154706
144,9.092,8.7,4.61,0.7866806440269197,0.8052049062620877,0.5958123314958265,0.6914927663966447,0.92839539167561,0.9484095233878321
145,9.134,8.76,4.45,0.7820371625940273,0.8061503635958178,0.591631022867262,0.6921851486807978,0.9262518306314534,0.946990312905993
146,9.195,8.81,4.3,0.7774091370480094,0.807084335687883,0.5875354639777007,0.6928860814333644,0.9241166624252354,0.9455843039834743
147,9.257,8.87,4.53,0.7727994986002047,0.8080070899963637,0.5835276084885249,0.6935954320851984,0.9219918606414411,0.9441925656564732
148,9.299,8.92,4.43,0.7682111755120354,0.8089189067787427,0.579609366802398,0.6943130662105798,0.9198793761242193,0.9428161218742394
149,9.401,8.98,4.32,0.7636470910301657,0.8098200785050312,0.5757826051079223,0.6950388475605491,0.9177811357685871,0.9414559518218806
150,9.422,9.03,4.31,0.7591101613119874,0.810710909251129,0.5720491444130998,0.6957726380742703,0.9156990413204216,0.9401129902741648
151,9.483,9.09,4.35,0.7546032933429787,0.8115917140737784,0.568410759568128,0.6965142978691524,0.9136349681863695,0.9387881279789214
152,9.504,9.14,4.2,0.750129382847364,0.8124628183686116,0.5648691782779909,0.697263685210698,0.9115907642548337,0.9374822120686878
153,9.565,9.2,4.1,0.745691312193395,0.8133245572128709,0.5614260801052682,0.6980206564632155,0.9095682487291731,0.9361960464992922
154,9.627,9.25,4.33,0.7412919482944438,0.8141772746944841,0.5580830954635498,0.6987850660227249,0.9075692109742348,0.9349303925141053
155,9.689,9.31,4.12,0.7369341405069788,0.8150213232292292,0.5548418046018029,0.6995567662335727,0.9055954093772957,0.9336859691326782
156,9.77,9.36,3.98,0.7326207185263965,0.8158570628677565,0.5517037365800131,0.7003356072904359,0.9036485702244533,0.9324634536624679
157,9.791,9.42,4.16,0.7283544902816006,0.8166848605942314,0.5486703682364341,0.7011214371275397,0.9017303865934941,0.9312634822323049
158,9.833,9.47,4.1,0.7241382398292175,0.8175050896183396,0.5457431231468894,0.7019141012969651,0.8998425172642429,0.9300866503462626
159,9.916,9.53,4.03,0.7199747252483901,0.8183181286623642,0.5429233705767279,0.7027134428379394,0.897986585647377,0.9289335134566595
160,9.957,9.58,4.01,0.7158666765370982,0.8191243612450647,0.5402124244261095,0.7035193021390735,0.8961641787326639,0.9278045875550461
161,10.018,9.64,4.12,0.7118167935109644,0.819924174964162,0.5376115421693497,0.704331516795619,0.8943768460575926,0.9267003497801142
162,10.08,9.69,3.98,0.707827743705557,0.8207179607792673,0.5351219237891481,0.7051499214638624,0.8926260986973801,0.925621239041561
163,10.162,9.75,3.88,0.7039021602833054,0.8215061122970762,0.5327447107066602,0.7059743477147489,0.89091340827736,0.9245676566590325
164,10.183,9.8,4.13,0.7000426399462643,0.8222890250605982,0.5304809847084878,0.7068046238887634,0.889240206008769,0.9235399670153756
165,10.224,9.86,3.92,0.6962517408560901,0.8230670958441014,0.5283317668717801,0.7076405749540163,0.8876078817489592,0.9225384982235187
166,10.266,9.91,3.75,0.6925319805627096,0.8238407219553776,0.526298016488739,0.7084820223693972,0.8860177830870681,0.9215635428063872
167,10.327,9.97,3.88,0.6888858339432095,0.8246103005468969,0.524380629991964,0.7093287839545741,0.8844712144561758,0.9206153583893286
168,10.389,10.02,3.79,0.6853157311525407,0.8253762279373843,0.5225804398822878,0.7101806737684645,0.8829694362729726,0.919694168404588
169,10.452,10.08,3.71,0.6818240555877222,0.826138898945248,0.5208982136610173,0.711037501997577,0.8815136641059014,0.9188001628074526
170,10.515,10.13,3.66,0.6784131418672606,0.8268987062351548,0.5193346527686451,0.7118990748554568,0.880105067872669,0.9179334988037938
171,10.556,10.19,3.82,0.675085273827512,0.8276560396789333,0.5178903915321387,0.7127651944943678,0.8787447710679511,0.9170943015887744
172,10.617,10.24,3.68,0.6718426825377342,0.8284112857318126,0.5165659961229694,0.713635658930241,0.8774338500220632,0.9162826650964925
173,10.678,10.3,3.56,0.6686875443356599,0.8291648268248359,0.5153619635281188,0.7145102619817851,0.8761733331913245,0.9154986527602988
174,10.759,10.35,3.88,0.6656219788855007,0.8299170407741236,0.5142787205364053,0.7153887932245162,0.8749642004808305,0.914742298283489
175,10.78,10.41,3.72,0.662648047260419,0.8306683002075355,0.5133166227426283,0.7162710379603026,0.8738073826003456,0.9140136064200621
176,10.883,10.46,3.61,0.6597677500516219,0.8314189720091955,0.5124759535721891,0.7171567772029095,0.8727037604540329,0.9133125537652677
177,10.903,10.52,3.77,0.6569830255063138,0.8321694167823253,0.5117569233290054,0.7180457876799422,0.8716541645647707,0.9126390895556838
178,10.966,10.57,3.75,0.654295747696864,0.832919988330791,0.5111596682697431,0.7189378418514905,0.8706593745338549,0.9119931364785497
179,10.985,10.63,3.66,0.6517077247237395,0.8336710331596585,0.5106842497076333,0.7198327079456005,0.8697201185369152,0.9113745914900381
180,11.047,10.68,3.61,0.649220696954922,0.8344228899949189,0.5103306531493387,0.7207301500105099,0.868837072856905,0.9107833266421217
181,11.109,10.74,3.75,0.6468363353046563,0.8351758893224817,0.5100987874685052,0.7216299279834087,0.8680108614550398,0.9102191899176525
182,11.15,10.79,3.62,0.6445562395544931,0.8359303529464613,0.5099884841198098,0.72253179777528,0.8672420555805885,0.9096820060732221
183,11.252,10.85,3.48,0.6423819367197326,0.836686593566684,0.5099994963974956,0.7234355113711475,0.8665311734204116,0.9091715774893487
184,11.273,10.9,3.71,0.640314879464476,0.8374449143752266,0.5101314987424943,0.7243408169448667,0.8658786797891376,0.908687685027453
185,11.314,10.96,3.53,0.638356444568574,0.8382056086716755,0.5103840861023012,0.7252474589874164,0.8652849858608526,0.9082300888929756
186,11.397,11.01,3.43,0.6365079314497588,0.8389689594966921,0.5107567733477965,0.7261551784475468,0.8647504489431549,0.9077985295038499
187,11.438,11.07,3.54,0.6347705607441242,0.839735239283473,0.5112489947511497,0.7270637128836204,0.8642753722943921,0.9073927283634047
188,11.5,11.12,3.57,0.6331454729479744,0.8405047095267042,0.5118601035289195,0.7279727966254678,0.8638600049848749,0.9070123889366452
189,11.541,11.18,3.5,0.6316337271239731,0.8412776204685917,0.5125893714544553,0.7288821609450314,0.8635045418028218,0.90665719752877
190,11.604,11.23,3.42,0.6302362996744416,0.842054210801521,0.5134359885436097,0.7297915342345284,0.8632091232057626,0.9063268241647511
191,11.665,11.29,3.6,0.6289540831845352,0.8428347073869311,0.5143990628174935,0.730700642190962,0.862973835318134,0.9060209234687739
192,11.726,11.34,3.44,0.6277878853378939,0.8436193249900665,0.5154776201456377,0.7316092080059549,0.8627987099758044,0.9057391355423167
193,11.767,11.4,3.27,0.6267384279072271,0.8444082660303293,0.5166706041725784,0.7325169525600165,0.8626837248182729,0.9054810868396445
194,11.828,11.45,3.49,0.6258063458221539,0.8452017203470366,0.5179768763306023,0.7334235946204551,0.8626288034292655,0.9052463910395089
195,11.889,11.51,3.38,0.6249921863165171,0.8459998649804479,0.5193952159412376,0.734328851042171,0.8626338155264254,0.9050346499118838
196,11.971,11.56,3.26,0.6242964081572785,0.8468028639679815,0.5209243204079321,0.735232436970578,0.862698577200737,0.9048454541786621
197,11.991,11.62,3.24,0.6237193809569144,0.8476108681556512,0.5225628055021262,0.7361340660459847,0.8628228512062665,0.904678384367324
198,12.032,11.67,3.25,0.6232613845709977,0.8484240150248834,0.5243092057446629,0.7370334506088866,0.8630063473007512,0.9045330116566249
199,12.094,11.73,3.08,0.6229226085824386,0.8492424285349588,0.5261619748842234,0.7379303019057015,0.8632487226374994,0.9044088987133676
200,12.156,11.78,2.97,0.6227031518736222,0.8500662189813759,0.5281194864742053,0.73882433029456,0.8635495822089626,0.9043056005193579
201,12.217,11.84,3.17,0.6226030222874077,0.8508954828704984,0.5301800345491274,0.7397152454508819,0.8639084793422035,0.904222665187705
202,12.297,11.89,2.93,0.6226221363776759,0.851730302810895,0.5323418344012983,0.7406027565725921,0.8643249162463389,0.9041596347676613
203,12.339,11.95,2.81,0.6227603192498559,0.8525707474217858,0.5346030234581415,0.7414865725849179,0.8647983446118879,0.904116046037228
204,12.359,12.0,3.01,0.6230173044916222,0.853416871259012,0.5369616622602729,0.7423664023447776,0.8653281662618088,0.9040914312827555
205,12.421,12.06,2.94,0.6233927341937847,0.8542687147589276,0.5394157355402064,0.7432419548447987,0.865913733853879,0.904085319064768
206,12.482,12.11,2.84,0.6238861590612388,0.8551263042006236,0.541963153401372,0.7441129394170174,0.8665543516339242,0.9040972349693067
207,12.543,12.17,2.85,0.6244970386136462,0.8559896516869735,0.5446017525968725,0.7449790659364213,0.8672492762392956,0.9041267023441703
208,12.585,12.22,2.95,0.6252247414753012,0.8568587551451262,0.5473292979071057,0.7458400450246602,0.8679977175518919,0.9041732430194976
209,12.708,12.28,2.82,0.6260685457535087,0.8577335983471106,0.5501434836151415,0.7466955882543401,0.8687988395999569,0.9042363780122176
210,12.728,12.33,2.74,0.6270276395047704,0.8586141509511791,0.5530419350785324,0.7475454083543395,0.8696517615077802,0.9043156282139759
211,12.749,12.39,2.99,0.6281011212880597,0.8595003685644083,0.5560222103960312,0.7483892194165713,0.8705555584923571,0.9044105150622591
212,12.812,12.44,2.8,0.6292880008044905,0.8603921928269599,0.5590818021674895,0.7492267371045911,0.8715092629059681,0.9045205611945171
213,12.872,12.5,2.65,0.6305871996226806,0.8612895515182959,0.562218139344993,0.7500576788644435,0.8725118653235548,0.9046452910851854
214,12.912,12.55,2.79,0.6319975519890637,0.8621923586855786,0.5654285891730713,0.7508817641381968,0.8735623156736901,0.9047842316655677
215,12.974,12.61,2.72,0.6335178057223446,0.8631005147944241,0.568710459215666,0.7516987145806217,0.8746595244118374,0.9049369129265885
216,13.076,12.66,2.68,0.635146623191239,0.8640139069020486,0.5720609994674661,0.752508254279385,0.8758023637344685,0.9051028685044785
217,13.096,12.72,2.68,0.6368825823745168,0.8649324088527183,0.575477404547086,0.7533101099789913,0.8769896688324651,0.9052816362495261
218,13.137,12.77,2.85,0.6387241780021914,0.8658558814952921,0.5789568159694051,0.754104011308572,0.8782202391820856,0.905472758778045
219,13.198,12.83,2.74,0.6406698227765454,0.8667841729225438,0.582496324494244,0.7548896910134804,0.8794928398716851,0.9056757840076717
220,13.239,12.88,2.67,0.6427178486715679,0.8677171187318088,0.5860929725484101,0.7556668851905161,0.8808062029622794,0.9058902656760505
221,13.32,12.94,3.0,0.6448665083092884,0.8686545423064166,0.5897437567179799,0.7564353335265421,0.8821590288799968,0.9061157638429137
222,13.382,12.99,2.89,0.6471139764114622,0.869596255117286,0.5934456303075069,0.7571947795402331,0.8835499878384145,0.9063518453755384
223,13.444,13.05,2.82,0.6494583513250292,0.8705420570440097,0.5971955059626545,0.7579449708267163,0.8849777212887483,0.9065980844175658
224,13.465,13.1,2.99,0.6518976566197254,0.8714917367147714,0.6009902583526053,0.7586856593049035,0.8864408433958553,0.9068540628411575
225,13.526,13.16,3.01,0.6544298427562266,0.8724450718644229,0.6048267269086176,0.7594166014672594,0.8879379425380265,0.9071193706823826
226,13.586,13.21,2.98,0.6570527888232623,0.8734018297099546,0.608701718615205,0.7601375586316058,0.889467582828546,0.907393606559663
227,13.647,13.27,2.96,0.6597643043422199,0.8743617673424701,0.6126120108505013,0.760848297194414,0.8910283056569884,0.9076763780750552
228,13.708,13.32,3.15,0.6625621311377932,0.8753246321346708,0.6165543542723618,0.7615485888849489,0.8926186312482299,0.9079673021981143
229,13.809,13.38,3.0,0.665443945273303,0.8762901621627482,0.6205254757467538,0.7622382110195329,0.8942370602371409,0.908266005632041
230,13.829,13.43,2.87,0.6684073590493561,0.877258086641457,0.6245220813149763,0.7629169467550881,0.8958820752569217,0.9085721251618007
231,13.849,13.49,3.17,0.6714499230644935,0.8782281263710411,0.6285408591962134,0.7635845853409995,0.8975521425390032,0.9088853079838844
232,13.911,13.54,3.09,0.674569128336404,0.8791999941945857,0.6325784828218503,0.7642409223682401,0.8992457135223969,0.9092052120173786
233,13.953,13.6,3.03,0.6777624084821642,0.8801733954643007,0.6366316138978904,0.7648857600146272,0.9009612264702979,0.9095315061960435
234,14.014,13.65,3.21,0.6810271419557762,0.8811480285152371,0.6406969054916762,0.7655189072850832,0.9026971080917084,0.9098638707411013
235,14.076,13.71,3.3,0.6843606543411385,0.8821235851449674,0.6447710051390654,0.7661401802457748,0.9044517751658259,0.9102019974144139
236,14.119,13.76,3.28,0.6877602206985362,0.8830997510977369,0.6488505579682676,0.7667494022509237,0.9062236361669564,0.910545589751695
237,14.18,13.82,3.28,0.6912230679627069,0.884076206551603,0.6529322098365766,0.7673464041610422,0.9080110928877424,0.9108943632754068
238,14.241,13.87,3.56,0.6947463773904634,0.8850526266071297,0.6570126104761559,0.7679310245514027,0.9098125420585523,0.9112480456869875
239,14.283,13.93,3.45,0.6983272870557475,0.8860286817763069,0.6610884166449181,0.7685031099096706,0.9116263769609568,0.9116063770380267
240,14.345,13.98,3.34,0.7019628943898807,0.8870040384704508,0.6651562952783883,0.7690625148217572,0.9134509890332894,0.9119691098799901
241,14.406,14.04,3.6,0.7056502587646629,0.8879783594859441,0.6692129266383485,0.7696091021450835,0.9152847694663752,0.9123360093920511
242,14.447,14.09,3.58,0.7093864041158868,0.8889513044867642,0.6732550074540443,0.7701427431685307,0.9171261107875777,0.9127068534865814
243,14.549,14.15,3.5,0.7131683216047314,0.8899225304828524,0.6772792540517397,0.7706633177584574,0.9189734084313442,0.9130814328919067
244,14.57,14.2,3.49,0.7169929723142954,0.8908916923035184,0.6812824054683293,0.7711707144903323,0.9208250622944669,0.913459551211998
245,14.612,14.26,3.55,0.7208572899782805,0.8918584430652582,0.6852612265445771,0.7716648307657787,0.9226794782742933,0.9138410249628038
246,14.673,14.31,3.44,0.7247581837386148,0.8928224346334668,0.6892125109934167,0.7721455729150444,0.9245350697881453,0.9142256835849489
247,14.735,14.37,3.42,0.728692540928594,0.893783318077584,0.6931330844385583,0.7726128562851637,0.926390259272157,0.9146133694326023
248,14.797,14.42,3.73,0.7326572298778926,0.8947407441192774,0.6970198074184185,0.7730666053143929,0.9282434796576912,0.9150039377384311
249,14.86,14.48,3.6,0.7366491027355915,0.8956943635733072,0.7008695783502155,0.7735067535937281,0.9300931758234179,0.9153972565546683
250,14.922,14.53,3.51,0.7406649983072128,0.8966438277807683,0.7046793364489827,0.7739332439164616,0.9319378060211181,0.9157932066704434
251,14.942,14.59,3.75,0.7447017449016404,0.8975887890344852,0.7084460645963045,0.7743460283167439,0.9337758432732872,0.91619168150562
252,15.003,14.64,3.77,0.7487561631837737,0.8985289009964145,0.712166792153761,0.7747450680980366,0.9356057767406646,0.9165925869814654
253,15.065,14.7,3.77,0.7528250690288022,0.8994638191069573,0.7158385977163234,0.7751303338521548,0.9374261130578523,0.9169958413686037
254,15.127,14.75,3.84,0.7569052763739991,0.9003932009861431,0.7194586118010927,0.7755018054695163,0.9392353776352289,0.9174013751128415
255,15.169,14.81,4.02,0.7609936000639376,0.9013167068267188,0.7230240194668821,0.7758594721411853,0.9410321159254408,0.9178091306395249
256,15.272,14.86,3.92,0.7650868586850977,0.9022339997792076,0.7265320628602977,0.7762033323532675,0.942814894652852,0.9182190621371066
257,15.293,14.92,3.87,0.7691818773859527,0.9031447463289674,0.7299800436841932,0.7765333938741376,0.9445823030044321,0.9186311353206276
258,15.334,14.97,4.17,0.7732754906787629,0.9040486166652247,0.7333653255846206,0.776849673734898,0.9463329537806704,0.9190453271758294
259,15.416,15.03,4.01,0.7773645452194661,0.904945285041976,0.7366853364526667,0.777152198203378,0.9480654845051836,0.919461625684632
260,15.437,15.08,3.92,0.7814459025621812,0.9058344301305813,0.7399375706378232,0.7774410027519242,0.9497785584917655,0.9198800295327366
261,15.5,15.14,4.12,0.785516441884913,0.9067157353638707,0.7431195910697762,0.7777161320191872,0.9514708658676718,0.9203005478001159
262,15.562,15.19,4.15,0.7895730626831196,0.9075888892715731,0.7462290312857931,0.7779776397660227,0.9531411245520018,0.920723199635118
263,15.644,15.25,4.14,0.7936126874279185,0.908453585806801,0.749263597361235,0.7782255888254396,0.9547880811880636,0.9211480139128921
264,15.664,15.3,4.18,0.7976322641858333,0.9093095246632293,0.7522210697410039,0.7784600510463869,0.9564105120286359,0.9215750288788462
265,15.725,15.36,4.41,0.8016287691971287,0.9101564115825321,0.755099304969991,0.7786811072310899,0.9580072237731194,0.9220042917778586
266,15.786,15.41,4.33,0.8055992094100254,0.9109939586515509,0.7578962373209459,0.7788888470655371,0.9595770543556579,0.9224358584699691
267,15.828,15.47,4.25,0.8095406249683902,0.9118218845885856,0.7606098803185974,0.7790833690425898,0.9611188736834352,0.922869793033292
268,15.891,15.52,4.63,0.8134500916507716,0.9126399150181422,0.7632383281592796,0.7792647803770418,0.9626315843244768,0.9233061673548795
269,15.933,15.58,4.53,0.8173247232589352,0.9134477827334275,0.7657797570257548,0.7794331969118192,0.9641141221444356,0.9237450607102752
270,16.016,15.63,4.48,0.821161673954276,0.9142452279458668,0.7682324262972993,0.7795887430144386,0.9655654568919493,0.9241865593325204
271,16.076,15.69,4.64,0.8249581405406676,0.9150319985209813,0.7705946796554228,0.7797315514628895,0.9669845927323227,0.9246307559713822
272,16.118,15.74,4.67,0.8287113646924844,0.9158078502000246,0.7728649460858885,0.7798617633201854,0.9683705687294292,0.9250777494435077
273,16.159,15.8,4.58,0.8324186351267706,0.9165725468067988,0.775041740778021,0.7799795277968141,0.9697224592758948,0.9255276441741229
274,16.219,15.85,4.55,0.8360772897187168,0.9173258604390372,0.7771236659225366,0.7800850021003095,0.9710393744717335,0.9259805497308204
275,16.279,15.91,4.76,0.8396847175596894,0.9180675716437806,0.7791094114092286,0.7801783512711961,0.9723204604517154,0.926436580349931
276,16.382,15.96,4.64,0.8432383609570769,0.9187974695761857,0.7809977554258819,0.7802597480046279,0.9735648996618257,0.9268958544559405
277,16.402,16.02,4.59,0.8467357173751869,0.9195153521412355,0.7827875649597614,0.7803293724571043,0.974771911085231,0.9273584941743975
278,16.462,16.07,4.92,0.850174341316362,0.9202210261178793,0.7844777962030136,0.7803874120377061,0.9759407504182337,0.9278246248387344
279,16.523,16.13,4.91,0.8535518461414411,0.9209143072651931,0.7860674948633517,0.7804340611833355,0.9770707101967782,0.9282943744913759
280,16.544,16.18,4.84,0.8568659058286583,0.9215950204102596,0.787555796381438,0.7804695211175152,0.9781611198741825,0.9287678733794537
281,16.605,16.24,4.88,0.8601142566699561,0.9222629995176648,0.7889419260563223,0.7804939995925038,0.9792113458509233,0.9292452534453363
282,16.666,16.29,4.95,0.8632946989035701,0.9229180877407378,0.7902251990802358,0.7805077106147321,0.9802207914574887,0.9297266478120524
283,16.747,16.35,4.82,0.8664050982816963,0.9235601374548507,0.7914050204840539,0.7805108741537604,0.9811888968914848,0.9302121902635638
284,16.768,16.4,4.76,0.8694433875720642,0.9241890102732313,0.7924808849947932,0.7805037158351243,0.9821151391102911,0.9307020147198126
285,16.829,16.46,5.02,0.8724075679922482,0.924804577045899,0.7934523768065408,0.78048646661766,0.982999031680634,0.9311962547064918
286,16.87,16.51,4.79,0.875295710575596,0.9254067178424622,0.7943191692662506,0.7804593624561224,0.9838401245864887,0.9316950428195352
287,16.932,16.57,4.63,0.8781059574677051,0.9259953219196033,0.7950810244758851,0.780422643950094,0.9846380039967577,0.9321985101843836
288,16.993,16.62,4.78,0.8808365231524063,0.9265702876741717,0.7957377928124585,0.7803765559803096,0.9853922919941982,0.9327067859101301
289,17.034,16.68,4.7,0.883485695606266,0.9271315225828617,0.7962894123676933,0.7803213473335934,0.9861026462671024,0.9332199965386955
290,17.115,16.73,4.62,0.8860518373806378,0.9276789431294966,0.7967359083091559,0.7802572703176459,0.9867687597651821,0.9337382654892896
291,17.157,16.79,4.63,0.8885333866102295,0.928212474721016,0.797077392164762,0.7801845803670411,0.9873903603210644,0.9342617124985452
292,17.218,16.84,4.75,0.8909288579470361,0.9287320515933509,0.7973140610324972,0.7801035356419386,0.9879672102387533,0.9347904530568051
293,17.28,16.9,4.62,0.8932368434184573,0.9292376167084179,0.797446196717173,0.7800143966210911,0.988499105850396,0.9353245978411338
294,17.321,16.95,4.54,0.8954560132084711,0.929729121643416,0.7974741647960413,0.7799174256907145,0.9889858770426811,0.9358642521457036
295,17.383,17.01,4.82,0.8975851163608558,0.9302065264735696,0.7973984136150967,0.7798128867307647,0.9894273867542043,0.9364095153102948
296,17.505,17.06,4.64,0.8996229814036416,0.9306697996493669,0.7972194732179331,0.7797010447001193,0.9898235304451564,0.9369604801477143
297,17.525,17.12,4.48,0.9015685168942008,0.9311189178692753,0.7969379542090723,0.7795821652221332,0.990174235540709,0.937517232371003
298,17.546,17.17,4.65,0.903420711884592,0.9315538659488602,0.7965545465537687,0.7794565141720489,0.9904794608494866,0.9380798500213633
299,17.587,17.23,4.58,0.9051786363070196,0.9319746366871741,0.7960700183164615,0.7793243572677273,0.9907391959585388,0.9386484028977703
300,17.648,17.28,4.51,0.9068414412795445,0.9323812307311666,0.7954852143402809,0.7791859596650569,0.9909534606062018,0.9392229519893291
301,17.71,17.34,4.49,0.9084083593323784,0.9327736564387653,0.7948010548701592,0.7790415855592897,0.9911223040341995,0.9398035489115427
302,17.772,17.39,4.62,0.90987870455521,0.9331519297412245,0.7940185341221764,0.778891497793463,0.9912458043203001,0.940390235347718
303,17.856,17.45,4.44,0.9112518726661545,0.9335160740052649,0.7931387188018596,0.7787359574749365,0.9913240676928267,0.9409830424967514
304,17.876,17.5,4.28,0.9125273410030381,0.9338661198954535,0.7921627465742683,0.778575223600917,0.9913572278282872,0.9415819905285019
305,17.916,17.56,4.61,0.913704668437821,0.9342021052371926,0.7910918244887758,0.7784095526936895,0.991345445133367,0.9421870880479065
306,17.98,17.61,4.47,0.9147834952149985,0.9345240748806217,0.7899272273615127,0.7782391984461235,0.991288906012475,0.9427983315689489
307,18.042,17.67,4.38,0.9157635427148487,0.9348320805656709,0.7886702961184626,0.7780644113778976,0.9911878221219859,0.9434157049995721
308,18.082,17.72,4.55,0.9166446131423974,0.9351261807884713,0.7873224361021997,0.7778854385027971,0.9910424296122841,0.9440391791386077
309,18.143,17.78,4.57,0.9174265891430637,0.9354064406692744,0.7858851153453602,0.7777025230073401,0.9908529883587366,0.9446687111856907
310,18.225,17.83,4.52,0.9181094333461567,0.9356729318219186,0.7843598628141253,0.7775159039408033,0.9906197811827357,0.9453042442650432
311,18.246,17.89,4.49,0.918693187837617,0.9359257322247682,0.7827482666251427,0.7773258159165819,0.9903431130639866,0.9459457069639127
312,18.308,17.94,4.7,0.9191779735635969,0.9361649260929944,0.7810519722393776,0.7771324888247741,0.9900233103452528,0.946593012886374
313,18.368,18.0,4.54,0.9195639896666817,0.9363906037520008,0.7792726806363778,0.7769361475558695,0.9896607199308384,0.9472460602231014
314,18.448,18.05,4.4,0.9198515127567676,0.9366028615117274,0.7774121464723835,0.7767370117354544,0.9892557084801172,0.947904731337635
315,18.467,18.11,4.67,0.9200408961187823,0.9368018015415047,0.7754721762256012,0.7765352954698853,0.9888086615974674,0.9485688923695784
316,18.529,18.16,4.55,0.9201325688595999,0.9369875317450853,0.7734546263318747,0.7763312071029119,0.9883199830199978,0.9492383928551078
317,18.592,18.22,4.43,0.9201270349965953,0.9371601656354624,0.7713614013138569,0.776124948983296,0.9877900938044448,0.9499130653651582
318,18.653,18.27,4.5,0.9200248724902348,0.9373198222091803,0.7691944519065821,0.7759167172436303,0.987219431514617,0.950592725161642
319,18.694,18.33,4.51,0.9198267322229773,0.9374666258199674,0.7669557731821084,0.7757067015907437,0.9866084494107625,0.9512771698719699
320,18.756,18.38,4.35,0.9195333369266462,0.9376007060516166,0.7646474026757554,0.7754950851081626,0.9859576156422303,0.9519661791820336
321,18.838,18.44,4.29,0.9191454800603223,0.9377221975900519,0.7622714185162793,0.7752820440711361,0.9852674124447454,0.9526595145477166
322,18.859,18.49,4.51,0.9186640246406305,0.9378312400945761,0.7598299375620908,0.7750677477748027,0.9845383353435783,0.9533569189249087
323,18.96,18.55,4.32,0.9180899020261206,0.9379279780683168,0.7573251135453456,0.7748523583761368,0.9837708923638129,0.9540581165179479
324,18.981,18.6,4.19,0.9174241106572931,0.9380125607279083,0.754759135225491,0.7746360307503427,0.9829656032488502,0.9547628125463696
325,19.023,18.66,4.39,0.916667714753722,0.9380851418724757,0.7521342245536723,0.7744189123623497,0.9821229986882333,0.9554706930298316
326,19.084,18.71,4.31,0.9158218429697026,0.9381458797520333,0.7494526348493487,0.7742011431539892,0.9812436195558353,0.9561814245910883
327,19.145,18.77,4.21,0.9148876870098429,0.9381949369354696,0.7467166489904465,0.773982855447379,0.9803280161593877,0.9568946542769768
328,19.206,18.82,4.21,0.9138665002059494,0.9382324801784379,0.7439285776182724,0.7737641738650606,0.9793767475022777,0.9576100093974745
329,19.248,18.88,4.28,0.9127595960564384,0.9382586802916696,0.7410907573582343,0.7735452152675308,0.9783903805584916,0.9583270973829762
330,19.331,18.93,4.13,0.9115683467294651,0.9382737120103591,0.7382055490572971,0.7733260887088417,0.9773694895615445,0.9590455056599971
331,19.352,18.99,4.04,0.9102941815309382,0.9382777538653632,0.7352753360389553,0.7731068954109701,0.9763146553081647,0.9597648015456048
332,19.413,19.04,4.29,0.9089385853385745,0.9382709880570282,0.7323025223763608,0.7728877287576777,0.9752264644774422,0.9604845321609528
333,19.455,19.1,4.16,0.9075030970031671,0.9382536003324828,0.7292895311840766,0.7726686743085958,0.9741055089660672,0.9612042243643679
334,19.517,19.15,3.98,0.9059893077182459,0.9382257798672209,0.726238802928756,0.7724498098342527,0.9729523852402271,0.9619233847044829
335,19.58,19.21,4.11,0.9043988593592903,0.9381877191518033,0.7231527937589084,0.7722312053727389,0.9717676937046736,0.9626414993939211
336,19.621,19.26,4.03,0.9027334427936256,0.9381396138844665,0.7200339738538787,0.7720129233086036,0.9705520380894297,0.9633580343040219
337,19.682,19.32,3.96,0.9009947961621186,0.93808166287034,0.7168848257922047,0.771795018474406,0.9693060248545458,0.96407243498113
338,19.743,19.37,3.95,0.899184703133708,0.9380140679278983,0.7137078429394946,0.7715775382751919,0.9680302626132041,0.9647841266850288
339,19.784,19.43,4.12,0.8973049911336937,0.9379370338032184,0.7105055278558744,0.7713605228360594,0.9667253615733771,0.965492514450145
340,19.845,19.48,4.0,0.8953575295466977,0.9378507680925227,0.707280390722965,0.7711440051728525,0.9653919329981562,0.9661969831701612
341,19.907,19.54,3.91,0.893344227895256,0.9377554811733623,0.704034947790267,0.7709280113858998,0.964030588684806,0.96689689770668
342,19.948,19.59,4.2,0.8912670339951206,0.937651386144667,0.7007717198407322,0.7707125608766114,0.9626419404625731,0.9675916030225616
343,20.052,19.65,4.02,0.8891279320884949,0.9375386987757627,0.6974932306752186,0.7704976665866531,0.9612265997092692,0.9682804243405344
344,20.073,19.7,3.94,0.8869289409565777,0.9374176374643586,0.6942020056154331,0.770283335259371,0.9597851768866348,0.9689626673276511
345,20.135,19.76,4.1,0.8846721120128893,0.9372884232034676,0.6909005700248895,0.7700695677231187,0.9583182810945021,0.9696376183061252
346,20.197,19.81,4.05,0.8823595273790064,0.9371512795571783,0.6875914478474385,0.7698563591960901,0.9568265196437625,0.9703045444910074
347,20.259,19.87,3.99,0.8799932979445041,0.9370064326450911,0.6842771601630355,0.7696436996121159,0.9553104976481379,0.9709626942551
348,20.3,19.92,3.92,0.8775755614130323,0.9368541111351293,0.6809602237604534,0.7694315739667625,0.9537708176347177,0.9716112974214484
349,20.424,19.98,4.07,0.8751084803364905,0.9366945462443697,0.6776431497266161,0.7692199626830069,0.9522080791732095,0.9722495655836817
350,20.443,20.03,3.9,0.8725942401392911,0.9365279717474794,0.6743284420522037,0.7690088419956694,0.9506228785238146,0.9728766924543744
351,20.464,20.09,3.76,0.8700350471347233,0.9363546239922557,0.6710185962531734,0.7687981843536882,0.9490158083035892,0.9734918542415337
352,20.505,20.14,4.06,0.8674331265353881,0.9361747419216919,0.6677160980078113,0.7685879588392112,0.9473874571710909,0.9740942100532255
353,20.567,20.2,3.92,0.8647907204596236,0.9359885671019073,0.6644234218088715,0.7683781316024052,0.9457384095290401,0.9746829023302717
354,20.61,20.25,3.85,0.8621100859357699,0.9357963437552076,0.661143029630264,0.7681686663108123,0.9440692452446539,0.9752570573068826
355,20.673,20.31,4.01,0.8593934929060222,0.9355983187975457,0.6578773696077023,0.767959524612037,0.9423805393872642,0.9758157854990026
356,20.735,20.36,4.03,0.8566432222316188,0.9353947418796393,0.654628874732785,0.7677506666084439,0.9406728619828307,0.9763581822200328
357,20.796,20.42,3.96,0.8538615637012257,0.9351858654309377,0.6513999615601913,0.7675420513423548,0.9389467777849592,0.9768833281234908
358,20.838,20.47,3.94,0.8510508140445229,0.934971944705544,0.6481930289278238,0.7673336372900749,0.9372028460620492,0.9773902897721157
359,20.899,20.53,4.14,0.8482132749530983,0.9347532378291527,0.6450104566898225,0.7671253828629987,0.9354416204002347,0.977878120232873
360,20.941,20.58,4.01,0.8453512511108533,0.934530005846039,0.6418546044624496,0.7669172469139922,0.933663648521802,0.978345859697284
361,21.002,20.64,3.86,0.8424670482362082,0.9343025127650887,0.638727810382934,0.7667091892472023,0.9318694721188068,0.9787925361264624
362,21.064,20.69,4.14,0.8395629711384579,0.9340710256038381,0.6356323898814724,0.7665011711294106,0.9300596267016381,0.9792171659202024
363,21.145,20.75,4.0,0.8366413217906956,0.9338358144294621,0.6325706344667252,0.7662931558010169,0.9282346414622957,0.9796187546094057
364,21.166,20.8,3.91,0.8337043974217702,0.9335971523956038,0.6295448105252177,0.7660851089847478,0.9263950391521438,0.9799962975711329
365,21.229,20.86,3.98,0.8307544886296735,0.9333553157739968,0.6265571581350127,0.7658769993903143,0.9245413359739019,0.9803487807655368
366,21.269,20.91,4.0,0.8277938775186309,0.9331105839799059,0.6236098898939156,0.7656687992133738,0.9226740414876313,0.9806751814938806
367,21.33,20.97,3.88,0.8248248358620062,0.932863239590476,0.620705189762408,0.7654604846272355,0.9207936585304733,0.9809744691767608
368,21.393,21.02,3.81,0.8218496232929259,0.9326135683551482,0.6178452119214006,0.7652520362657886,0.9189006831498716,0.9812456061515834
369,21.434,21.08,4.03,0.818870485524204,0.9323618591974185,0.6150320796447288,0.7650434396962662,0.9169956045499793,0.9814875484882779
370,21.536,21.13,3.87,0.8158896525988074,0.9321084042073571,0.6122678841860931,0.7648346858806021,0.915078905050922,0.9816992468221566
371,21.556,21.19,3.74,0.8129093371717944,0.9318534986244199,0.6095546836799485,0.7646257716242846,0.9131510600605491,0.9818796472027745
372,21.638,21.24,3.96,0.809931732824435,0.9315974408102031,0.6068945020557196,0.7644167000117064,0.9112125380582874,0.9820276919576109
373,21.658,21.3,3.9,0.8069590124111212,0.9313405322108613,0.6042893279647117,0.7642074808270423,0.9092638005907,0.9821423205693793
374,21.722,21.35,3.81,0.8039933264396398,0.9310830773090029,0.601741113719141,0.7639981309597189,0.907305302278336,0.9822224705658452
375,21.762,21.41,3.84,0.8010368014852587,0.9308253835650405,0.5992517742426601,0.7637886747936845,0.9053374908334405,0.9822670784210974
376,21.825,21.46,3.92,0.7980915386389399,0.9305677613481933,0.5968231860316834,0.7635791445798962,0.9033608070881216,0.9822750804672712
377,21.93,21.52,3.79,0.795159611989887,0.9303105238575053,0.5944571861267842,0.7633695807916219,0.9013756850325679,0.9822454138157569
378,21.95,21.57,3.7,0.7922430671425639,0.9300539870333756,0.5921555710934382,0.7631600324622837,0.899382551862927,0.9821770172869899
379,21.992,21.63,3.92,0.7893439197682368,0.929798469460195,0.5899200960113923,0.7629505575057082,0.8973818280384364,0.9820688323479744
380,22.055,21.68,3.7,0.7864641541910303,0.9295442922607655,0.5877524734719398,0.7627412230187686,0.895373927347387,0.9819198040567543
381,22.096,21.74,3.55,0.7836057220084156,0.9292917789832363,0.5856543725823653,0.7625321055665261,0.8933592569814688,0.9817288820130763
382,22.159,21.79,3.69,0.7807705407459593,0.9290412554813555,0.5836274179768024,0.7623232914501118,0.8913382176180098,0.981495021314523
383,22.261,21.85,3.59,0.7779604925460881,0.9287930497888923,0.5816731888327804,0.762114876957683,0.8893112035095678,0.9812171835174148
384,22.302,21.9,3.49,0.7751774228905618,0.9285474919890746,0.5797932178927783,0.7619069685988484,0.8872786025802426,0.9808943376018311
385,22.323,21.96,3.49,0.772423139356216,0.9283049140799094,0.5779889904900448,0.761699683323073,0.8852407965279759,0.9805254609401696
386,22.385,22.01,3.61,0.769699410403348,0.9280656498362557,0.5762619435778104,0.7614931487227231,0.8831981609320119,0.9801095402687124
387,22.425,22.07,3.5,0.7670079641959967,0.9278300346694931,0.5746134647609455,0.7612875032214738,0.8811510653646154,0.9796455726617114
388,22.487,22.12,3.42,0.7643504874533071,0.927598405485537,0.5730448913291218,0.7610828962487638,0.8790998735060768,0.9791325665075793
389,22.548,22.18,3.73,0.7617286243311754,0.9273711005418724,0.5715575092905786,0.7608794884008951,0.8770449432620016,0.9785695424868536
390,22.63,22.23,3.56,0.7591439753334273,0.9271484593041895,0.5701525524056966,0.7606774515892631,0.8749866268818801,0.977955534551652
391,22.65,22.29,3.47,0.756598096251846,0.9269308223031693,0.5688312012196759,0.7604769691761413,0.8729252710779348,0.9772895909063987
392,22.753,22.34,3.62,0.7540924971344101,0.9267185309919616,0.5675945820937192,0.7602782360984487,0.8708612171432826,0.9765707749896101
393,22.774,22.4,3.6,0.7516286412812021,0.9265119276048935,0.5664437662343182,0.7600814589799095,0.8687948010684995,0.9757981664565106
394,22.815,22.45,3.56,0.749207944267639,0.9263113550178405,0.5653797687205137,0.7598868562319112,0.8667263536556896,0.9749708621622499
395,22.876,22.51,3.52,0.7468317729948489,0.9261171566105569,0.5644035475292447,0.7596946581432529,0.8646562006291815,0.9740879771455107
396,22.917,22.56,3.65,0.7445014447671706,0.9259296761311523,0.5635160025591328,0.759505106958875,0.8625846627419941,0.9731486456122624
397,23.02,22.62,3.49,0.7422182263968946,0.925749257562771,0.5627179746532922,0.7593184569475478,0.8605120558772453,0.9721520219193466
398,23.04,22.67,3.38,0.7399833333364909,0.9255762449924231,0.5620102446219922,0.7591349744583709,0.8584386911436884,0.9710972815574875
399,23.082,22.73,3.68,0.73779792883863,0.9254109824818074,0.5613935322661592,0.7589549379658515,0.8563648749645688,0.9699836221332278
400,23.143,22.78,3.54,0.735663123144324,0.9252538139398873,0.5608684954028441,0.7587786381032496,0.8542909091589824,0.968810264349194
401,23.225,22.84,3.45,0.7335799726995,0.9251050829969059,0.5604357288939134,0.7586063776837996,0.8522170910149023,0.9675764529820203
402,23.246,22.89,3.62,0.7315494794002579,0.9249651328795155,0.5600957636793571,0.7584384717093722,0.850143713353054,0.9662814578571572
403,23.306,22.95,3.62,0.7295725898670717,0.9248343062866575,0.5598490658168419,0.7582752473660443,0.8480710645808721,0.9649245748196749
404,23.368,23.0,3.56,0.7276501947483347,0.9247129452656847,0.5596960355294531,0.7581170440058385,0.8459994287358092,0.963505126700071
405,23.429,23.06,3.54,0.7257831280538617,0.9246013910879936,0.5596370062638498,0.7579642131136984,0.8439290855173309,0.9620224642740465
406,23.49,23.11,3.71,0.7239721665191825,0.9244999841232168,0.5596722437613032,0.7578171182585887,0.8418603103069898,0.9604759672151554
407,23.573,23.17,3.56,0.7222180290017092,0.9244090637108282,0.5598019451443502,0.757676135027443,0.8397933741760412,0.958865045039189
408,23.593,23.22,3.43,0.7205213759100677,0.9243289680278601,0.5600262380220672,0.7575416509405346,0.8377285438801259,0.9571891380391122
409,23.634,23.28,3.72,0.7188828086680447,0.9242600339513575,0.5603451796171945,0.7574140653467007,0.8356660818405969,0.9554477182093282
410,23.736,23.33,3.56,0.7173028692147181,0.9242025969141421,0.5607587559185608,0.7572937892967304,0.833606246112108,0.9536402901580131
411,23.756,23.39,3.45,0.7157820395424036,0.924156990752444,0.5612668808624119,0.7571812453931217,0.8315492903361148,0.9517663920062427
412,23.797,23.44,3.56,0.714320741274018,0.9241235475440279,0.5618693955463442,0.7570768676144096,0.8294954636799671,0.9498255962725721
413,23.858,23.5,3.57,0.7129193352814095,0.9241025974355022,0.5625660674796165,0.7569811011123221,0.8274450107613184,0.9478175107416286
414,23.919,23.55,3.51,0.7115781213461885,0.9240944684575028,0.5633565898736677,0.7568944019800987,0.8253981715576074,0.9457417793151377
415,23.98,23.61,3.48,0.7102973378645605,0.9240994863264141,0.5642405809766322,0.7568172369904569,0.8233551813003878,0.9435980828437156
416,24.042,23.66,3.69,0.7090771615975575,0.9241179742312965,0.5652175834555051,0.7567500833018673,0.8213162703543232,0.9413861399376604
417,24.103,23.72,3.54,0.70791770746796,0.924150252604718,0.5662870638294891,0.7566934281319063,0.819281664080721,0.9391057077548968
418,24.165,23.77,3.44,0.7068190284051206,0.9241966388762073,0.5674484119579614,0.7566477683965119,0.8172515826855441,0.9367565827641685
419,24.206,23.83,3.71,0.7057811152388485,0.9242574472070695,0.5687009405864253,0.7566136103140106,0.8152262410519255,0.9343386014814956
420,24.247,23.88,3.61,0.7048038966434857,0.9243329882053419,0.5700438849537961,0.7565914689728129,0.8132058485572907,0.9318516411778721
421,24.307,23.94,3.52,0.7038872391332388,0.9244235686197599,0.5714764024643021,0.7565818678617455,0.8111906088752625,0.9292956205561415
422,24.389,23.99,3.57,0.703030947109631,0.924529491011804,0.5729975724271257,0.7565853383621526,0.8091807197626086,0.9266705003949671
423,24.409,24.05,3.58,0.7022347629617107,0.9246510534051503,0.5746063958667118,0.7566024192011052,0.8071763728315879,0.9239762841577394
424,24.47,24.1,3.44,0.7014983672194877,0.9247885489120312,0.5763017954065343,0.7566336558651982,0.8051777533081228,0.9212130185642128
425,24.551,24.16,3.38,0.7008213787609238,0.9249422653361566,0.5780826152289578,0.7566795999745358,0.8031850397762789,0.9183807941226738
426,24.572,24.21,3.56,0.7002033550726138,0.9251124847520152,0.5799476211136408,0.7567408086166735,0.8011984039095542,0.915479745620459
427,24.634,24.27,3.39,0.6996437925640839,0.9252994830605474,0.5818955005566936,0.756817843640451,0.7992180101894871,0.9125100525706564
428,24.695,24.32,3.26,0.6991421269354201,0.9255035295213226,0.5839248629725838,0.7569112709098126,0.7972440156120992,0.9094719396128
429,24.737,24.38,3.49,0.6986977335977387,0.9257248862614706,0.5860342399805927,0.7570216595178527,0.7952765693826942,0.9063656768653089
430,24.861,24.43,3.41,0.6983099281458671,0.9259638077617068,0.5882220857774758,0.7571495809614456,0.7933158125995631,0.903191580227376
431,24.881,24.49,3.31,0.6979779668824861,0.9262205403198746,0.5904867775978613,0.7572956082769619,0.7913618779271558,0.8999500116280423
432,24.922,24.54,3.31,0.6977010473928323,0.926495321492586,0.5928266162637068,0.7574603151378144,0.7894148892593145,0.8966413792202652
433,24.983,24.6,3.38,0.6974783091689115,0.9267883795157404,0.5952398268239222,0.7576442749148518,0.7874749613732143,0.8932661375178585
434,25.024,24.65,3.24,0.697308834282108,0.9270999327048708,0.5977245592851328,0.757848059700814,0.7855421995747118,0.889824787473258
435,25.086,24.71,3.18,0.6971916481030414,0.9274301888364136,0.6002788894344379,0.7580722393001923,0.7836166993358197,0.8863178764942131
436,25.149,24.76,3.4,0.6971257200674804,0.9277793445111588,0.6029008197549103,0.7583173801859429,0.78169854592505,0.8827459983976426
437,25.209,24.82,3.18,0.6971099644870855,0.9281475845012896,0.6055882804344651,0.7585840444245912,0.7797878140313819,0.879109793299033
438,25.229,24.87,3.04,0.6971432414037008,0.9285350810825584,0.6083391304686067,0.7588727885713378,0.777884567382631,0.875409947435862
439,25.289,24.93,3.17,0.6972243574858481,0.9289419933532936,0.6111511588574208,0.7591841625368915,0.7759888583590248,0.8716471929236211
440,25.351,24.98,3.07,0.6973520669659985,0.9293684665420695,0.6140220858970191,0.7595187084279321,0.7741007276027978,0.8678223074431273
441,25.411,25.04,2.98,0.6975250726170766,0.9298146313060034,0.6169495645653867,0.7598769593633701,0.7722202036245933,0.8639361138579827
442,25.472,25.09,2.99,0.6977420267664372,0.930280603021816,0.6199311820021961,0.7602594382689692,0.7703473024074075,0.8599894797612728
443,25.513,25.15,3.1,0.6980015323452973,0.9307664810719927,0.6229644610817239,0.7606666566532914,0.7684820270087782,0.8559833169507709
444,25.576,25.2,2.99,0.6983021439714571,0.9312723481284808,0.626046862077666,0.7610991133681652,0.7666243671618997,0.8519185808320935
445,25.638,25.26,2.91,0.698642369063111,0.9317982694363646,0.6291757844183729,0.7615572933569913,0.7647742988763342,0.8477962697494331
446,25.679,25.31,3.19,0.699020668981591,0.9323442920999142,0.6323485685307996,0.7620416663942492,0.7629317840390195,0.8436174242436789
447,25.741,25.37,3.0,0.6994354602010082,0.9329104443733297,0.6355624977712924,0.7625526858195749,0.7610967700163128,0.8393831262379141
448,25.821,25.42,2.88,0.6998851155029019,0.9334967349584387,0.638814800441201,0.7630907872697675,0.759269189257862,0.8350944981504584
449,25.842,25.48,3.05,0.7003679651941537,0.9341031523115826,0.6421026518852008,0.7636563874120953,0.757448958903165,0.8307527019357921
450,25.945,25.53,2.98,0.7008822983466343,0.9347296639618774,0.645423176670173,0.7642498826822406,0.7556359803917371,0.8263589380538686
451,25.966,25.59,2.82,0.7014263640572849,0.9353762158429539,0.648773450842496,0.7648716480301382,0.7538301390778421,0.8219144443685555
452,26.007,25.64,2.8,0.7019983727275172,0.9360427316401904,0.6521505042615473,0.7655220356768886,0.7520313038507485,0.8174204949762125
453,26.069,25.7,2.9,0.7025964973609375,0.9367291121554111,0.6555513230071126,0.7662013738858967,0.7502393267614811,0.8128783989656767
454,26.131,25.75,2.75,0.7032188748785109,0.9374352346909496,0.6589728518582638,0.7669099657513387,0.7484540426570153,0.8082894991111733
455,26.172,25.81,2.66,0.703863607450403,0.9381609524548697,0.6624119968411015,0.7676480880070207,0.7466752688228244,0.8036551704998964
456,26.234,25.86,2.94,0.7045287638437964,0.9389060939890512,0.6658656278425302,0.7684159898586074,0.7449028046346606,0.7989768190962143
457,26.297,25.92,2.78,0.7052123807860287,0.9396704626217426,0.6693305812870356,0.7692138918420787,0.7431364312204385,0.7942558802446061
458,26.338,25.97,2.66,0.7059124643424093,0.9404538359461151,0.6728036628732489,0.7700419847111057,0.741375911133091,0.7894938171135815
459,26.38,26.03,2.85,0.7066269913080655,0.9412559653263178,0.6762816503669421,0.7709004283559184,0.7396209880353088,0.7846921190829511
460,26.442,26.08,2.79,0.7073539106132403,0.9420765754324986,0.6797612964470371,0.7717893507561158,0.737871386397121,0.77985230007695
461,26.504,26.14,2.76,0.708091144741624,0.9429153638061337,0.6832393316012154,0.7727088469697039,0.736126811207315,0.7749758968459018
462,26.546,26.19,2.77,0.7088365911614813,0.9437720004569168,0.6867124670676638,0.7736589781605199,0.7343869476997357,0.770064467199358
463,26.607,26.25,2.94,0.7095881237694996,0.9446461274923513,0.690177397819415,0.7746397706660962,0.7326514610955531,0.7651195881938578
464,26.668,26.3,2.8,0.7103435943475211,0.9455373587810831,0.6936308055877012,0.7756512151079085,0.730919996362664,0.760142854278633
465,26.729,26.36,2.7,0.7111008340325572,0.9464452796508556,0.6970693619206974,0.7766932655458266,0.7291921779934792,0.7551358754027081
466,26.771,26.41,2.99,0.7118576548007179,0.9473694466218434,0.700489731273963,0.7777658386784871,0.7274676098024383,0.7501002750869566
467,26.833,26.47,2.78,0.7126118509658588,0.9483093871760119,0.7038885741287969,0.77886881309121,0.7257458747446873,0.7450376884647717
468,26.894,26.52,2.65,0.7133612006938667,0.9492645995631082,0.7072625501346013,0.7800020285530288,0.7240265347574212,0.7399497602951373
469,26.957,26.58,2.78,0.7141034675335176,0.9502345526439249,0.7106083212711797,0.7811652853644054,0.7223091306254614,0.7348381429520273
470,27.04,26.63,2.72,0.7148364019648498,0.9512186857715157,0.7139225550267846,0.7823583437571647,0.7205931818726904,0.7297044943941895
471,27.061,26.69,2.68,0.7155577429660366,0.9522164087110057,0.7172019275876613,0.7835809233480509,0.7188781866809826,0.7245504761195389
472,27.141,26.74,2.66,0.7162652195997509,0.9532271015985944,0.7204431270347219,0.7848327026471653,0.7171636218382773,0.7193777511085909
473,27.162,26.8,2.81,0.7169565526199871,0.9542501149403305,0.723642856542827,0.786113318622442,0.7154489427174465,0.7141879817615419
474,27.224,26.85,2.66,0.7176294561003451,0.9552847696511946,0.7267978375780186,0.7874223663212011,0.7137335832876529,0.708982827833768
475,27.265,26.91,2.59,0.7182816390848669,0.9563303571349543,0.7299048130879479,0.7887593985497064,0.7120169561599338,0.7037639443746796
476,27.328,26.96,2.88,0.7189108072626273,0.957386139405197,0.7329605506806225,0.7901239256115599,0.7102984526688172,0.6985329796750265
477,27.431,27.02,2.72,0.7195146646673996,0.9584513492478837,0.7359618457864993,0.7915154151056731,0.7085774429918348,0.6932915732279272
478,27.451,27.07,2.61,0.7200909154038215,0.9595251904257428,0.7389055247988404,0.7929332917844863,0.7068532763088731,0.6880413537090634
479,27.491,27.13,2.7,0.720637265401572,0.960606837924831,0.7417884481871558,0.7943769374730463,0.7051252810033856,0.6827839369816175
480,27.552,27.18,2.53,0.7211514241991722,0.9616954382435737,0.744607513578554,0.795845691049451,0.7033927649075803,0.6775209241316332
481,27.612,27.24,2.35,0.7216311067591723,0.9627901097245194,0.7473596588019056,0.7973388484869676,0.7016550155937483,0.6722538995395727
482,27.675,27.29,2.17,0.7220740353165438,0.9638899429289456,0.7500418648898608,0.7988556629579404,0.699911300713885,0.6669844289939458
483,27.716,27.35,2.12,0.7224779412619999,0.9649940010544492,0.752651159033991,0.8003953449994673,0.6981608683896777,0.6617140578528474
484,27.777,27.4,1.81,0.722840567061779,0.9661013203956362,0.7551846174887039,0.8019570627407052,0.6964029476547725,0.6564443092590546
485,27.838,27.46,1.6,0.7231596682151294,0.9672109108480128,0.7576393684200108,0.8035399421915931,0.6946367489509891,0.6511766824139915
486,27.88,27.51,1.74,0.7234330152503529,0.9683217564551359,0.7600125946955846,0.8051430675927583,0.6928614646798565,0.6459126509154384
487,27.962,27.57,1.5,0.7236583957598128,0.9694328159990144,0.7623015366128801,0.8067654818263879,0.6910762698105029,0.6406536611634019
488,27.983,27.62,1.33,0.7238336164738246,0.9705430236337167,0.7645034945623923,0.8084061868879105,0.6892803225445902,0.6354011308381194
489,28.044,27.68,1.35,0.7239565053727858,0.9716512895621734,0.7666158316234734,0.8100641444184644,0.6874727650386799,0.6301564474536859
490,28.148,27.73,1.23,0.7240249138363951,0.9727565007562144,0.7686359760906131,0.8117382762982044,0.6856527241841391,0.6249209669902774
491,28.168,27.79,1.08,0.7240367188283809,0.9738575217198381,0.7705614239286687,0.8134274653004584,0.6838193124444372,0.6196960126074097
492,28.208,27.84,0.96,0.7239898251147443,0.9749531952956295,0.7723897411560531,0.8151305558066597,0.6819716287494096,0.6144828734401477
493,28.288,27.9,0.99,0.7238821675131187,0.9760423435141576,0.7741185661552878,0.8168463545819309,0.6801087594457917,0.6092828034796616
494,28.329,27.95,0.81,0.7237117131704901,0.9771237684860704,0.7757456119106315,0.8185736316111315,0.6782297793030504,0.6040970205390035
495,28.391,28.01,0.66,0.7234764638662042,0.9781962533364729,0.7772686681726818,0.8203111209951089,0.6763337525732617,0.5989267053045026
496,28.433,28.06,0.88,0.7231744583369075,0.9792585631810521,0.7786856035498924,0.8220575219068318,0.6744197341034888,0.5937730004727314
497,28.514,28.12,0.71,0.7228037746198003,0.9803094461432793,0.7799943675269034,0.823811499607,0.6724867704988435,0.5886370099726059
498,28.534,28.17,0.61,0.7223625324103278,0.9813476344119154,0.7811929924094845,0.8255716865186568,0.6705339013341586,0.5835197982718646
499,28.595,28.23,0.75,0.7218488954301219,0.9823718453380181,0.7822795951957102,0.8273366833602884,0.6685601604119671,0.578422389766889
500,28.657,28.28,0.74,0.721261073800738,0.9833807825706093,0.7832523793728269,0.8291050603368725,0.6665645770643167,0.573345768254576
501,28.698,28.34,0.71,0.7205973264185241,0.9843731372300639,0.7841096366391059,0.830875358388227,0.6645461774957654,0.5682908764847903
502,28.76,28.39,0.72,0.7198559633257781,0.9853475891181328,0.7848497485498014,0.8326460904938849,0.6625039861647659,0.5632586157918
503,28.802,28.45,0.88,0.7190353480731754,0.9863028079634084,0.7854711880861215,0.8344157430335727,0.6604370272005389,0.5582498458030206
504,28.884,28.5,0.8,0.7181339000683267,0.9872374547009087,0.7859725211459875,0.8361827772022032,0.6583443258524502,0.5532653842233376
505,28.926,28.56,0.73,0.7171500969052355,0.9881501827843654,0.7863524079552441,0.8379456304781152,0.6562249099688502,0.5483060066932627
506,28.987,28.61,1.03,0.7160824766693569,0.9890396395296902,0.7866096043979032,0.8397027181430996,0.6540778115022866,0.5433724467191594
507,29.049,28.67,0.93,0.7149296402129132,0.9899044674880066,0.7867429632639735,0.8414524348525536,0.651902068037972,0.5384653956737766
508,29.089,28.72,0.88,0.7136902533950894,0.9907433058465437,0.7867514354134155,0.8431931562538915,0.6496967243423603,0.5335855028653353
509,29.15,28.78,1.03,0.7123630492817028,0.9915547918556397,0.7866340708547351,0.8449232406511933,0.6474608339286805,0.5287333756734154
510,29.274,28.83,1.07,0.7109468302989599,0.9923375622800545,0.7863900197367538,0.8466410307139132,0.6451934606362927,0.5239095797498543
511,29.294,28.89,1.0,0.709440470336045,0.9930902548726592,0.7860185332521852,0.8483448552272403,0.6428936802207333,0.5191146392828488
512,29.334,28.94,0.95,0.7078429167913914,0.993811509868417,0.7855189644517238,0.850033030881486,0.6405605819513195,0.5143490373224434
513,29.354,29.0,1.13,0.7061531925575368,0.9944999714964899,0.784890768967397,0.8517038640976796,0.6381932702131848,0.5096132161655664
514,29.415,29.05,1.02,0.7043703979394758,0.9951542895082136,0.7841335056440016,0.8533556528863947,0.6357908661106119,0.5049075777987448
515,29.477,29.11,0.91,0.7024937125014467,0.9957731207186096,0.7832468370775117,0.8549866887366613,0.6333525090684986,0.5002324843966004
516,29.537,29.16,1.18,0.7005223968371262,0.9963551305590117,0.7822305300594286,0.8565952585317028,0.6308773584287615,0.4955882588742118
517,29.618,29.22,1.05,0.6984557942582886,0.996898994638317,0.781084455926164,0.8581796464881108,0.6283645950384458,0.4909751854914122
518,29.638,29.27,0.97,0.6962933323970778,0.9974034003103278,0.7798085908126664,0.8597381361149833,0.6258134228262755,0.4863935105070932
519,29.719,29.33,1.09,0.6940345247170694,0.997867048244706,0.7784030158094748,0.8612690121895843,0.6232230703643582,0.4818434428815788
520,29.739,29.38,1.1,0.6916789719283637,0.9982886539991086,0.7768679170222517,0.8627705627461886,0.6205927924117434,0.4773251550250717
521,29.801,29.44,1.03,0.6892263633021101,0.9986669495900385,0.7752035855326594,0.8642410810748641,0.6179218714365137,0.472838783590092
522,29.863,29.49,0.98,0.686676477880079,0.9990006850598594,0.7734104172592918,0.8656788677270196,0.615209619113063,0.4683844303057429
523,29.923,29.55,1.13,0.6840291855750974,0.9992886300373706,0.7714889127173027,0.8670822325246031,0.6124553777911931,0.4639621628515261
524,30.006,29.6,1.0,0.6812844481584098,0.9995295752893049,0.7694396766754233,0.8684494965698499,0.6096585219336417,0.4595720157682982
525,30.027,29.66,0.92,0.6784423201302783,0.9997223342600521,0.7672634177091261,0.8697789942525,0.6068184595186217,0.45521399140381236
526,30.069,29.71,1.24,0.6755029494704057,0.9998657445968856,0.7649609476487577,0.8710690752514116,0.6039346334039135,0.45088806089012645
527,30.13,29.77,1.18,0.6724665782650385,0.9999586696579168,0.7625331809215298,0.8723181065275152,0.6010065226490299,0.4465941651499931
528,30.192,29.82,1.2,0.6693335432078519,1.0,0.7599811337863214,0.8735244743050775,0.5980336437919627,0.44233221592922367
529,30.233,29.88,1.43,0.6661042759719207,0.9999886548438883,0.7573059234602905,0.8746865860383471,0.5950155520770786,0.4381020968519231
530,30.315,29.93,1.54,0.6627793034503374,0.9999235835140313,0.7545087671364168,0.8758028723607554,0.5919518426308495,0.43390366449543627
531,30.356,29.99,1.57,0.6593592478634344,0.9998037668504557,0.751590980891347,0.8768717890138692,0.5888421515822764,0.4297367494818592
532,30.418,30.04,1.6,0.6558448267310328,0.9996282185902189,0.7485539784831721,0.8778918187533143,0.5856861571250684,0.4256011575830768
533,30.481,30.1,1.84,0.6522368527085888,0.9993959867160382,0.7453992700390146,0.8788614732289477,0.5824835805188927,0.4214966708364356
534,30.54,30.15,1.75,0.6485362332865391,0.9991061547698333,0.7421284606325337,0.8797792948366003,0.5792341870272594,0.41742304866832497
535,30.621,30.21,1.64,0.6447439703525545,0.9987578431290425,0.7387432487516784,0.8806438585387403,0.5759377867898665,0.4133800290231155
536,30.641,30.26,1.93,0.6408611596167616,0.998350210243692,0.735245424657225,0.8814537736514203,0.5725942356274583,0.4093673294950647
537,30.722,30.32,1.83,0.6368889899003503,0.9978824538322832,0.7316368686328216,0.8822076855949122,0.5692034357774585,0.4053846484609636
538,30.742,30.37,1.8,0.6328287422882838,0.9973538120346721,0.7279195491274508,0.8829042776054787,0.5657653365588158,0.4014316662114976
539,30.784,30.43,1.95,0.6286817891470468,0.9967635645202727,0.7240955207913435,0.8835422724058763,0.5622799349646532,0.3975080460794893
540,30.847,30.48,2.02,0.624449593008557,0.9961110335501165,0.7201669224065576,0.8841204338323027,0.5587472761814927,0.3936134355633607
541,30.889,30.54,1.98,0.62013370532165,0.9953955849914017,0.7161359747137175,0.8846375684155402,0.5551674540340046,0.38974746744430105
542,30.973,30.59,1.96,0.6157357650728692,0.9946166292832704,0.7120049781366978,0.8850925269140668,0.5515406113544347,0.3859097608957908
543,31.015,30.65,2.15,0.6112574972786018,0.9937736223526857,0.7077763104072724,0.8854842057969866,0.5478669402760713,0.38209992258427494
544,31.075,30.7,2.0,0.6067007113509643,0.9928660664794315,0.7034524240919672,0.8858115486747487,0.5441466824503463,0.3783175477599048
545,31.137,30.76,1.87,0.6020672993401972,0.9918935111093679,0.699035844023556,0.8860735476757267,0.5403801291873627,0.3745622213363993
546,31.198,30.81,2.09,0.5973592340567213,0.9908555536151834,0.6945291646398875,0.8862692447668068,0.5365676215198382,0.3708335189591823
547,31.239,30.87,1.98,0.5925785670763758,0.9897518400039607,0.689935047233085,0.8863977330161327,0.5327095501906222,0.36713100806105553
548,31.3,30.92,1.84,0.5877274266326996,0.9885820655709483,0.6852562171126122,0.886458157796104,0.5288063555640741,0.3634542489047761
549,31.363,30.98,1.91,0.5828080154003115,0.9873459754990918,0.6804954606860834,0.8864497179247613,0.5248585274617197,0.3598027956119861
550,31.464,31.03,1.93,0.5778226081735598,0.9860433654040468,0.6756556224619957,0.8863716667437894,0.5208666049227237,0.3561761971779577
551,31.485,31.09,1.85,0.5727735494447745,0.9846740818245139,0.6707396019787344,0.8862233131315814,0.5168311758898271,0.352573998471605
552,31.526,31.14,1.8,0.5676632508865703,0.9832380226578119,0.6657503506641882,0.8860040224501768,0.5127528768214944,0.34899574122020527
553,31.567,31.2,1.95,0.5624941887427694,0.9817351375406975,0.6606908686301967,0.8857132174254055,0.5086323922311377,0.3454409649782637
554,31.629,31.25,1.78,0.5572689011326252,0.9801654281755089,0.6555642014059826,0.8853503789600001,0.5044704541544006,0.3419092080799545
555,31.689,31.31,1.64,0.5519899852731573,0.9785289486017555,0.6503734366147698,0.8849150468796687,0.5002678415456315,0.3384000085745788
556,31.75,31.36,1.84,0.5466600946245269,0.976825805413307,0.6451217005979307,0.8844068206122024,0.49602537960480053,0.33491290514448696
557,31.813,31.42,1.71,0.5412819359634986,0.9750561579213606,0.6398121549912354,0.8838253597996731,0.4917439390362373,0.3314474380049263
558,31.834,31.47,1.61,0.5358582663901159,0.9732202182633917,0.6344479932579814,0.883170384843756,0.48742443524066414,0.328003149785306
559,31.896,31.53,1.63,0.5303918902727288,0.9713182514583578,0.6290324371839213,0.8824416773842647,0.48306782744209376,0.32457958639138823
560,31.978,31.58,1.59,0.5248856561364786,0.9693505754085137,0.623568733339013,0.8816390807110165,0.47867511775127375,0.32117629784788426
561,31.999,31.64,1.45,0.5193424535003704,0.9673175608482115,0.6180601495111886,0.8807625001090481,0.47424735016746317,0.3177928391208779
562,32.06,31.69,1.37,0.5137652096680402,0.9652196312400789,0.6125099711174966,0.8798119031370627,0.4697856095204064,0.31442877091946486
563,32.12,31.75,1.53,0.5081568864772358,0.9630572626190094,0.6069214975980198,0.8787873198389279,0.46529102035442527,0.3110836604759571
564,32.181,31.8,1.36,0.5025204770128981,0.9608309833844352,0.6012980387979607,0.87768884288808,0.46076474575660575,0.30775708230397414
565,32.222,31.86,1.23,0.4968590022886311,0.9585413740413677,0.5956429113432404,0.8765166276647355,0.4562079861310972,0.3044486189337231
566,32.284,31.91,1.42,0.4911755079012836,0.9561890668906782,0.5899594350149306,0.875270892265875,0.45162197792162156,0.3011578616237504
567,32.325,31.97,1.32,0.4854730606634106,0.953774745669089,0.584250929127902,0.873951917447974,0.4470079922843768,0.29788441104845875
568,32.386,32.02,1.2,0.47975474521843897,0.951299145139329,0.5785207089191509,0.8725600465024731,0.4423673337136077,0.2946278779607271
569,32.449,32.08,1.2,0.47402366064338514,0.9487630506309416,0.5727720819512642,0.8710956850640806,0.43770133862221783,0.2913878838290212
570,32.57,32.13,1.19,0.46828291704396796,0.9461672975322998,0.56700834453644,0.8695593008521594,0.4330113738799075,0.288164061448371
571,32.591,32.19,1.04,0.462535632147004,0.9435127707343793,0.5612327781864505,0.867951423345586,0.4282988353114259,0.28495605552456593
572,32.633,32.24,0.92,0.4567849278950013,0.9408004040268405,0.5554486460939166,0.8662726433915616,0.4235651461575968,0.28176352323091347
573,32.674,32.3,1.04,0.45103392704783823,0.9380311794470074,0.5496591896502164,0.8645236127489596,0.4188117555018335,0.2785861347369169
574,32.736,32.35,0.87,0.44528574979635116,0.9352061265823648,0.5438676250052922,0.8627050435668716,0.4140401366648899,0.27542357370825443
575,32.798,32.41,0.73,0.4395435103925796,0.9323263218272051,0.5380771396745458,0.8608177077990615,0.4092517855706207,0.27227553777746694
576,32.84,32.46,0.9,0.4338103138013082,0.9293928875940671,0.5322908891979066,0.8588624365550703,0.40444821908554746,0.2691417389847825
577,32.923,32.52,0.8,0.4280892523774562,0.9264069914806071,0.5265119938560756,0.856840119388713,0.3996309733350636,0.2660219041885152
578,32.944,32.57,0.68,0.4223834025737586,0.9233698453925735,0.5207435354488716,0.8547517035247288,0.3948016019991539,0.26291577544451933
579,32.985,32.63,0.64,0.4166958216830202,0.9202827046236431,0.5149885541404368,0.8525981930244568,0.3899616745905643,0.25982311035422273
580,33.047,32.68,0.61,0.4110295446190756,0.9171468668930037,0.5092500453758897,0.8503806478915569,0.38511277471844085,0.2567436823807763
581,33.11,32.74,0.45,0.40538758074054393,0.9139636713416077,0.5035309568738686,0.8481001831189087,0.38025649834052233,0.25367728113287913
582,33.151,32.79,0.33,0.39977291072150034,0.9107344974880311,0.497834185699276,0.8457579676779,0.37539445200700405,0.25062371261590044
583,33.214,32.85,0.43,0.3941884834732154,0.907460764144882,0.49216257542038233,0.8433552234514292,0.37052825109919085,0.24758279945001405
584,33.297,32.9,0.21,0.38863721312112326,0.9041439282967247,0.4865189133542985,0.8408932241120545,0.3656595180660388,0.24455438105514823
585,33.317,32.96,0.01,0.38312197604113546,0.9007854839404904,0.4809059279046488,0.838373293946814,0.36078988066165185,0.2415383138026355
586,33.377,33.01,0.11,0.37764560795932234,0.8973869608893593,0.4753262859950426,0.8357968066303406,0.3559209701867659,0.23853447113350673
587,33.438,33.07,-0.01,0.37221090111886806,0.893949923541122,0.4697825906017248,0.8331651839479451,0.3510544197372074,0.235542743643435
588,33.479,33.12,-0.15,0.3668206015180299,0.8904759696120522,0.46427737838858574,0.8304798944703563,0.3461918624622416,0.23256303913442775
589,33.559,33.18,-0.19,0.36147740622255853,0.886966728837429,0.4588131174474879,0.8277424521818499,0.3413349298356541,0.22959528263346318
590,33.681,33.23,-0.19,0.3561839607557455,0.8834238616399567,0.45339220514665296,0.8249544150635609,0.336485249942361,0.22663941637833682
591,33.702,33.29,-0.36,0.35094285656906954,0.8798490577673823,0.4480169660896946,0.8221173836338043,0.3316444457832954,0.22369539977105463
592,33.722,33.34,-0.47,0.34575662859628614,0.8762440349006239,0.44268965018773226,0.8192329994472525,0.32681413360127354,0.22076320929921645
593,33.764,33.4,-0.4,0.3406277528936662,0.8726105372337665,0.43741243084683173,0.8163029435548812,0.32199592123049287,0.2178428384259361
594,33.825,33.45,-0.6,0.3355586443689532,0.8689503340273281,0.43218740327282146,0.8133289349266514,0.31719140647225236,0.21493429744893663
595,33.866,33.51,-0.77,0.3305516546014727,0.8652652181362249,0.4270165828953468,0.8103127288389256,0.31240217549942173,0.2120376133295291
596,33.929,33.56,-0.7,0.32560906975569737,0.861557004513875,0.42190190391286314,0.8072561152286254,0.3076298012921074,0.20915282949224379
597,34.033,33.62,-0.84,0.3207331085904601,0.8578275286938758,0.41684521796017276,0.8041609170160993,0.30287584210687263,0.20628000559593665
598,34.054,33.67,-1.01,0.3159259205658652,0.8540786452506711,0.4118482929000229,0.8010289883986078,0.2981418399817604,0.20341921727727263
599,34.094,33.73,-1.07,0.3111895840497165,0.8503122262406684,0.4069128117401094,0.7978622131163252,0.29342931927924926,0.2005705558675592
600,34.156,33.78,-1.09,0.30652610462499547,0.846530159625345,0.40204037167659273,0.7946625026927943,0.2887397852691568,0.19773412808393884
601,34.218,33.84,-1.24,0.3019374134996801,0.8427343476779099,0.39723248326498584,0.7914317946517899,0.2840747227533827,0.19491005569596576
602,34.259,33.89,-1.35,0.297425366019992,0.8389267053750725,0.3924905697190211,0.7881720507125773,0.2794355947342425,0.1920984751686225
603,34.321,33.95,-1.25,0.29299174028799185,0.8351091587754513,0.3878159663378458,0.7848852549655838,0.27482384112800917,0.18929953728286317
604,34.403,34.0,-1.46,0.28863823588432946,0.8312836433861328,0.3832099200616892,0.7815734120305298,0.27024087752515186,0.18651340673479305
605,34.444,34.06,-1.62,0.2843664726968649,0.82745210251888,0.37867358915595634,0.7782385451990604,0.2656880939986434,0.18374026171460842
606,34.464,34.11,-1.52,0.28017798985579473,0.8236164856375119,0.37420804302354627,0.7748826945639214,0.2611668539615928,0.18098029346642683
607,34.526,34.17,-1.63,0.2760742447758581,0.8197787466980019,0.3698142621450691,0.7715079151366793,0.25667849307534335,0.17823370583014198
608,34.607,34.22,-1.76,0.27205661230610306,0.8159408424828724,0.36549313814650664,0.7681162749559443,0.25222431820904057,0.17550071476647003
609,34.648,34.28,-1.84,0.2681263839875009,0.8121047309315454,0.3612454739936208,0.7647098531880798,0.24780560645154318,0.17278154786637964
610,34.75,34.33,-1.85,0.26428476741842044,0.8082723694684204,0.357071984312108,0.7612907382224593,0.24342360417643333,0.17007644384608914
611,34.771,34.39,-2.02,0.260532885727743,0.8044457133305045,0.35297329583223347,0.7578610257633843,0.23907952616075664,0.16738565202879493
612,34.812,34.44,-2.14,0.2568717771552043,0.8006267138964168,0.34894994795643625,0.7544228169207781,0.23477455475798006,0.16470943181429923
613,34.896,34.5,-2.0,0.2533023947383625,0.7968173170185479,0.34500239344815037,0.7509782163017827,0.23050983912548978,0.1620480521377045
614,34.916,34.55,-2.17,0.24982560610541582,0.793019461360098,0.3411309992398296,0.7475293301053775,0.22628649450678454,0.1594017909183143
615,34.977,34.61,-2.28,0.24644219337289786,0.7892350767386546,0.3373360473579023,0.7440782642221174,0.22210560156836026,0.15677093449983362
616,35.018,34.66,-2.16,0.2431528531470888,0.7854660824779425,0.33361773596214706,0.7406271223410493,0.21796820579114728,0.15415577708290149
617,35.12,34.72,-2.23,0.2399581966278426,0.7817143857693638,0.32997618049683186,0.7371780040657815,0.2138753169162516,0.15155662015092802
618,35.14,34.77,-2.3,0.23685874981344307,0.7779818800449264,0.32641141495085163,0.7337330030415863,0.20982790844464838,0.14897377189018227
619,35.202,34.83,-2.32,0.23385495380496735,0.7742704433631993,0.32292339322391805,0.7302942050954111,0.20582691719038973,0.14640754660506067
620,35.243,34.88,-2.27,0.23094716520847314,0.770581936810007,0.31951199059564056,0.7268636863907277,0.20187324288682162,0.14385826412943253
621,35.305,34.94,-2.39,0.22813565663321927,0.7669182029156016,0.3161770052941648,0.7234435115991661,0.1979677478452476,0.1413262492349282
622,35.367,34.99,-2.47,0.2254206172840703,0.763281064089997,0.31291816016090135,0.7200357320908396,0.19411125666541393,0.13881183103703645
623,35.428,35.05,-2.33,0.2228021536461912,0.7596723210780751,0.3097351044077434,0.7166423841452089,0.19030455599712798,0.13631534239987678
624,35.49,35.1,-2.51,0.22028029026010826,0.7560937514359747,0.3066274154630597,0.7132654871842554,0.1865483943522551,0.1338371193404927
625,35.511,35.16,-2.64,0.21785497058516282,0.7525471080301671,0.3035946009026104,0.7099070420296621,0.18284348196626665,0.13137750043348168
626,35.572,35.21,-2.53,0.21552605794929058,0.7490341175605758,0.30063610046137734,0.7065690291856418,0.1791904907084381,0.128936826216732
627,35.634,35.27,-2.58,0.21329333658295696,0.7455564791090201,0.297751288122162,0.7032534071489669,0.1755900540397096,0.1265154385989853
628,35.695,35.32,-2.65,0.21115651273496402,0.7421158627141968,0.294939474276669,0.6999621107476449,0.17204276701711788,0.12411368026991441
629,35.736,35.38,-2.64,0.20911521586767826,0.7387139079743609,0.29219990795459394,0.6966970495096313,0.16854918634360624,0.12173189411338668
630,35.799,35.43,-2.56,0.20716899992906188,0.7353522226788582,0.2895317791160288,0.6934601060629836,0.16510983046194688,0.11937042262455454
631,35.879,35.49,-2.65,0.20531734469880603,0.7320323814696407,0.28693422100235855,0.6902531345688425,0.16172517969146286,0.11702960733140634
632,35.9,35.54,-2.71,0.20355965720585362,0.728755924533842,0.2844063125407535,0.6870779591885562,0.15839567640620475,0.11470978822142854
633,35.961,35.6,-2.5,0.20189527321461803,0.7255243563284414,0.28194708079732356,0.6839363725861652,0.1551217252532193,0.11241130317405994
634,36.022,35.65,-2.64,0.20032345877724517,0.722339144337974,0.27955550347399694,0.6808301344673456,0.1519036934095396,0.11013448739964114
635,36.064,35.71,-2.72,0.19884341184928742,0.7192017178661928,0.27723051144416505,0.677760970155818,0.1487419108765228,0.10787967288557425
636,36.126,35.76,-2.6,0.1974542639661309,0.7161134668625834,0.2749709913221059,0.6747305692082074,0.1456366708101732,0.10564718785040669
637,36.231,35.82,-2.66,0.19615508197749584,0.7130757407846378,0.2727757880612107,0.6717405840683297,0.1425882298861021,0.10343735620653324
638,36.251,35.87,-2.76,0.19494486983732007,0.7100898474967693,0.2706437075760744,0.6687926287618609,0.1395968086977719,0.10125049703221106
639,36.311,35.93,-2.79,0.1938225704462695,0.7071570522067402,0.2685735193834927,0.6658882776323621,0.1366625921866535,0.09908692405360045
640,36.353,35.98,-2.74,0.19278706754400698,0.7042785764404949,0.2665639592573704,0.6630290641196811,0.13378573010290473,0.09694694513753838
641,36.414,36.04,-2.82,0.19183718764825783,0.7014555970562876,0.2646137318925585,0.6602164795817272,0.1309663374951406,0.09483086179574166
642,36.474,36.09,-2.84,0.19097170203763397,0.6986892452989601,0.262721513572669,0.6574519721605531,0.12820449522781185,0.09273896870114186
643,36.516,36.15,-2.64,0.19018932877511677,0.6959806058951863,0.26088595483693566,0.6547369456935941,0.12550025052466246,0.09067155321705915
644,36.598,36.2,-2.76,0.18948873476908265,0.6933307161904317,0.2591056831412165,0.6520727586708437,0.1228536175367152,0.08862889493991354
645,36.618,36.26,-2.85,0.18886853786876798,0.6907405653283488,0.25737930550827937,0.6494607232386842,0.12026457793324251,0.08661126525615148
646,36.681,36.31,-2.72,0.18832730899109032,0.688211093473322,0.2557054111626063,0.6469021042510651,0.11773308151422152,0.08461892691401825
647,36.723,36.37,-2.75,0.18786357427579684,0.6857431910769025,0.25408257414517565,0.6443981183686478,0.11525904684281917,0.08265213361074553
648,36.783,36.42,-2.81,0.18747581726598686,0.6833376981888559,0.25250935590402346,0.6419499332064021,0.11284236189647925,0.08071112959569021
649,36.844,36.48,-2.8,0.1871624811110798,0.6809954038135385,0.25098430785677395,0.6395586665300032,0.11048288473520262,0.07879614928994352
650,36.905,36.53,-2.75,0.18692197078928802,0.678717045312346,0.2495059739217126,0.6372253855012722,0.10818044418563515,0.07690741692290207
651,36.967,36.59,-2.85,0.1867526553466863,0.6765033078529604,0.24807289301431168,0.634951105972814,0.1059348405396044,0.07504514618625852
652,37.009,36.64,-2.93,0.1866528701500258,0.6743548239060605,0.246683601506325,0.6327367918319291,0.10374584626576783,0.07320953990583631
653,37.069,36.7,-2.73,0.18662091915050333,0.6722721727900709,0.24533663564466296,0.6305833543938546,0.1016132067330437,0.0714007897316604
654,37.111,36.75,-2.86,0.18665507715575413,0.6702558802644158,0.24403053392732996,0.6284916518443538,0.09953664094450239,0.06961907584660576
655,37.194,36.81,-2.94,0.18675359210736348,0.6683064181716504,0.24276383943376295,0.6264624887316478,0.09751584228039142,0.06786456669391021
656,37.235,36.86,-2.79,0.18691468736118944,0.6664242041288166,0.24153510210698753,0.6244966155076853,0.09555047924898319,0.06613741872376441
657,37.337,36.92,-2.82,0.1871365639678326,0.6646096012683406,0.24034288098516415,0.6225947281187165,0.09364019624396205,0.06443777615911794
658,37.357,36.97,-2.87,0.18741740295069154,0.6628629180287282,0.23918574638029838,0.6207574676450812,0.0917846143070955,0.06276577078079601
659,37.398,37.03,-2.86,0.187755367579136,0.6611844079952756,0.23806228200203353,0.6189854199901168,0.0899833318949676,0.06112152173200617
660,37.46,37.08,-2.78,0.18814860563438804,0.6595742697910116,0.23697108702453573,0.6172791156181348,0.08823592564860837,0.059505135342282446
661,37.521,37.14,-2.87,0.1885952516657873,0.6580326470180876,0.23591077809458916,0.6156390293414278,0.08654195116490829,0.057916704970879876
662,37.562,37.19,-2.93,0.18909342923521152,0.6565596282497862,0.23487999127913337,0.614065580156249,0.08490094376875859,0.056356310869603715
663,37.645,37.25,-2.75,0.18964125314750616,0.655155247073287,0.23387738395056387,0.6125591311276798,0.08331241928490885,0.054824020065025854
664,37.707,37.3,-2.9,0.19023683166485286,0.6538194821832574,0.2329016366081908,0.6111199893232873,0.08177587480857879,0.053319886259997555
665,37.728,37.36,-3.02,0.19087826870305638,0.6525522575262723,0.23195145463428904,0.6097484057954682,0.08029078947390322,0.05184394975431115
666,37.77,37.41,-2.89,0.19156366600773364,0.6513534424960118,0.2310255699831989,0.608444575612403,0.07885662521932374,0.050396237384290464
667,37.832,37.47,-2.93,0.19229112530839285,0.6502228521791209,0.23012274280201608,0.6072086379375249,0.07747282754906629,0.04897676248101958
668,37.892,37.52,-2.98,0.19305875044839463,0.649160247651514,0.22924176298151078,0.6060406761573416,0.07613882628984289,0.04758552484688163
669,37.932,37.58,-2.97,0.19386464948874974,0.6481653363248289,0.22838145163595694,0.6049407180574168,0.07485403634190892,0.04622251075008352
670,37.993,37.63,-2.89,0.19470693678366946,0.6472377723427014,0.22754066251056485,0.6039087360463279,0.07361785842362918,0.044887692936850146
671,38.056,37.69,-2.96,0.19558373502582646,0.6463771570264985,0.22671828331527333,0.602944647427419,0.07242967980873849,0.04358103066098773
672,38.117,37.74,-3.0,0.1964931772593782,0.6455830393700925,0.22591323698375576,0.6020483147181379,0.07128887505553082,0.042302469730549956
673,38.179,37.8,-2.8,0.19743340885891505,0.6448549165832249,0.22512448285658312,0.601219546016734,0.07019480672726518,0.0410519425713622
674,38.239,37.85,-2.93,0.19840258947260658,0.6441922346829372,0.22435101778758312,0.6004580954160639,0.06914682610314189,0.03982936830715893
675,38.281,37.91,-3.03,0.199398894927903,0.6435943891325236,0.22359187717251783,0.599763663464241,0.06814427387927113,0.038634652856062816
676,38.342,37.96,-2.92,0.20042051909819042,0.6430607255274731,0.22284613589929733,0.5991358976718795,0.06718648085913705,0.03746768904307502
677,38.424,38.02,-2.97,0.20146567572885715,0.6425905403278683,0.2221129092190956,0.5985743930656601,0.06627276863313424,0.03632835672818293
678,38.445,38.07,-3.05,0.20253260022131914,0.6421830816366558,0.22139135353791262,0.5980786927878682,0.06540245024679285,0.03521652294966394
679,38.505,38.13,-3.05,0.2036195513735883,0.6418375500231099,0.22068066712821446,0.5976482887414936,0.0645748308573295,0.034132042082163846
680,38.546,38.18,-2.95,0.20472481307595308,0.6415530993907532,0.21998009076032266,0.5972826222804485,0.06378920837817509,0.03307475600911153
681,38.608,38.24,-3.04,0.2058466959603294,0.6413288378889067,0.21928890825327804,0.5969810849443997,0.0630448741111516,0.032044494309004516
682,38.67,38.29,-3.09,0.20698353900185656,0.6411638288669643,0.2186064469449935,0.5967430192376181,0.06234111336598884,0.031041074455077245
683,38.711,38.35,-2.89,0.2081337110713516,0.641057091870403,0.21793207808163825,0.5965677194511604,0.061677206066910246,0.030064302027838347
684,38.833,38.4,-3.02,0.20929561243732586,0.6410076036774961,0.21726521712638214,0.5964544325275987,0.06105242734606757,0.029113970939935292
685,38.873,38.46,-3.13,0.21046767621638154,0.6410142993756712,0.21660532398783192,0.5964023589674341,0.060466048123664,0.028189863672788047
686,38.893,38.51,-3.0,0.21164836977091497,0.6410760734764843,0.21595190316870555,0.596410653776287,0.05991733567466644,0.02729175152441503
687,38.934,38.57,-3.04,0.21283619605320447,0.6411917810681805,0.2153045038355444,0.5964784274518746,0.05940555418206854,0.026419394867860324
688,38.996,38.62,-3.14,0.21402969489513693,0.6413602390047655,0.21466271981054044,0.5966047470096615,0.05892996527669664,0.02557254341964639
689,39.036,38.68,-3.17,0.21522744424294518,0.6415802271304553,0.2140261894867525,0.5967886370459868,0.058489828563569386,0.024750936517719778
690,39.097,38.73,-3.13,0.21642806133638173,0.6418504895383603,0.21339459566810473,0.5970290808374563,0.05808440213484011,0.023954303408386377
691,39.178,38.79,-3.25,0.21763020383181622,0.6421697358622436,0.21276766533567032,0.5973250214753941,0.05771294306935591,0.02318236354176348
692,39.218,38.84,-3.3,0.21883257086878932,0.6425366426001758,0.21214516934182268,0.5976753630341543,0.05737470791885398,0.022434826875320505
693,39.26,38.9,-3.11,0.22003390407956216,0.642949854468893,0.2115269220338597,0.5980789717721293,0.057068953180790416,0.02171139418510645
694,39.321,38.95,-3.24,0.22123298854117374,0.6434079857876491,0.2109127808086839,0.5985346773643389,0.05679493575777188,0.021011757384253784
695,39.362,39.01,-3.33,0.22242865366945447,0.6439096218903531,0.2103026456000555,0.5990412741655425,0.056551913403546455,0.020335599848327675
696,39.423,39.06,-3.21,0.22361977405436795,0.6444533205648385,0.20969645829988254,0.5995975225029055,0.056339145155522206,0.019682596747053523
697,39.486,39.12,-3.24,0.22480527023605992,0.6450376135181507,0.20909420211506863,0.6002021499972596,0.05615589175380416,0.019052415381927878
698,39.568,39.17,-3.28,0.22598410942109046,0.6456610078667285,0.20849590086159295,0.6008538529119586,0.056001416046756146,0.01844471552922887
699,39.589,39.23,-3.29,0.22715530613842813,0.6463219876503409,0.20790161819761674,0.6015512975282923,0.05587498338310607,0.01785914978797308
700,39.65,39.28,-3.23,0.2283179228348744,0.6470190153686404,0.2073114567974916,0.6022931215464234,0.05577586199063759,0.01729536393237077
701,39.692,39.34,-3.33,0.22947107040970632,0.6477505335391726,0.2067255574686394,0.6030779355108021,0.055703323341543515,0.016752997268323692
702,39.753,39.39,-3.4,0.23061390868845347,0.6485149662756382,0.2061440982133768,0.603904324258979,0.055656642504540554,0.016231682993509335
703,39.835,39.45,-3.23,0.23174564683584092,0.6493107208851626,0.20556729323784223,0.6047708483927078,0.0556350984838588,0.01573104856060396
704,39.896,39.5,-3.37,0.23286554370803117,0.6501361894832636,0.20499539191027122,0.6056760457701739,0.055637974545222506,0.01525071604320079
705,39.917,39.56,-3.47,0.23397290814437421,0.6509897506251441,0.20442867767091288,0.6066184330181432,0.05566455852893394,0.01479030250398541
706,39.978,39.61,-3.32,0.23506709919891183,0.6518697709518855,0.2038674668959227,0.6075965070628303,0.0557141431501683,0.014349420364708394
707,40.041,39.67,-3.35,0.23614752631191954,0.6527746068500444,0.2033121077176489,0.6086087466782489,0.05578602628658679,0.013927677777456557
708,40.083,39.72,-3.4,0.2372136494218234,0.6537026061230694,0.20276297880386474,0.6096536140507158,0.055879511253361804,0.013524678996705133
709,40.164,39.78,-3.38,0.23826497901784646,0.6546521096728929,0.20222048809859652,0.6107295563580821,0.05599390706570186,0.013140024751634333
710,40.205,39.83,-3.28,0.23930107613375412,0.6556214531900442,0.2016850715272714,0.6118350073622185,0.05612852868898309,0.01277331261818745
711,40.266,39.89,-3.37,0.24032155228313823,0.6566089688506056,0.20115719166898705,0.6129683890132291,0.056282697276624556,0.012424137390344992
712,40.327,39.94,-3.41,0.2413260693367742,0.6576129870182883,0.20063733639877568,0.6141281130638385,0.056455740395878265,0.012092091450092247
713,40.369,40.0,-3.22,0.24231433934266722,0.6586318379498665,0.20012601750274545,0.61531258269239,0.056646992241744014,0.011776765135553677
714,40.429,40.05,-3.37,0.24328612428948226,0.6596638535021571,0.19962376926898326,0.6165201941328787,0.05685579383925924,0.011477747106755455
715,40.491,40.11,-3.47,0.24424123581411414,0.6607073688387035,0.1991311470570877,0.61774933831045,0.05708149323445245,0.011194624708461194
716,40.531,40.16,-3.36,0.2451795348541828,0.6617607241343494,0.19864872584918258,0.6189984024808215,0.0573234456742836,0.010926984329509908
717,40.573,40.22,-3.41,0.24610093124627908,0.6628222662759004,0.19817709878527684,0.6202657718721086,0.05758101377591565,0.01067441175807435
718,40.654,40.27,-3.49,0.24700538327080773,0.6638903505570639,0.19771687568583973,0.6215498313275268,0.0578535676856472,0.01043649253227429
719,40.714,40.33,-3.48,0.2478928971442231,0.6649633423658555,0.19726868156435068,0.6228489669475007,0.05814048522780649,0.010212812285603196
720,40.757,40.38,-3.39,0.24876352645933805,0.666039618862687,0.19683315513241006,0.6241615677297817,0.058441152043880916,0.010002957086626539
721,40.84,40.44,-3.48,0.24961737157431513,0.6671175706473447,0.1964109472998627,0.625486027206195,0.05875496172213606,0.009806513772411152
722,40.861,40.49,-3.51,0.2504545789509226,0.6681956034130223,0.1960027196723127,0.6268207450745774,0.05908131591795788,0.00962307027516627
723,40.902,40.55,-3.31,0.25127534044266436,0.6692721395855213,0.1956091430483909,0.6281641288243892,0.05941962446514951,0.009452215941608486
724,41.004,40.6,-3.44,0.252079892533488,0.6703456199456628,0.1952308959191681,0.629514595354377,0.0597693054784231,0.009293541844592475
725,41.024,40.66,-3.53,0.2528685155279104,0.6714145052329209,0.194868662972155,0.630870572580596,0.0601297854473493,0.009146641086571278
726,41.066,40.71,-3.39,0.25364153269354095,0.6724772777283028,0.19452313360238407,0.6322305010330745,0.06050049932206017,0.009011109094453464
727,41.147,40.77,-3.42,0.2543993093571505,0.6735324428145467,0.19419500043316487,0.63359283543939,0.06088089059103406,0.008886543905421925
728,41.209,40.82,-3.48,0.2551422519556012,0.6745785305117518,0.1938849578491941,0.6349560462934057,0.06127041135130087,0.00877254644330705
729,41.251,40.88,-3.49,0.2558708070430411,0.6756140969866343,0.1935937005447121,0.6363186214074641,0.06166852237140479,0.008668720785151069
730,41.312,40.93,-3.44,0.256585460255807,0.6766377260337311,0.19332192208936064,0.6376790674463826,0.0620746931474663,0.008574674417617393
731,41.373,40.99,-3.55,0.2572867352365476,0.6776480305269341,0.1930703135144101,0.639035911441542,0.06248840195268462,0.008490018482907391
732,41.434,41.04,-3.61,0.2579751925191636,0.6786436538397492,0.19283956192202498,0.6403877022832225,0.06290913588060881,0.008414368013875042
733,41.476,41.1,-3.44,0.2586514283762103,0.6796232712326419,0.19263034912016586,0.641733012189236,0.06333639088247571,0.008347342158072613
734,41.517,41.15,-3.56,0.25931607363043396,0.6805855912057864,0.1924433502855695,0.6430704381478551,0.06376967179887616,0.008288564390493724
735,41.577,41.21,-3.64,0.2599697924320852,0.6815293568154943,0.1922792326570332,0.6443986033330579,0.06420849238596812,0.008237662714808313
736,41.619,41.26,-3.47,0.2606132810035931,0.6824533469525983,0.19213865426101032,0.6457161584901557,0.0646523753364283,0.008194269852900478
737,41.681,41.32,-3.49,0.26124726635316303,0.6833563775810834,0.19202226267139885,0.6470217832898971,0.06510085229531676,0.008158023422534414
738,41.743,41.37,-3.54,0.26187250495888537,0.684237302935285,0.19193069380534056,0.6483141876491296,0.06555346387101578,0.008128566103024608
739,41.804,41.43,-3.52,0.26248978142495566,0.6850950166740529,0.19186457075676053,0.6495921130161609,0.06600975964140426,0.00810554578885279
740,41.868,41.48,-3.43,0.26309990711162384,0.6859284529904062,0.1918245026692451,0.6508543336190877,0.06646929815545295,0.008088615731222356
741,41.909,41.54,-3.5,0.26370371874057075,0.6867365876752983,0.1918110836497502,0.6520996576754652,0.06693164693045424,0.00807743466758832
742,41.971,41.59,-3.52,0.2643020769775238,0.6875184391341569,0.19182489172453313,0.6533269285617815,0.06739638244512096,0.008071666939274068
743,42.032,41.65,-3.34,0.26489586499404205,0.6882730693549098,0.19186648783860838,0.6545350259412918,0.06786309012881034,0.00807098259735914
744,42.136,41.7,-3.48,0.2654859870105293,0.6889995848262237,0.1919364148999753,0.6557228668488297,0.0683313643471543,0.008075057497072
745,42.157,41.76,-3.57,0.2660733668226734,0.6896971374046883,0.1920351968698511,0.6568894067312439,0.06880080838440251,0.008083573380950263
746,42.178,41.81,-3.44,0.2666589463136319,0.6903649251297058,0.1921633379001668,0.6580336404421057,0.06927103442281254,0.00809621795103947
747,42.239,41.87,-3.5,0.2672436839544019,0.6910021929848645,0.19232132151964465,0.6591546031893105,0.06974166351942819,0.008112684930404474
748,42.281,41.92,-3.57,0.2678285532948766,0.6916082336046261,0.19250960986980556,0.6602513714341608,0.07021232558056852,0.00813267411426101
749,42.344,41.98,-3.55,0.26841454144801025,0.69218238792526,0.19272864299213407,0.6613230637406103,0.07068265933431411,0.00815589141106937
750,42.405,42.03,-3.47,0.2690026475693518,0.6927240457791226,0.19297883816740333,0.6623688415735,0.0711523123012439,0.008182048873931678
751,42.488,42.09,-3.54,0.269593881334084,0.6932326464314857,0.1932605893079556,0.6633879100447486,0.07162094076364667,0.008210864722624066
752,42.508,42.14,-3.56,0.2701892614136517,0.6937076790591812,0.1935742664035762,0.6643795186065596,0.07208820973340288,0.008242063356608955
753,42.551,42.2,-3.36,0.27078981395405644,0.6941486831703866,0.19392021502147322,0.6653429616907838,0.07255379291871955,0.008275375359397572
754,42.612,42.25,-3.47,0.27139657105794757,0.6945552489649248,0.19429875586079187,0.6662775792936522,0.07301737268990485,0.008310537494666552
755,42.674,42.31,-3.55,0.2720105692727166,0.694927017634494,0.19471018436201334,0.6671827575051623,0.07347864004438881,0.008347292694562063
756,42.735,42.36,-3.37,0.27263284808688615,0.6952636816022983,0.1951547703715071,0.6680579289824821,0.07393729457122955,0.008385390040640133
757,42.839,42.42,-3.4,0.2732644484371912,0.6955649847015916,0.19563275786148346,0.6689025733667942,0.07439304441537906,0.008424584737901645
758,42.86,42.47,-3.48,0.27390641122883,0.6958307222927136,0.19614436470558685,0.6697162176430581,0.07484560624200402,0.008464638082417047
759,42.901,42.53,-3.46,0.27455977587134367,0.6960607413183402,0.19668978251031075,0.6704984364422564,0.07529470520117562,0.008505317423079056
760,42.963,42.58,-3.41,0.2752255788325168,0.696254940296844,0.19726917650232348,0.6712488522858218,0.07574007489326524,0.008546396118039432
761,43.024,42.64,-3.52,0.275904852212652,0.696413269253798,0.19788268547172055,0.671967135772024,0.07618145733539447,0.008587653486403784
762,43.065,42.69,-3.57,0.2765986223415373,0.6965357295917302,0.1985304217711466,0.6726530057041588,0.07661860292927436,0.00862887475579495
763,43.125,42.75,-3.41,0.2773079084003428,0.6966223738983198,0.19921247137064452,0.6733062291604565,0.07705127043073774,0.008669851006430588
764,43.206,42.8,-3.53,0.2780337210705568,0.6966733056932991,0.19992889396802316,0.6739266215056816,0.07747922692123062,0.008710379112378583
765,43.227,42.86,-3.61,0.27877706121193035,0.6966886791143865,0.20067972315450325,0.674514046344398,0.07790224778148605,0.008750261680654072
766,43.267,42.91,-3.41,0.279538918571267,0.6966686985426315,0.20146496663540098,0.6750684154158534,0.07832011666757199,0.00878930698879695
767,43.329,42.97,-3.45,0.2803202705238231,0.6966136181675663,0.20228460650563737,0.6755896884303748,0.07873262548947893,0.008827328921544322
768,43.39,43.02,-3.51,0.2811220808490495,0.6965237414925803,0.20313859957985764,0.6760778728471528,0.079139574392395,0.008864146907207066
769,43.452,43.08,-3.47,0.28194529854232153,0.696399420781008,0.20402687777683406,0.6765330235933724,0.07954077174081436,0.00889958585434549
770,43.514,43.13,-3.43,0.2827908566642116,0.6962410564435434,0.20494934855769695,0.6769552427247787,0.07993603410564976,0.00893347608929612
771,43.575,43.19,-3.52,0.28365967122882146,0.6960490963676684,0.20590589541745533,0.6773446790278375,0.0803251862545363,0.008965653295055604
772,43.616,43.24,-3.55,0.2845526401326711,0.6958240351898475,0.20689637842920403,0.6777015275637078,0.08070806114551182,0.008995958452022836
773,43.656,43.3,-3.39,0.2854706421255905,0.6955664135113272,0.2079206348403207,0.6780260291543515,0.08108449992424331,0.009024237781109144
774,43.718,43.35,-3.52,0.28641453582499293,0.6952768170584843,0.20897847971985037,0.6783184698112236,0.08145435192494602,0.009050342689729013
775,43.781,43.41,-3.63,0.287385158774817,0.694955875788772,0.2100697066561566,0.6785791801071145,0.08181747467511596,0.009074129721169803
776,43.842,43.46,-3.48,0.28838332655029514,0.6946042629434435,0.21119408850380628,0.6788085344918103,0.0821737339041754,0.00909546050779371
777,43.945,43.52,-3.56,0.28940983190958625,0.6942226940483326,0.212351378178571,0.6790069505523011,0.08252300355610205,0.009114201728474783
778,43.966,43.57,-3.64,0.29046544399315916,0.6938119258640556,0.21354130949932015,0.6791748882183293,0.08286516580606351,0.00913022507064522
779,44.007,43.63,-3.57,0.29155090757157287,0.6933727552871047,0.2147635980753234,0.6793128489142422,0.08320011108101488,0.009143407197298363
780,44.049,43.68,-3.53,0.2926669423420016,0.6929060182034192,0.21601794223711887,0.6794213746583897,0.08352773808416235,0.009153629719245611
781,44.109,43.74,-3.56,0.293814242273608,0.6924125882960904,0.2173040240087422,0.6795010471115871,0.08384795382314586,0.009160779172868214
782,44.151,43.79,-3.59,0.29499347500166156,0.6918933758089169,0.2186215101188007,0.6795524865763907,0.08416067364175374,0.009164747003570834
783,44.213,43.85,-3.43,0.2962052812701242,0.6913493262676202,0.21997005304764974,0.6795763509491156,0.08446582125496004,0.00916542955511566
784,44.316,43.9,-3.52,0.2974502744223104,0.6907814191606427,0.22134929210780332,0.6795733346266241,0.08476332878707524,0.009162728064985234
785,44.335,43.96,-3.61,0.2987290399391771,0.6901906665815237,0.2227588545546621,0.6795441673699658,0.08505313681280921,0.009156548665888647
786,44.377,44.01,-3.41,0.3000421350247877,0.689578111834919,0.2241983567246352,0.679489613126976,0.08533519440105428,0.009146802393485068
787,44.439,44.07,-3.48,0.3013900882385458,0.6889448280083502,0.2256674051978058,0.6794104688159209,0.08560945916120553,0.009133405200371212
788,44.5,44.12,-3.56,0.30277339917381885,0.6882919165118119,0.2271655979823772,0.6793075630722247,0.08587589729182595,0.00911627797638827
789,44.542,44.18,-3.5,0.30419253818252495,0.6876205055874615,0.22869252571819135,0.679181754960274,0.08613448363145654,0.009095346575311844
790,44.605,44.23,-3.5,0.30564794614517343,0.6869317487917295,0.23024777289665357,0.6790339326522467,0.08638520171137208,0.009070541847961959
791,44.708,44.29,-3.59,0.30714003428581194,0.686226823452229,0.23183091909444953,0.6788650120758486,0.08662804381006664,0.009041799681731423
792,44.729,44.34,-3.64,0.3086691840312847,0.6855069291018636,0.23344154021842636,0.6786759355328423,0.08686301100921558,0.009009061046506542
793,44.77,44.4,-3.5,0.3102357469141033,0.6847732858925677,0.23507920975891605,0.6784676702903318,0.08709011325081081,0.008972272046928144
794,44.831,44.45,-3.59,0.31184004451809905,0.6840271329911485,0.23674350004865768,0.6782412071468724,0.08730936939510478,0.008931383980919416
795,44.872,44.51,-3.67,0.3134823684658936,0.683269726959706,0.23843398352434114,0.6779975589755532,0.0875208072789285,0.008886353404393046
796,44.934,44.56,-3.46,0.31516298044712937,0.6825023401230756,0.24015023398768376,0.6777377592462719,0.08772446377389748,0.008837142202032586
797,44.995,44.62,-3.52,0.3168821122863672,0.6817262589256966,0.24189182786291502,0.6774628605294538,0.08792038484398298,0.008783717664030077
798,45.035,44.67,-3.57,0.3186399660495579,0.6809427822802786,0.24365834544755555,0.6771739329834929,0.08810862560190089,0.00872605256867174
799,45.116,44.73,-3.45,0.32043671418796166,0.6801532199106928,0.24544937215339366,0.6768720628282658,0.08828925036376555,0.008664125270665674
800,45.158,44.78,-3.41,0.3222724997183793,0.6793588906915777,0.24726449973462913,0.6765583508071298,0.08846233270147459,0.008597919795067271
801,45.219,44.84,-3.46,0.32414743643862853,0.6785611209871286,0.24910332750027872,0.6762339106398079,0.08862795549231385,0.008527425936611651
802,45.281,44.89,-3.47,0.3260616091772652,0.6777612429914828,0.2509654635080292,0.6758998674685587,0.08878621096529545,0.008452639364231096
803,45.342,44.95,-3.31,0.3280150740765536,0.6769605930730741,0.2528505257367173,0.6755573563000902,0.08893720074377191,0.008373561730500148
804,45.425,45.0,-3.42,0.3300078589076478,0.6761605101253034,0.25475814323453594,0.6752075204457682,0.089081035883901,0.008290200785705483
805,45.446,45.06,-3.53,0.3320399634168839,0.6753623339258328,0.2566879572399559,0.6748515099627406,0.08921783690855825,0.00820257049617181
806,45.487,45.11,-3.33,0.33411135970202266,0.6745674035067346,0.25863962227225806,0.6744904800986377,0.0893477338363104,0.008110691166378192
807,45.55,45.17,-3.43,0.33622199261724284,0.6737770555376217,0.2606128071885673,0.6741255897424785,0.08947086620507068,0.008014589564285223
808,45.612,45.22,-3.47,0.33837178020564557,0.6729926227237847,0.26260719620432743,0.6737579998843632,0.08958738309003857,0.00791429904921706
809,45.634,45.28,-3.36,0.3405606141579166,0.6722154322213272,0.2646224898742045,0.6733888720865194,0.08969744311550744,0.007809859701583372
810,45.694,45.33,-3.34,0.34278836029568316,0.6714468040712696,0.2666584060304688,0.6730193669682525,0.0898012144601115,0.007701318453663352
811,45.778,45.39,-3.36,0.3450548590780515,0.6706880496545266,0.26871468067600063,0.6726506427072668,0.08989887485508499,0.007588729220612985
812,45.8,45.44,-3.4,0.34735992612980193,0.6699404701695717,0.27079106882915066,0.6722838535597323,0.08999061157511619,0.007472153030827848
813,45.86,45.5,-3.26,0.3497033527897397,0.6692053551345322,0.272887345317781,0.6719201484013998,0.09007662142140893,0.0073516581547676775
814,45.922,45.55,-3.36,0.3520849066777668,0.6684839809153955,0.2750033055199776,0.671560669291992,0.0901571106965952,0.007227320231339691
815,45.963,45.61,-3.45,0.35450433227932504,0.6677776092819365,0.2771387660491204,0.6712065500650033,0.09023229517116055,0.007099222390951781
816,46.025,45.66,-3.24,0.35696135154592346,0.667087485992925,0.27929356538119926,0.6708589149449641,0.09030240004105701,0.0069674553743841764
817,46.087,45.72,-3.35,0.3594556645105252,0.6664148394121241,0.28146756442247955,0.6705188771941393,0.09036765987617838,0.0068321176466857965
818,46.149,45.77,-3.42,0.36198694991660585,0.6657608791565531,0.2836606470158412,0.670187537790564,0.09042831855936413,0.006693315505382396
819,46.21,45.83,-3.32,0.3645548658596876,0.6651267947785059,0.28587272038429734,0.6698659841393129,0.09048462921559106,0.00655116318234584
820,46.25,45.88,-3.36,0.36715905044015834,0.6645137544828039,0.2881037155104083,0.6695552888188726,0.09053685413101081,0.006405782938686442
821,46.312,45.94,-3.42,0.3697991224262299,0.6639229038806842,0.2903535874505308,0.6692565083643903,0.09058526466147791,0.006257305152023548
822,46.372,45.99,-3.43,0.3724746819259053,0.663355364781593,0.292622315583019,0.6689706820894572,0.09063014113018965,0.0061058683954759345
823,46.434,46.05,-3.3,0.3751853110667965,0.6628122340240412,0.29490990378962295,0.6686988309479656,0.09067177271402983,0.005951619507696224
824,46.474,46.1,-3.38,0.3779305746826035,0.6622945823465541,0.29721638056947075,0.6684419564374395,0.09071045731817995,0.005794713653241217
825,46.516,46.16,-3.42,0.3807100210050358,0.6618034532996143,0.2995417990851783,0.6682010395450548,0.09074650143853409,0.005635314372541832
826,46.619,46.21,-3.15,0.38352318235993965,0.6613398621993946,0.3018862371407963,0.6679770397373695,0.09078022001145045,0.00547359362070387
827,46.64,46.27,-3.24,0.38636957586642806,0.6609047951239773,0.3042497970915124,0.6677708939945602,0.0908119362503905,0.005309731794350774
828,46.702,46.32,-3.31,0.38924870413786794,0.660499207952684,0.3066326056852484,0.6675835158897472,0.09084198146903624,0.005143917745717539
829,46.743,46.38,-3.16,0.3921600559836329,0.6601240254491331,0.3090348138364834,0.667415794713863,0.09087069489054193,0.004976348783194832
830,46.806,46.43,-3.16,0.3951031071106078,0.6597801403886145,0.3114565963328257,0.6672685946464225,0.09089842344265815,0.004807230657496441
831,46.889,46.49,-3.18,0.3980773208235584,0.6594684127302907,0.3138981514750503,0.667142753972432,0.09092552153853099,0.004636777532629328
832,46.909,46.54,-3.17,0.4010821487235755,0.6591896688346077,0.3163597006514391,0.6670390843455689,0.0909523508430326,0.004465211940892506
833,46.951,46.6,-3.06,0.4041170314038504,0.6589447007262246,0.31884148784735344,0.6669583700976763,0.0909792800245338,0.004292764721181921
834,47.013,46.65,-3.17,0.4071813991420849,0.6587342654026725,0.32134377909110023,0.6669013675944957,0.0910066844920907,0.004119674939922415
835,47.075,46.71,-3.24,0.4102746725888787,0.6585590841888875,0.3238668618372965,0.6668688046374229,0.0910349461180688,0.0039461897939908185
836,47.137,46.76,-3.05,0.4133962634514419,0.6584198421376806,0.32641104428905426,0.6668613799109492,0.0910644529462682,0.003772564495040392
837,47.178,46.82,-3.18,0.41654557517195906,0.6583171874761449,0.32897665466040094,0.6668797624753215,0.09109559888563844,0.003599062134686214
838,47.282,46.87,-3.26,0.4197220035998412,0.6582517310979524,0.3315640403804137,0.666924591303872,0.09112878338967491,0.0034259535300787468
839,47.302,46.93,-3.09,0.4229249376569679,0.6582240461015075,0.33417356724060127,0.6669964748643805,0.09116441112159673,0.0032535170494548127
840,47.342,46.98,-3.1,0.42615375999493377,0.6582346673738887,0.3368056184872012,0.6670959907437273,0.09120289160541124,0.0030820384173195947
841,47.404,47.04,-3.13,0.4294078476433381,0.6582840912203967,0.3394605938602556,0.6672236853148974,0.09124463886297943,0.0029118104990119666
842,47.466,47.09,-3.1,0.4326865726482328,0.658372775039373,0.34213890858149276,0.6673800734452299,0.09129007103721984,0.0027431330645275144
843,47.508,47.15,-3.01,0.43598930269992847,0.6585011370418238,0.344840992293195,0.667565638244678,0.09133961000163637,0.0025763125315903927
844,47.569,47.2,-3.09,0.43931540174949635,0.6586695560152483,0.3475672879504119,0.6677808308527118,0.09139368095641774,0.0024116616880776754
845,47.629,47.26,-3.11,0.44266423061345384,0.658878371130921,0.3503182506690722,0.6680260702623697,0.09145271201141526,0.002249499394031154
846,47.671,47.31,-2.92,0.4460351475662691,0.6591278817937305,0.35309434653273003,0.6683017431798324,0.09151713375636165,0.002090150263625844
847,47.752,47.37,-3.05,0.4494275089204879,0.6594183475335305,0.3558960513608893,0.668608203917764,0.09158737881874851,0.0019339443275963578
848,47.792,47.42,-3.14,0.452840669594441,0.6597499879368144,0.35872384944203606,0.6689457743205539,0.09166388140983009,0.0017812166767378534
849,47.874,47.48,-3.01,0.45627398366760974,0.6601229826174555,0.3615782322346685,0.6693147437195422,0.09174707685927413,0.001632307087180462
850,47.914,47.53,-3.08,0.4597268049238417,0.6605374712252013,0.36445969703976666,0.6697153689163134,0.0918374011390219,0.0014875596281936831
851,47.975,47.59,-3.17,0.46319848738268066,0.6609935534905846,0.3673687456482461,0.6701478741921759,0.09193529037693284,0.001347322253345162
852,47.996,47.64,-3.17,0.46668838581902927,0.6614912893049408,0.3703058829669046,0.6706124513420963,0.0920411803607788,0.001211946375899989
853,48.057,47.7,-3.1,0.47019585627122545,0.6620306988343085,0.37327161562622685,0.6711092597315566,0.09215550603314049,0.001081786429397517
854,48.118,47.75,-3.18,0.47372025653747735,0.6626117626660437,0.3762664505732621,0.6716384263749761,0.09227870097773115,0.0009571994143918612
855,48.179,47.81,-3.19,0.4772609466604869,0.6632344219870113,0.37929089365264135,0.6722000460344463,0.09241119689764363,0.0008385444324186591
856,48.24,47.86,-3.01,0.48081728940000457,0.663898578792242,0.38234544817867044,0.6727941813376278,0.09255342308599844,0.000726182208330419
857,48.281,47.92,-3.12,0.48438865069303777,0.6646040961229563,0.38543061350135327,0.673420862913756,0.09270580588947122,0.0006204746022052986
858,48.364,47.97,-3.2,0.4879744001014512,0.6653507983328891,0.3885468835691716,0.6740800895467676,0.09286876816520374,0.0005217841120876348
859,48.404,48.03,-3.0,0.491573911246736,0.6661384713819204,0.391694745491477,0.6747718283446271,0.09304272873163995,0.0004304733688471842
860,48.465,48.08,-3.05,0.4951865622317727,0.6669668631561245,0.39487467810345556,0.6754960149239575,0.09322810181387589,0.0003469046244729307
861,48.526,48.14,-3.12,0.4988117360494381,0.6678356838134732,0.3980871505367186,0.6762525536091188,0.09342529648414771,0.0002714392351583436
862,48.567,48.19,-3.06,0.502448820977821,0.6687446061546131,0.4013326207985154,0.6770413176450397,0.09363471609812371,0.00020443714057326792
863,48.628,48.25,-3.04,0.5060972109616636,0.6696932660183418,0.4046115343624032,0.6778621494233219,0.09385675772772041,0.0001462563407083425
864,48.73,48.3,-3.11,0.509756305979535,0.6706812627015668,0.4079243227730206,0.6787148607213377,0.09409181159120847,9.725237164458134e-05
865,48.75,48.36,-3.16,0.5134255123961105,0.671708159403642,0.4112714022673741,0.6795992329542231,0.09434026048140132,5.777778158163454e-05
866,48.791,48.41,-3.04,0.5171042432987907,0.6727734836950963,0.4146531724147539,0.6805150174398802,0.09460247919273375,2.818160843833703e-05
867,48.832,48.47,-3.15,0.5207919188177238,0.6738767280108485,0.4180700147770782,0.6814619356772987,0.09487883394803996,8.808860307168408e-06
868,48.895,48.52,-3.24,0.5244879664281457,0.6750173501680392,0.42152229159118787,0.6824396796386435,0.09516968182583206,0.0
869,48.955,48.58,-3.03,0.5281918212338489,0.6761947739086007,0.4250103444744127,0.6834479120756041,0.09547537018886994,2.0904348631465836e-06
870,49.039,48.63,-3.13,0.5319029262305605,0.6774083894666646,0.4285344931546563,0.6844862668404784,0.09579623611479984,1.5410012981655684e-05
871,49.101,48.69,-3.18,0.5356207325480333,0.6786575541608831,0.43209503422619444,0.6855543492224303,0.09613260582963158,4.028252686587965e-05
872,49.122,48.74,-3.08,0.5393446996696679,0.679941593011796,0.4356922399322892,0.6866517362994268,0.09648479414483369,7.702522569176851e-05
873,49.163,48.8,-3.06,0.5430742956285272,0.6812597993844588,0.43932635697561695,0.6877779773064627,0.0968531038988539,0.0001259483371211651
874,49.224,48.85,-3.1,0.5468089971787277,0.682611435656584,0.44299760535747934,0.6889325940207305,0.0972378254038999,0.00018735459968280229
875,49.266,48.91,-3.13,0.5505482899413121,0.6839957339124603,0.44670617724675704,0.690115081164393,0.09763923589884545,0.0002615388066652048
876,49.328,48.96,-3.0,0.5542916685237986,0.6854118966629402,0.4504522358795654,0.6913249068256374,0.0980575990091639,0.0003487873624411977
877,49.389,49.02,-3.12,0.5580386366127136,0.6868590975917932,0.45423591449059253,0.6925615128986713,0.09849316421482908,0.00044937785210166233
878,49.451,49.07,-3.22,0.5617887070385599,0.6883364823286705,0.45805731527712584,0.6938243155432887,0.0989461663271499,0.0005635786252358798
879,49.513,49.13,-3.02,0.5655414018128293,0.6898431692488526,0.46191650839677023,0.6951127056645948,0.09941682497552201,0.0006916483946386271
880,49.553,49.18,-3.14,0.569296252136826,0.6913782502998428,0.46581353099985606,0.6964260494134659,0.09990534410508156,0.0008338358506643469
