,Time_Host,Time_Arduino,easingdata,CH1_Oxy,CH1_Deoxy,CH2_Oxy,CH2_Deoxy,CH3_Oxy,CH3_Deoxy
0,1.087,0.04,0.0,0.4026426600107604,0.7113365646615698,0.4384663560403759,0.2369108211946074,0.36845726848468957,0.13720874331385183
1,1.107,0.1,0.0,0.3944858219330138,0.7215052575451579,0.4322161584418885,0.240413304827143,0.36457942213535505,0.14410142393293626
2,1.128,0.15,0.0,0.3863562242269704,0.7315596729511855,0.42598725052332526,0.2438775269945831,0.3607078658288581,0.15088401982531635
3,1.149,0.21,0.0,0.37825688159205006,0.7414944725938635,0.4197818332162763,0.24730164799280116,0.35684395439123145,0.15755388358492592
4,1.17,0.26,0.0,0.37019078245675613,0.7513043894495343,0.4136020846829733,0.2506838530583658,0.35298903428923084,0.16410846939211893
5,1.191,1.06,0.0,0.36216088665625246,0.7609842325343654,0.407450158681708,0.25402235406570867,0.34914444260719685,0.17054533506700267
6,1.212,1.12,0.0,0.35417012315890223,0.7705288915956068,0.40132818297613354,0.25731539118732577,0.34531150604222904,0.17686214396245434
7,1.274,1.17,0.0,0.34622138784337914,0.7799333417109983,0.39523825778932603,0.2605612345143274,0.3414915399182265,0.18305666669649817
8,1.357,1.23,0.0,0.338317541327821,0.7891926477910519,0.38918245430335063,0.2637581856347117,0.337685847219285,0.18912678272418218
9,1.377,1.28,0.0,0.33046140685236597,0.7983019689790453,0.3831628132049465,0.26690457916679744,0.3338957176428777,0.19507048174954134
10,1.419,1.34,0.25,0.3226557682162844,0.8072565629436877,0.3771813432778149,0.26999878424531,0.3301224266731914,0.20088586497867994
11,1.48,1.39,0.14,0.31490336777080646,0.8160517900595345,0.3712400200418756,0.27303920595770637,0.32636723467494755,0.20657114621539444
12,1.541,1.45,0.01,0.30720690446865667,0.824683117470352,0.3653407844397429,0.2760242867284732,0.32263138600803165,0.21212465280103432
13,1.603,1.5,0.37,0.29956903197127416,0.8331461230306871,0.35948554157060136,0.27895250764932544,0.31891610816328253,0.21754482640043135
14,1.645,1.56,0.23,0.29199235681471714,0.8414364991208779,0.35367615947164355,0.2818223897534403,0.31522261091983045,0.22283022363580934
15,1.707,1.61,0.06,0.2844794366352512,0.849550056330857,0.34791446794719183,0.2846324952321715,0.31155208552439506,0.22797951657072787
16,1.748,1.67,0.26,0.2770327784555762,0.8574827270084985,0.342202257445565,0.2873814285931688,0.3079057038929796,0.23299149304624914
17,1.811,1.72,0.22,0.26965483703261417,0.8652305686686863,0.3365412779837153,0.29006783775931505,0.3042846178354191,0.23786505687161416
18,1.874,1.78,0.13,0.26234801326778867,0.8727897672595479,0.33093323811969855,0.29269041510816923,0.3006899583032429,0.24259922787181012
19,1.916,1.83,0.11,0.25511465268070344,0.8801566402824709,0.32537980397306837,0.2952478984517245,0.297122834661292,0.2471931417945361
20,1.998,1.89,0.27,0.2479570439470706,0.8873276397626928,0.31988259829328,0.297739071956344,0.2935843339835156,0.2516460500791692
21,2.08,1.94,0.15,0.2408774175016933,0.8942993550673375,0.314443199576176,0.3001627670027149,0.29007552037335643,0.25595731949041
22,2.101,2.0,-0.0,0.23387794420727595,0.9010685155677679,0.3090631412286188,0.3025178629855749,0.2865974343091173,0.26012643161937055
23,2.142,2.05,0.3,0.22696073408982884,0.9076319931431056,0.3037439107813044,0.3048032880528713,0.28315109201469557,0.26415298225493417
24,2.204,2.11,0.13,0.22012783514146142,0.9139868045217286,0.2984869491497784,0.30701801978392734,0.279737484856071,0.2680366806282613
25,2.264,2.16,-0.07,0.21338123219138933,0.9201301134575832,0.29329364994365503,0.30916108580615576,0.2763575787639271,0.27177734853336655
26,2.305,2.22,0.13,0.20672284584597303,0.9260592327383298,0.28816535882403527,0.31123156434990684,0.2730123136827792,0.2753749193267476
27,2.366,2.27,0.07,0.20015453149858267,0.9317716260225882,0.283103372909159,0.3132285847410911,0.2697026030469787,0.27882943680909067
28,2.447,2.33,-0.07,0.19367807841004653,0.9372649095037164,0.2781089402283812,0.3151513278312425,0.2664293332839311,0.28214105399217243
29,2.468,2.38,-0.18,0.18729520886034168,0.9425368533978238,0.2731832592245574,0.31699902636479454,0.26319336334482674,0.28531003175420017
30,2.53,2.44,-0.07,0.18100757737205042,0.947585383254084,0.26832747830485565,0.3187709652835271,0.2599955242631437,0.28833673738692706
31,2.59,2.49,-0.25,0.174816770006013,0.9524085810856372,0.2635426954399456,0.3204664819682729,0.2568366187411311,0.2912216430379907
32,2.632,2.55,-0.37,0.1687243037295497,0.9570046863194467,0.25882995781145507,0.3220849664180271,0.2537174207643995,0.29396532405210496
33,2.693,2.6,-0.13,0.16273162585757253,0.9613720965634679,0.254190261507514,0.32362586136662913,0.2506386752446507,0.29656845721495056
34,2.755,2.66,-0.34,0.15684011356685207,0.9655093681894469,0.2496245512661427,0.3250886623371901,0.2476010976904876,0.2990318189038218
35,2.817,2.71,-0.55,0.15105107348363384,0.96941521672972,0.24513372026618474,0.32647291763446595,0.24460537390616507,0.30135628314928953
36,2.857,2.77,-0.31,0.14536574134471558,0.9730885170865748,0.2407186099654305,0.3277782282754613,0.2416521597180765,0.3035428196123172
37,2.918,2.82,-0.36,0.13978528173201366,0.9765283035530703,0.23638000998555103,0.3290042478586621,0.23874208072871078,0.3055924914813932
38,2.979,2.88,-0.49,0.13431078788054296,0.9797337696446375,0.23211865804344095,0.33015068237244644,0.23587573209774249,0.307506453294371
39,3.042,2.93,-0.49,0.12894328155955206,0.982704267741453,0.22793523992849068,0.33121728994348365,0.23305367834985574,0.30928594868979836
40,3.082,2.99,-0.41,0.123683713026342,0.9854393085423271,0.22383038952519663,0.3322038805262271,0.23027645320887172,0.3109323080925202
41,3.165,3.04,-0.51,0.11853296105211719,0.9879385603314452,0.21980468888044724,0.3331103155347409,0.22754455945772642,0.312446946338308
42,3.185,3.1,-0.62,0.11349183301904649,0.9902018480597815,0.21585866831477524,0.3339365074180834,0.22485846882381294,0.3138313602422693
43,3.268,3.15,-0.38,0.10856106508752957,0.9922291522434673,0.21199280657679992,0.3346824191804649,0.22221862188916935,0.3150871261157908
44,3.349,3.21,-0.51,0.1037413224325003,0.9940206076817758,0.20820753104001236,0.3353480638474004,0.21962542802496535,0.3162158972367277
45,3.37,3.26,-0.73,0.09903319954745685,0.9955765019976675,0.2045032179410016,0.3359335038790517,0.217079265349721,0.31721940127749293
46,3.411,3.32,-0.43,0.09443722061477974,0.9968972740041445,0.20088019265821894,0.3364388505318336,0.2145804807106827,0.3180994376956173
47,3.471,3.37,-0.49,0.08995383994078851,0.9979835118999844,0.19733873003044017,0.33686426316917834,0.21212938968777553,0.3188578750912891
48,3.533,3.43,-0.62,0.0855834424538597,0.9988359512988683,0.19387905471414163,0.33720994852226255,0.20972627661954088,0.31949664853638626
49,3.574,3.48,-0.53,0.08132634426373375,0.9994554730966729,0.19050134157895593,0.3374761599016991,0.20737139465046456,0.3200177568795297
50,3.637,3.54,-0.48,0.07718279327992843,0.9998431011825437,0.18720571614024367,0.3376631963615914,0.20506496579912126,0.3204232600316134
51,3.676,3.59,-0.55,0.07315296988702816,1.0,0.1839922550276779,0.3377714018177229,0.20280718104658943,0.3207152762361444
52,3.737,3.65,-0.64,0.06923698767451421,0.9999274719647441,0.18086098648860166,0.33780116412198025,0.2005982004446095,0.32089597932862257
53,3.799,3.7,-0.43,0.06543489421870316,0.9996269547461699,0.17781189092476374,0.33775291409544067,0.19843815324298045,0.3209675959890802
54,3.841,3.76,-0.58,0.06174667191428625,0.9991000184197444,0.17484490146090775,0.33762712452280524,0.1963271380357146,0.32093240299177145
55,3.943,3.81,-0.76,0.05817223885291208,0.9983483624974195,0.17195990454358265,0.33742430911098914,0.19426522292549034,0.3207927244558749
56,3.963,3.87,-0.45,0.05471144974622081,0.9973738128431588,0.16915674056847588,0.3371450214147285,0.1922524457059604,0.3205509291009461
57,4.005,3.92,-0.55,0.05136409689072096,0.9961783184805768,0.16643520453454222,0.3367898537320754,0.19028881406148546,0.3202094275107408
58,4.065,3.98,-0.68,0.04812991117187066,0.9947639482997683,0.16379504672319536,0.3363594359727054,0.1883743057838664,0.31977066940895804
59,4.126,4.03,-0.58,0.045008563104659144,0.9931328876707415,0.16123597340081236,0.3358544345021567,0.1865088690056629,0.31923714095035116
60,4.188,4.09,-0.54,0.041999663907949396,0.9912874349712455,0.15875764754281324,0.33527555096533357,0.18469242244972559,0.318611362030476
61,4.271,4.14,-0.61,0.03910276660988642,0.9892299980369266,0.1563596895776503,0.33462352109267934,0.18292485569460273,0.31789588361716103
62,4.292,4.2,-0.7,0.036317367181746524,0.9869630905417291,0.15404167814910455,0.3338991134923801,0.18120602945551173,0.31709328510663265
63,4.336,4.25,-0.51,0.033642905697659355,0.9844893283164603,0.15180315089531546,0.33310312843190776,0.17953577588059666,0.3162061717070905
64,4.397,4.31,-0.65,0.031078767517703058,0.9818114256133574,0.14964360524299497,0.33223639661213705,0.1779138988622307,0.3152371718523634
65,4.461,4.36,-0.86,0.028624284491957405,0.9789321913243475,0.1475624992153176,0.331299777937154,0.17634017436314767,0.31418893464812614
66,4.544,4.42,-0.54,0.026278736183188257,0.9758545251604883,0.14555925225204075,0.3302941602827353,0.17481435075720964,0.3130641273530087
67,4.565,4.47,-0.67,0.0240413511059319,0.9725814137998697,0.14363324604049815,0.32922045826632573,0.17333614918462464,0.31186543289679997
68,4.669,4.53,-0.82,0.021911307979811907,0.9691159270111669,0.14178382535620213,0.3280796120212364,0.17190526392143088,0.31059554743785617
69,4.69,4.58,-0.68,0.019887736994920108,0.9654612137601953,0.14001029891185207,0.3268725859778111,0.1705213627630731,0.3092571779617075
70,4.753,4.64,-0.7,0.017969721087088556,0.9616204983070553,0.13831194021360696,0.3256003676543595,0.16918408742192662,0.30785303992266067
71,4.794,4.69,-0.76,0.016156297220924036,0.9575970763014403,0.13668798842357036,0.3242639664605859,0.1678930539386477,0.3063858549299854
72,4.857,4.75,-0.82,0.0144464576785574,0.9533943108834975,0.13513764922751634,0.32286441251607184,0.1666478531072438,0.3048583484801005
73,4.899,4.8,-0.66,0.01283915135216653,0.9490156287973855,0.1336600957069542,0.32140275548617614,0.16544805091377746,0.3032732477360115
74,4.939,4.86,-0.81,0.011333285038490513,0.944464516524333,0.13225446921471481,0.319880063437482,0.1642931889886439,0.3016332793550717
75,5.043,4.91,-0.97,0.009927724733737117,0.9397445164415726,0.13091988025333487,0.31829742171467607,0.16318278507238232,0.29994116736596366
76,5.063,4.97,-0.67,0.008621296927460331,0.9348592230130648,0.1296554093555795,0.3166559318405564,0.16211633349500087,0.2981996310956141
77,5.125,5.02,-0.82,0.007412789894139247,0.9298122790174845,0.12846010796649757,0.3149567104407125,0.1610933056688077,0.2964113831465935
78,5.187,5.08,-1.01,0.006300954981299731,0.9246073718186472,0.12733299932644923,0.31320088819432074,0.16011315059474476,0.2945791274254371
79,5.248,5.13,-0.87,0.005284507893082272,0.9192482296834923,0.12627307935460205,0.31138960881246425,0.15917529538223193,0.2927055572222219
80,5.29,5.19,-0.92,0.00436212996823891,0.9137386181527102,0.1252793175325026,0.30952402804532386,0.15827914578254562,0.29079335334159623
81,5.371,5.24,-1.0,0.0035324694516684473,0.9080823364688467,0.1243506577874906,0.30760531271941416,0.1574240867357504,0.28884518228535966
82,5.392,5.3,-1.06,0.002794142758724378,0.9022832140663006,0.12348601937585159,0.30563463980580824,0.15660948293117957,0.2868636944866321
83,5.454,5.35,-0.95,0.0021457357316412504,0.8963451071271582,0.12268429776568078,0.303613195520077,0.15583467938143808,0.2848515225955773
84,5.495,5.41,-1.08,0.0015858048875489455,0.890271895206254,0.12194436551949513,0.30154217445442355,0.15509900200988494,0.2828112798165466
85,5.557,5.46,-1.19,0.0011128786576670197,0.8840674779282627,0.12126507317667991,0.29942277874222534,0.1544017582515326,0.2807455582964097
86,5.621,5.52,-0.93,0.0007254586173741457,0.8777357717591037,0.12064525013588467,0.2972562172549563,0.1537422376672821,0.2786569275637447
87,5.662,5.57,-1.1,0.00042202070693985746,0.8712807068534795,0.12008370553750143,0.29504370483124753,0.15311971257139825,0.27654793301846775
88,5.745,5.63,-1.29,0.00020101644277555853,0.8647062239800006,0.11957922914636512,0.2927864615376963,0.15253343867211808,0.27442109447140334
89,5.767,5.68,-1.11,6.0874119104177374e-05,0.8580162715251881,0.11913059223481909,0.2904857119609776,0.15198265572528616,0.2722789047332181
90,5.828,5.74,-1.17,0.0,0.851214802577526,0.11873654846633652,0.2881426845307598,0.15146658820090902,0.27012382825207537
91,5.89,5.79,-1.28,1.677950181610066e-05,0.8443057720925808,0.11839583477996556,0.2857586108728109,0.1509844459624939,0.2679582997993948
92,5.931,5.85,-1.32,0.00010957836605162154,0.8372931341401006,0.1181071722759109,0.28333472519158687,0.1505354249589972,0.265784723203167
93,6.013,5.9,-1.24,0.0002767438227337455,0.8301808392339194,0.11786926710256586,0.28087226368152185,0.15011870792917328,0.26360547012832175
94,6.054,5.96,-1.36,0.0005166057444481568,0.8229728317452549,0.11768081134531859,0.2783724639661261,0.14973346511808094,0.2614228789036728
95,6.115,6.01,-1.5,0.0008274777912340212,0.8156730473995942,0.11754048391747667,0.275836564563797,0.1493788550054564,0.2592392533950265
96,6.176,6.07,-1.26,0.0012076585466292307,0.8082854108569179,0.11744695145367608,0.2732658043790336,0.1490540250456135,0.257056861924099
97,6.238,6.12,-1.42,0.001655432645206916,0.8008138333745812,0.11739886920615739,0.27066142221753153,0.1487581124184785,0.2548779362329342
98,6.278,6.18,-1.62,0.002169071891980264,0.7932622105517712,0.11739488194429017,0.2680246563234999,0.1484902447913174,0.25270467049355544
99,6.36,6.23,-1.41,0.00274683637407148,0.7856344201541797,0.11743362485770692,0.2653567439374996,0.14824954109066887,0.25053922036261383
100,6.381,6.29,-1.45,0.0033869755650788513,0.777934320017276,0.11751372446340794,0.2626589208731082,0.14803511228395383,0.24838370208082708
101,6.485,6.34,-1.55,0.0040877294226123705,0.7701657460263954,0.11763379951720669,0.2599324211107429,0.14784606217017465,0.24624019161709368
102,6.506,6.4,-1.55,0.004847329479444381,0.7623325101719294,0.11779246192983753,0.25717847640711355,0.1476814881790597,0.24411072385727092
103,6.569,6.45,-1.46,0.005663999928665377,0.7544383986781132,0.11798831768795476,0.2543983159190107,0.14754048217797563,0.24199729183764623
104,6.611,6.51,-1.55,0.00653595870320909,0.7464871702040231,0.11821996778017185,0.25159316584028263,0.1474221312859053,0.23990184602311956
105,6.671,6.56,-1.65,0.007461418550113412,0.7384825541153391,0.1184860091282327,0.24876424905089534,0.1473255186937588,0.2378262936301246
106,6.734,6.62,-1.4,0.008438588099880535,0.7304282488253555,0.11878503552335981,0.24591278477694523,0.147249724490253,0.23577249799431182
107,6.775,6.67,-1.55,0.009465672931293133,0.722327920203595,0.11911563856779153,0.24303998826042741,0.14719382649256782,0.2337422779829775
108,6.837,6.73,-1.73,0.01054087663203023,0.714185200050261,0.11947640862149066,0.24014707043749464,0.14715690108096058,0.23173740745215246
109,6.879,6.78,-1.51,0.011662401855413744,0.7060036846346815,0.11986593575397952,0.23723523762391027,0.14713802403650636,0.22975961474818163
110,6.922,6.84,-1.56,0.012828451373620589,0.6977869332958296,0.12028281070125445,0.23430569120638675,0.14713627138111096,0.22781058225356057
111,6.984,6.89,-1.66,0.0140372291276781,0.6895384671030131,0.12072562582773017,0.2313596273385076,0.14715072021890485,0.22589194597681153
112,7.044,6.95,-1.61,0.015286941274473206,0.6812617675750237,0.12119297609310858,0.22839823664003905,0.14718044957808302,0.2240052951862323
113,7.105,7.0,-1.53,0.016575797230877026,0.6729602754563418,0.12168346002397222,0.22542270389859495,0.14722454125222745,0.22215217208734592
114,7.147,7.06,-1.6,0.017902010714997123,0.6646373895491414,0.12219568068981568,0.2224342077727253,0.14728208064012838,0.22033407154385407
115,7.229,7.11,-1.68,0.01926380078451149,0.6562964655998319,0.12272824668314261,0.2194339204955627,0.14735215758309886,0.2185524408418875
116,7.251,7.17,-1.42,0.020659392871996786,0.6479408152388081,0.12327977310315352,0.21642300757824218,0.14743386719876525,0.21680867949733676
117,7.334,7.22,-1.52,0.022087019817145694,0.6395737049719218,0.12384888254245305,0.2134026275123804,0.14752631071030997,0.2151041391060169
118,7.394,7.28,-1.69,0.02354492289575102,0.6311983552220477,0.12443420607612395,0.21037393147094693,0.14762859627014355,0.21344012323638012
119,7.435,7.33,-1.4,0.025031352845307348,0.6228179394190638,0.1250343842524541,0.20733806300692242,0.1477398397769923,0.21181788736443083
120,7.495,7.39,-1.47,0.0265445708870576,0.6144355831365848,0.12564806808457998,0.20429615774919538,0.14785916568540577,0.2102386388504271
121,7.578,7.44,-1.57,0.028082849744265965,0.6060543632738925,0.1262739200422922,0.20124934309522685,0.14798570780669712,0.2087035369569255
122,7.6,7.5,-1.49,0.02964447465638724,0.5976773072818482,0.12691061504318063,0.1981987379001934,0.14811861010033722,0.20721369290770672
123,7.64,7.55,-1.42,0.03122774438867481,0.5893073924319631,0.12755684144220036,0.19514545216254067,0.14825702745484293,0.2057701699870467
124,7.765,7.61,-1.48,0.03283097223667515,0.5809475451280249,0.12821130201866177,0.19209058670602974,0.14840012645721323,0.20437398367871726
125,7.785,7.66,-1.55,0.034452487024961544,0.5726006402597998,0.12887271495956448,0.18903523285844315,0.14854708614996925,0.20302610184405206
126,7.827,7.72,-1.29,0.03609063409932585,0.5642695005985086,0.1295398148380957,0.18598047212720745,0.14869709877486378,0.20172744493836187
127,7.869,7.77,-1.4,0.03774377631151265,0.555956896233905,0.13021135358601232,0.1829273758722452,0.1488493705023406,0.20047888626491195
128,7.951,7.83,-1.57,0.039410294995487496,0.5476655440527438,0.1308861014585432,0.17987700497637296,0.1490031221458456,0.19928125226561155
129,7.972,7.88,-1.23,0.04108859093420304,0.539398107258183,0.13156284799038864,0.176830409513541,0.14915758986012337,0.19813532284749583
130,8.034,7.94,-1.31,0.04277708531586129,0.5311571949293526,0.13224040294137968,0.17378862841516785,0.1493120258226664,0.19704183174402867
131,8.076,7.99,-1.43,0.04447422067870246,0.5229453616201261,0.13291759723036337,0.17075268913482772,0.1494656988975109,0.19600146691023934
132,8.137,8.05,-1.31,0.046178461843326565,0.514765106996257,0.13359328385585245,0.167723607311703,0.1496178952806046,0.1950148709506836
133,8.199,8.1,-1.26,0.047888296831513376,0.5066188755103322,0.13426633880195027,0.16470238643342555,0.14976791912602028,0.1940826415791292
134,8.258,8.16,-1.31,0.04960223777049378,0.49850905611418644,0.13493566192807166,0.1616900174990551,0.14991509315232646,0.19320533210877422
135,8.321,8.21,-1.4,0.0513188217816017,0.4904379820085696,0.13560017784099238,0.15868747868298086,0.1500587592284538,0.1923834519717738
136,8.383,8.27,-1.2,0.05303661185218544,0.4824079304300445,0.1362588367477442,0.15569573500057185,0.1501982789384201,0.1916174672668247
137,8.422,8.32,-1.34,0.05475419768961276,0.47442112247520035,0.13691061528785575,0.15271573797640559,0.15033303412430152,0.19090780133352034
138,8.462,8.38,-1.5,0.056470196556179984,0.4664797229622663,0.13755451734343396,0.14974842531585925,0.15046242740685217,0.1902548353521609
139,8.524,8.43,-1.17,0.058183254083730575,0.45858584033009764,0.13818957482560412,0.1467947205807548,0.15058588268317905,0.1896589089676883
140,8.587,8.49,-1.26,0.059892045066809986,0.4507415265743294,0.1388148484358935,0.1438555328696195,0.15070284560087766,0.18912032093642434
141,8.69,8.54,-1.37,0.061595274233196606,0.442948777220415,0.13942942840122885,0.14093175650302425,0.15081278400802833,0.18863932979434583
142,8.71,8.6,-1.22,0.06329167699062496,0.43520953133344825,0.1400324351812792,0.13802427071448958,0.15091518837846604,0.18821615454566895
143,8.752,8.65,-1.17,0.06498002014851409,0.4275256715649229,0.14062302014694908,0.135133939347524,0.15100957221177871,0.18785097537047532
144,8.815,8.71,-1.22,0.06665910261356556,0.41989902423664616,0.14120036622892757,0.13226161055934432,0.15109547240753238,0.18754393435005956
145,8.855,8.76,-1.3,0.06832775605816055,0.41233135946195715,0.1417636885352878,0.12940811653174458,0.15117244961326545,0.18729513620865235
146,8.917,8.82,-1.11,0.06998484556054836,0.40482439130429054,0.1423122349371904,0.12657427318948122,0.1512400885458436,0.18710464907013688
147,8.979,8.87,-1.22,0.07162927021590804,0.3973797779728953,0.14284528662180093,0.12376087992642032,0.15129799828581503,0.1869725052283471
148,9.085,8.93,-1.4,0.07325996371746964,0.3899991220551886,0.1433621586115833,0.12096871933957141,0.15134581254443724,0.1868987019295377
149,9.106,8.98,-1.09,0.07487589490696647,0.38268397078494193,0.14386220024916396,0.11819855697106109,0.15138318990306465,0.18688320216564314
150,9.127,9.04,-1.19,0.07647606829375733,0.3754358163452863,0.14434479564699781,0.11545114105805891,0.1514098140245945,0.18692593547698078
151,9.191,9.09,-1.32,0.07805952454199191,0.3682560962054596,0.14480936410109335,0.11272720229069373,0.15142539383666934,0.18702679876312064
152,9.233,9.15,-1.15,0.07962534092518334,0.36114619349037524,0.14525536046806498,0.11002745357814889,0.1514296636863451,0.1871856571006986
153,9.296,9.2,-1.12,0.08117263174755665,0.3541074373822688,0.14568227550480994,0.10735258982330129,0.15142238346596523,0.18740234456695082
154,9.359,9.26,-1.17,0.0827005487315991,0.34714110355366906,0.14608963617018791,0.10470328770633071,0.15140333871001146,0.1876766650677459
155,9.421,9.31,-1.22,0.08420828137130802,0.3402484146308303,0.14647700588816429,0.1020802054777028,0.1513723406627349,0.1880083931689135
156,9.484,9.37,-1.03,0.0856950572506944,0.33343054068670286,0.14684398477194985,0.09948398276088256,0.15132922631641513,0.18839727492966463
157,9.524,9.42,-1.14,0.08716014232718072,0.3266885997624178,0.14719020980874742,0.09691524036504692,0.15127385842014957,0.1888430287368755
158,9.586,9.48,-1.3,0.08860284117961911,0.3200236584161161,0.1475153550047821,0.09437458010794943,0.15120612545911535,0.1893453461390026
159,9.628,9.53,-0.98,0.09002249722072793,0.31343673229780405,0.1478191314903234,0.09186258464900883,0.15112594160428539,0.18990389267840582
160,9.67,9.59,-1.1,0.09141849287380602,0.30692878674878615,0.14810128758442706,0.08937981733265787,0.15103324663261125,0.1905183087208798
161,9.732,9.64,-1.23,0.09279024971361576,0.30050073742419947,0.1483616088191394,0.08692682204202584,0.15092800581770818,0.19118821028126148
162,9.794,9.7,-1.06,0.09413722857131493,0.2941534509373514,0.14859991792291727,0.08450412306317409,0.1508102097911081,0.19191318984404443
163,9.856,9.75,-1.05,0.09545892960330866,0.28788774552474716,0.14881607476305617,0.08211222496025601,0.15067987437418956,0.19269281717793846
164,9.918,9.81,-1.08,0.09675489232390945,0.28170439173072137,0.14900997624700096,0.07975161246200721,0.15053704038093152,0.19352664014332555
165,9.999,9.86,-1.14,0.09802469560169168,0.2756041131105727,0.14918155618248247,0.07742275035993747,0.1503817733916705,0.19441418549159856
166,10.02,9.92,-0.94,0.09926795761941308,0.26958758695113644,0.14933078509647307,0.07512608341856732,0.15021416349808978,0.19535495965539865
167,10.06,9.97,-1.07,0.10048433579740129,0.2636554450077176,0.14945767001301555,0.07286203629800836,0.15003432501972375,0.19634844952877337
168,10.165,10.03,-1.21,0.10167352668036789,0.2578082742562182,0.1495622541900454,0.07063101348913728,0.14984239619231138,0.19739412323630387
169,10.186,10.08,-0.89,0.10283526578768477,0.2520466176591839,0.14964461681537744,0.0684333992616128,0.14963853882837977,0.1984914308902766
170,10.227,10.14,-1.03,0.10396932742722419,0.2463709749444132,0.149704872662067,0.06626955762502279,0.14942293795047856,0.19963980533503387
171,10.352,10.19,-1.2,0.10507552447289649,0.2407818033948109,0.14974317170337778,0.06413983230354812,0.1491958013975153,0.20083866287773225
172,10.372,10.25,-1.02,0.10615370810601442,0.23527951864839433,0.14975969868759362,0.06204454672472185,0.14895735940468036,0.20208740400482375
173,10.392,10.3,-1.02,0.10720376752062949,0.22986449550757243,0.14975467267294243,0.059984004023042346,0.14870786415748893,0.2033854140836013
174,10.452,10.36,-1.05,0.10822562959304971,0.22453706875682317,0.14972834652297462,0.057958487059250816,0.14844758932049293,0.204732064048198
175,10.514,10.41,-1.11,0.10921925851580835,0.2192975339878132,0.1496810063628072,0.05596825845604743,0.14817682954123237,0.2061267110695022
176,10.574,10.47,-0.92,0.11018465539640279,0.21414614843093677,0.14961297099670046,0.0540135606509592,0.14789589993003108,0.2075686992084879
177,10.636,10.52,-1.03,0.11112185782120138,0.20908313179213647,0.14952459128751092,0.05209461596694718,0.14760513551628932,0.20905736005244935
178,10.718,10.58,-1.18,0.1120309393850077,0.20410866709373454,0.1494162494986649,0.050211626701135506,0.14730489068197722,0.21059201333362598
179,10.736,10.63,-0.86,0.1129120091868454,0.19922290151791558,0.14928835859940376,0.048364775231793,0.1469955385730808,0.2121719675297011
180,10.799,10.69,-0.99,0.11376521129258002,0.19442594725148415,0.14914136153415675,0.0465542241434514,0.14667747048980054,0.21379652044567138
181,10.901,10.74,-1.17,0.11459072416500843,0.18971788233065934,0.1489757304569718,0.04478011636991622,0.14635109525634277,0.2154649597766367
182,10.922,10.8,-1.01,0.11538876006203076,0.18509875148501181,0.14879196593198643,0.043042575354964516,0.1460168385711895,0.21717656365111557
183,10.942,10.85,-1.03,0.11615956440353664,0.1805685669799839,0.1485905961010167,0.041341705230583045,0.14567514233877998,0.21893060115452592
184,11.003,10.91,-1.09,0.11690341510770477,0.17612730945758578,0.14837217581949178,0.03967759101255165,0.14532646398355886,0.22072633283254559
185,11.064,10.96,-1.15,0.11762062189747041,0.1717749287749161,0.1481372857620876,0.0380502988130774,0.14497127574735238,0.22256301117418395
186,11.106,11.02,-1.0,0.11831152557795062,0.16751134484020444,0.14788653149948108,0.03645987607011545,0.14461006397104575,0.22443988107447466
187,11.169,11.07,-1.13,0.1189764972856667,0.16333644844602066,0.14762054254769913,0.034906351792939355,0.1442433283615548,0.22635618027672316
188,11.251,11.13,-1.27,0.11961593771045842,0.15925010209914972,0.1473399713915687,0.03338973682344874,0.14387158124509872,0.2283111397942655
189,11.312,11.18,-0.98,0.12023027629101306,0.15525214084647868,0.14704549248378376,0.03191002411266132,0.14349534680779524,0.2303039843117159
190,11.332,11.24,-1.14,0.12081997038493307,0.15134237309612622,0.14673780122109759,0.030467189011817917,0.14311516032460664,0.23233393256571913
191,11.393,11.29,-1.29,0.12138550441422362,0.14752058143310628,0.14641761289913197,0.029061189577555508,0.142731567377675,0.23440019770530543
192,11.433,11.35,-1.11,0.12192738898700949,0.14378652342913573,0.14608566164727493,0.027691966890697653,0.14234512306509584,0.2365019876320262
193,11.495,11.4,-1.14,0.12244615999626488,0.14013993244653916,0.14574269934516296,0.0263594453882841,0.1419563912012,0.23863850532010542
194,11.658,11.46,-1.21,0.12294237769637696,0.13658051843637636,0.1453894945223097,0.02506353320844027,0.14156594350942064,0.24080894911690762
195,11.679,11.51,-1.26,0.12341662575841014,0.133107968731,0.14502683124249188,0.02380412254764427,0.1411743588088227,0.2430125130240944
196,11.72,11.57,-1.11,0.12386951030497743,0.12972194883134172,0.14465550797451618,0.0225810900299301,0.14078222219538875,0.2452483869598759
197,11.74,11.62,-1.23,0.12430165892568437,0.12642210318922587,0.14427633645099744,0.02139429708753864,0.14039012421917418,0.24751575700278255
198,11.78,11.68,-1.38,0.1247137196741817,0.12320805598492426,0.14389014051676932,0.020243590352489786,0.1399986600584525,0.2498138056174305
199,11.843,11.73,-1.1,0.12510636004793055,0.12007941190002368,0.14349775496852168,0.019128802058525542,0.13960842869197967,0.25214171186279916
200,11.885,11.79,-1.26,0.12548026595184875,0.11703575688549447,0.14310002438723896,0.01804975045284312,0.13922003207051037,0.2544986515835834
201,11.988,11.84,-1.47,0.1258361406470453,0.11407665892472696,0.14269780196499787,0.017006240217030955,0.1388340742886957,0.25688379758524277
202,12.008,11.9,-1.32,0.12617470368585024,0.11120166879131402,0.14229194832765846,0.015998062896686267,0.1384511607584914,0.2592963197934275
203,12.049,11.95,-1.35,0.12649668983435272,0.10841032080138273,0.14188333035498277,0.015024997339252562,0.13807189738519438,0.26173538539850033
204,12.11,12.01,-1.44,0.12680284798368927,0.10570213356016271,0.1414728199997367,0.014086810139582212,0.13769688974719033,0.2642001589859451
205,12.151,12.06,-1.46,0.12709394005133046,0.1030766107023539,0.14106129310733176,0.013183256092659504,0.13732674228044142,0.2666898026535514
206,12.213,12.12,-1.32,0.12737073987360617,0.10053324162577786,0.14064962823754285,0.012314078652857384,0.13696205746870727,0.2692034761163129
207,12.273,12.17,-1.43,0.12763403209072507,0.09807150221770537,0.140238705489832,0.011479010399018628,0.13660343504046984,0.27174033679997633
208,12.355,12.23,-1.56,0.12788461102557566,0.0956908555731494,0.1398294053338025,0.010677773504562282,0.13625147117352063,0.27429953992417005
209,12.376,12.28,-1.3,0.12812327955763,0.09339075270432287,0.13942260744628543,0.009910080211754175,0.13590675770816263,0.27688023857600774
210,12.439,12.34,-1.46,0.12835084799331917,0.09117063324035626,0.13901918955652728,0.009175633309239848,0.13556988136998063,0.27948158377502597
211,12.481,12.39,-1.64,0.12856813293428201,0.08902992611631397,0.1386200263009069,0.00847412661194081,0.13524142300312586,0.2821027245303073
212,12.542,12.45,-1.49,0.12877595614489806,0.08696805025064137,0.13822598808856376,0.00780524544249386,0.1349219568150527,0.28474280789065015
213,12.625,12.5,-1.53,0.1289751434205244,0.08498441521030194,0.13783793997930976,0.007168667113488794,0.13461204963362752,0.28740097898865863
214,12.646,12.56,-1.53,0.129166523457877,0.08307842186293592,0.13745674057520757,0.006564061409783205,0.13431226017748807,0.2900763810796986
215,12.727,12.61,-1.55,0.1293509267289748,0.08124946301550978,0.13708324092717739,0.005991091070208409,0.13402313834047871,0.29276815557676356
216,12.748,12.67,-1.44,0.1295291843600171,0.0794969240391447,0.13671828345793446,0.005449412268059268,0.13374522449096274,0.29547544208233034
217,12.808,12.72,-1.58,0.12970212701653142,0.07782018347997154,0.13636270090251293,0.004938675089802399,0.13347904878681421,0.2981973784182428
218,12.87,12.78,-1.74,0.12987058379611546,0.0762186136559,0.13601731526759175,0.004458524011430246,0.13322513050690493,0.3009331006545959
219,12.932,12.83,-1.48,0.13003538113008362,0.07469158123914733,0.1356829368107952,0.004008598371866391,0.1329839773999034,0.30368174313852697
220,13.014,12.89,-1.63,0.1301973416953172,0.0732384478242273,0.13536036304108964,0.003588532842804632,0.13275608505117753,0.30644243852377473
221,13.034,12.94,-1.8,0.1303572833375795,0.07185857048099364,0.13505037774133105,0.003197957894390344,0.13254193626854405,0.30921431780187414
222,13.095,13.0,-1.62,0.13051601800749163,0.07055130229235275,0.13475375001393494,0.0028365002562694363,0.13234200048755804,0.3119965103358604
223,13.156,13.05,-1.66,0.13067435071032518,0.0693159928763151,0.1344712333505869,0.002503783373648376,0.13215673319699595,0.3147881438973363
224,13.197,13.11,-1.75,0.13083307847074827,0.06815198889206958,0.13420356472689354,0.0021994278580608844,0.13198657538513603,0.3175883447077575
225,13.258,13.16,-1.77,0.1309929893136199,0.06705863452987997,0.13395146372283068,0.001923051932587845,0.13183195300739173,0.3203962374848083
226,13.32,13.22,-1.65,0.13115486126186165,0.06603527198482737,0.1337156316697785,0.001674271871365254,0.13169327647581852,0.32321094549471435
227,13.381,13.27,-1.76,0.1313194613523981,0.06508124191460408,0.13349675082488158,0.0014527024332470194,0.13157094017098467,0.32603159061128895
228,13.463,13.33,-1.88,0.13148754467114446,0.06419588388162045,0.1332954835734286,0.001257957289442262,0.13146532197666191,0.3288572933824617
229,13.504,13.38,-1.6,0.1316598534080159,0.06337853677964483,0.1331124716599013,0.0010896494448613117,0.1313767828377595,0.3316871731049871
230,13.525,13.44,-1.75,0.13183711593293934,0.06262853924505525,0.13294833544829096,0.0009473916528010008,0.13130566634189403,0.3345203479079576
231,13.587,13.49,-1.94,0.13202004589383673,0.06194523005265855,0.13280367321222877,0.0008307968225366205,0.1312522983249569,0.33735593484570403
232,13.647,13.55,-1.75,0.13220934133751278,0.06132794849603845,0.1326790604554189,0.0007394784194091364,0.1312169865010155,0.3401930500006085
233,13.689,13.6,-1.79,0.13240568385435483,0.060776034752429806,0.13257504926283903,0.0006730508570339854,0.1312000201168613,0.34303080859629537
234,13.751,13.66,-1.91,0.13260973774773108,0.06028883023210731,0.13249216768316513,0.0006311298812617358,0.13120166963147087,0.34586832512165255
235,13.833,13.71,-1.92,0.13282214922890734,0.05986567791234086,0.13243091914283403,0.0006133329455504534,0.13122218642058558,0.34870471346615206
236,13.853,13.77,-1.79,0.13304354563821014,0.059505922656077626,0.13239178189207992,0.0006192795774751401,0.1312618025065621,0.3515390870669244
237,13.935,13.82,-1.89,0.13327453469310077,0.05920891151550948,0.13237520848321868,0.0006485917361147439,0.13132073031359454,0.3543705590680083
238,13.976,13.88,-2.01,0.13351570376379376,0.058973994020551146,0.1323816252813986,0.0007008941600164019,0.13139916244835326,0.35719824249219756
239,14.036,13.93,-1.73,0.13376761917702962,0.058800522452071895,0.13241143200798153,0.000775814705362331,0.1314972715060377,0.3600212504258878
240,14.098,13.99,-1.85,0.13403082554860474,0.05868785209951246,0.1324650013166688,0.0008729846738664911,0.13161520990180203,0.36283869621729375
241,14.138,14.04,-2.01,0.1343058451452469,0.05863534150236494,0.13254267840243825,0.0009920391298486055,0.13175310972748108,0.3656496936883732
242,14.22,14.1,-1.8,0.1345931772764007,0.05864235267497932,0.13264478064330526,0.0011326172059346778,0.13191108263352316,0.36845335736074447
243,14.242,14.15,-1.82,0.13489329771648081,0.058708251314195506,0.1327715972748966,0.0012943623968635538,0.13208921973602317,0.3712488026958071
244,14.302,14.21,-1.9,0.13520665815815144,0.058832406989334216,0.1329233890978167,0.0014769228409001408,0.13228759154872563,0.37403514634921753
245,14.384,14.26,-1.93,0.1355336856971438,0.0590141933142246,0.1331003882177407,0.001679951588433824,0.13250624793983798,0.37681150643983835
246,14.405,14.32,-1.8,0.13587478234905725,0.059252988101144655,0.1333027978180956,0.0019031068574675144,0.13274521811347792,0.37957700283321205
247,14.467,14.37,-1.9,0.13623032459855522,0.05954817349660148,0.13353079196513115,0.002146052275778125,0.13300451061556065,0.38233075743955414
248,14.57,14.43,-2.01,0.1366006629813664,0.059899136098760006,0.13378451544513198,0.002408457109536708,0.13328411336389814,0.38507189452627894
249,14.59,14.48,-1.73,0.13698612169949625,0.060305267056142836,0.13406408363346045,0.0026899964781677077,0.1335839937022442,0.38779954104510855
250,14.632,14.54,-1.88,0.1373869982700472,0.060765962147019986,0.13436958239506738,0.0029903515552129594,0.13390409847798368,0.3905128269738393
251,14.674,14.59,-2.06,0.13780356320801238,0.06128062183877383,0.1347010680160652,0.0033092097549709564,0.13424435414312816,0.3932108856728459
252,14.735,14.65,-1.84,0.13823605974334488,0.06184865132652954,0.1350585671659587,0.0036462649047218623,0.13460466687825348,0.39589285425637283
253,14.797,14.7,-1.85,0.13868470357254703,0.06246946055036993,0.135442076890205,0.004001217402357275,0.1349849227389886,0.3985578739786161
254,14.839,14.76,-1.91,0.13914968264496935,0.06314246419047839,0.13585156463288395,0.004373774359207358,0.1353849878246175,0.4012050906345841
255,14.942,14.81,-1.9,0.13963115698392037,0.06386708163969496,0.13628696828930265,0.004763649727911831,0.13580470846831055,0.40383365497573476
256,14.963,14.87,-1.77,0.14012925854259334,0.06464273695321636,0.13674819628832013,0.0051705644153105445,0.13624391144847786,0.406442723140329
257,15.005,14.92,-1.86,0.1406440910947648,0.06546885877533003,0.13723512770414045,0.005594246380398388,0.13670240422073074,0.40903145709835764
258,15.066,14.98,-1.97,0.14117573016021798,0.06634488024308414,0.1377476123973018,0.006034430717351203,0.13717997516992975,0.4115990251108431
259,15.127,15.03,-1.67,0.14172422296485065,0.06727023886670966,0.13828547118457993,0.0064908597235482516,0.1376763938817894,0.4141446022032862
260,15.189,15.09,-1.79,0.142289588435449,0.06824437638645404,0.13884849603752542,0.00696328295242308,0.13819141143349678,0.4166673706530152
261,15.292,15.14,-1.93,0.14287181722909972,0.06926673860540325,0.13943645030935484,0.007451457250922452,0.1387247607027886,0.4191665204901961
262,15.312,15.2,-1.72,0.1434708717971718,0.07033677519795885,0.14004906898991262,0.007955146781382653,0.13927615669492877,0.42164125001223507
263,15.352,15.25,-1.74,0.1440866864837567,0.07145393949378809,0.1406860589884455,0.008474123027676365,0.13984529688703265,0.4240907663112392
264,15.414,15.31,-1.84,0.14471916765841253,0.07261768823722241,0.14134709944396928,0.009008164785500684,0.14043186158917786,0.42651428581412204
265,15.454,15.36,-1.83,0.14536819388296993,0.07382748132235027,0.14203184206299652,0.009557058136745263,0.14103551432172143,0.42891103483489
266,15.515,15.42,-1.7,0.1460336161120502,0.0750827815043953,0.14273991148433227,0.010120596408007635,0.141655902208233,0.4312802501385479
267,15.576,15.47,-1.79,0.14671525792688228,0.07638305408815786,0.14347090567058765,0.010698580113408835,0.14229265638343794,0.43362117951596457
268,15.698,15.53,-1.89,0.14741291580197766,0.07772776659428615,0.14422439632601133,0.011290816881880418,0.14294539241553925,0.43593308236897654
269,15.719,15.58,-1.58,0.1481263594041998,0.07911638840403247,0.14499992934019554,0.011897121369072651,0.14361371074226353,0.43821523030492476
270,15.739,15.64,-1.71,0.14885533192374598,0.08054839038299633,0.14579702525718574,0.012517315153980774,0.14429719711995997,0.4404669077397203
271,15.78,15.69,-1.87,0.14959955043652637,0.08202324448427105,0.14661517976950164,0.013151226620342897,0.14499542308506783,0.442687412508441
272,15.842,15.75,-1.64,0.15035870629737377,0.08354042333148735,0.1474538642365603,0.013798690822885755,0.145707946427271,0.44487605648237455
273,15.903,15.8,-1.66,0.1511324655634769,0.08509939978241209,0.14831252622700158,0.01445954933854652,0.14643431167366291,0.4470321661913368
274,15.943,15.86,-1.75,0.15192046944738505,0.08669964647395031,0.14919059008443622,0.01513365010285786,0.14717405058323432,0.44915508345007155
275,16.067,15.91,-1.76,0.15272233479884148,0.0883406353497492,0.150087457516106,0.01582084723181774,0.14792668265097633,0.45124416598753403
276,16.087,15.97,-1.61,0.15353765461459104,0.09002183717205185,0.15100250820387698,0.016521000829758416,0.14869171562088276,0.4532987880778267
277,16.128,16.02,-1.65,0.15436599857523936,0.09174272101977707,0.15193510043693584,0.017233976783853668,0.14946864600712617,0.4553183411715137
278,16.191,16.08,-1.77,0.15520691360821023,0.09350275377495147,0.15288457176553324,0.01795964654592795,0.15025695962266258,0.45730223452603647
279,16.232,16.13,-1.46,0.15605992447582476,0.09530139959963872,0.1538502396750917,0.01869788690219962,0.15105613211451005,0.45924989583393744
280,16.293,16.19,-1.6,0.15692453438750795,0.09713811940541008,0.1548314022799807,0.019448579731500628,0.1518656295049496,0.4611607718475428
281,16.355,16.24,-1.77,0.15780022563509577,0.0990123703172832,0.15582733903624335,0.02021161175242036,0.15268490873791093,0.46303432899868663
282,16.395,16.3,-1.57,0.15868646025016175,0.10092360513400991,0.15683731147252938,0.02098687425981181,0.15351341822982179,0.464870054011974
283,16.457,16.35,-1.58,0.15958268068224787,0.1028712717865496,0.15786056393847087,0.0217742628511563,0.15435059842420812,0.4666674545099981
284,16.517,16.41,-1.64,0.16048831049685797,0.10485481279645321,0.15889632436972081,0.022573677143348046,0.15519588234931217,0.46842605960890255
285,16.578,16.46,-1.65,0.1614027550920139,0.10687366473583199,0.15994380506882483,0.023385020480555116,0.15604869617796283,0.4701454205027068
286,16.639,16.52,-1.48,0.1623254024321094,0.10892725769059174,0.16100220350102287,0.02420819963391614,0.15690845978891754,0.47182511103480684
287,16.66,16.57,-1.58,0.16325562379778158,0.1110150147285171,0.1620707031040278,0.025043124493867305,0.15777458732888772,0.47346472825505104
288,16.722,16.63,-1.67,0.1641927745505475,0.11313635137359263,0.1631484741107955,0.025889707755854658,0.15864648777445403,0.47506389296081625
289,16.804,16.68,-1.33,0.16513619491098294,0.11529067508773558,0.16423467438427444,0.026747864600117795,0.15952356549307728,0.47662225022056554
290,16.825,16.74,-1.46,0.1660852107492423,0.11747738476092016,0.1653284502631127,0.02761751236613516,0.1604052208024155,0.47813946987843675
291,16.886,16.79,-1.6,0.16703913438671972,0.11969587021055604,0.16642893741729572,0.028498570222265852,0.1612908505271704,0.47961524703848085
292,16.948,16.85,-1.38,0.16799726540762996,0.1219455116910215,0.16753526171267147,0.029390958831180525,0.16217984855271256,0.4810493025272065
293,17.009,16.9,-1.38,0.16895889147929977,0.124225679414288,0.1686465400833267,0.03029460001177977,0.16307160637477142,0.4824413833330789
294,17.051,16.96,-1.45,0.1699232891799879,0.12653573308254032,0.1697618814108061,0.03120941639836975,0.1639655136444931,0.4837912630216399
295,17.132,17.01,-1.45,0.17088972483304585,0.12887502143372076,0.17088038740915806,0.03213533109794356,0.16486095870817744,0.48509874212497495
296,17.153,17.07,-1.27,0.1718574553461951,0.1312428818010187,0.17200115351475265,0.03307226734650865,0.1657573291410209,0.4863636485042774
297,17.215,17.12,-1.35,0.17282572905469207,0.13363863968733278,0.17312326977979117,0.03402014816542231,0.1666540122742129,0.4875858376842877
298,17.277,17.18,-1.45,0.17379378656717306,0.13606160835560488,0.17424582176841327,0.03497889601863918,0.1675503957147459,0.48876519315844147
299,17.34,17.23,-1.11,0.17476086161300158,0.1385110884357252,0.1753678914542932,0.03594843247169549,0.1684458678573211,0.4899016266636123
300,17.399,17.29,-1.22,0.17572618188998373,0.14098636754848035,0.17648855811861433,0.03692867785317799,0.16933981838776205,0.4909950784233922
301,17.441,17.34,-1.37,0.17668896991135233,0.14348671994685686,0.17760689924731335,0.03791955091939575,0.17023163877738437,0.4920455173589214
302,17.501,17.4,-1.14,0.17764844385093465,0.14601140617504715,0.17872199142650125,0.0389209685230282,0.171120722767821,0.4930529412663565
303,17.563,17.45,-1.13,0.17860381838546008,0.14855967274556403,0.1798329112350293,0.039932845286572545,0.1720064668458567,0.49401737696012465
304,17.625,17.51,-1.19,0.17955430553303006,0.1511307518348481,0.18093873613326378,0.040955093281405515,0.17288827070786233,0.49493888038122313
305,17.666,17.56,-1.19,0.1804991154868199,0.15372386099774127,0.18203854534718794,0.041987621713277905,0.17376553771344674,0.49581753666996886
306,17.727,17.62,-1.03,0.18143745744311396,0.15633820290121897,0.183131420746966,0.043030336615109514,0.17463767532798222,0.4966534602027023
307,17.789,17.67,-1.11,0.18236854042284037,0.15897296507769432,0.1842164477191277,0.04408314054795302,0.17550409555370405,0.4974467945920133
308,17.871,17.73,-1.23,0.18329157408585078,0.1616273196980087,0.18529271603156003,0.04514593231093697,0.17636421534912056,0.49819771265012674
309,17.891,17.78,-0.91,0.1842057695372565,0.16430042336398457,0.1863593206905023,0.04621860666093376,0.17721745703650177,0.49890641631514127
310,17.952,17.84,-1.04,0.18511034012518413,0.16699141692019517,0.18741536278873822,0.047301054042615365,0.178063248697249,0.49957313653984947
311,17.974,17.89,-1.2,0.1860045022293257,0.16969942528452578,0.18845995034419005,0.048393160329434616,0.1789010245549766,0.500198133142911
312,18.036,17.95,-0.98,0.1868874760396358,0.17242355729730205,0.1894921991281687,0.04949480657588029,0.17973022534617525,0.5007816946221945
313,18.118,18.0,-0.99,0.18775848632450948,0.17516290558908917,0.190511233482659,0.05060586878108045,0.18055029867836206,0.5013241379301485
314,18.139,18.06,-1.06,0.18861676318778584,0.17791654646755953,0.19151618712616145,0.05172621766354792,0.18136069937564533,0.5018258082111658
315,18.241,18.11,-1.09,0.18946154281390762,0.18068353982411128,0.1925062039476815,0.052855718446723335,0.18216088981163953,0.502287078501053
316,18.261,18.17,-0.91,0.19029206820056607,0.18346292906112371,0.1934804387884545,0.05399423065496606,0.18295034022968873,0.5027083493888507
317,18.343,18.22,-1.01,0.1911075898782138,0.1862537410407221,0.19443805821099228,0.05514160791963796,0.1837285290503803,0.5030900486413606
318,18.364,18.28,-1.14,0.19190736661591912,0.18905498605573812,0.19537824125504033,0.05629769779487998,0.18449494316634646,0.5034326307908716
319,18.425,18.33,-0.83,0.19269066611311791,0.19186565782334147,0.19630018018003018,0.05746234158264173,0.18524907822436787,0.5037365766866791
320,18.486,18.39,-0.98,0.1934567656768792,0.1946847335016305,0.19720308119359767,0.058635374166492206,0.18599043889481578,0.5040023930110823
321,18.526,18.44,-1.15,0.19420495288431786,0.19751117372940014,0.19808616516571378,0.059816623853771185,0.1867185391284833,0.5042306117606309
322,18.63,18.5,-0.94,0.1949345262297597,0.2003439226894339,0.19894866832794614,0.06100591222576848,0.1874329024008746,0.5044217896934805
323,18.652,18.55,-0.94,0.19564479575625657,0.20318190819581294,0.19978984295738478,0.06220305399575758,0.18813306194403198,0.5045765077437815
324,18.692,18.61,-0.99,0.1963350836710714,0.20602404180574957,0.20060895804482176,0.06340785687475635,0.1888185609659741,0.5046953704041285
325,18.752,18.66,-0.99,0.19700472494476848,0.20886921895646032,0.2014052999468077,0.06462012144489351,0.18948895285781212,0.5047790050772115
326,18.813,18.72,-0.81,0.1976530678935417,0.21171631912765776,0.20217817302120986,0.06583964104026244,0.1901438013886282,0.5048280613978646
327,18.874,18.77,-0.92,0.1982794747444384,0.2145642060302478,0.20292690024590596,0.06706620163510738,0.1907826808882356,0.5048432105266971
328,18.916,18.83,-1.07,0.19888332218317797,0.21741172782175214,0.20365082382024877,0.06829958173912959,0.19140517641797433,0.5048251444165001
329,18.979,18.88,-0.76,0.19946400188430236,0.2202577173488579,0.20434930574891372,0.06953955229967629,0.1920108839297304,0.5047745750526222
330,19.04,18.94,-0.92,0.20002092102343835,0.22310099241734918,0.2050217284077148,0.07078587661057234,0.19259941041339473,0.5046922336685381
331,19.081,18.99,-1.12,0.20055350277145656,0.22594035608963928,0.20566749509095095,0.07203831022738795,0.1931703740329875,0.5045788699378895
332,19.143,19.05,-0.93,0.20106118677027046,0.2287745970103301,0.2062860305398395,0.07329660088902891,0.19372340425167947,0.5044352511443567
333,19.206,19.1,-0.94,0.2015434295899808,0.23160248976048273,0.2068767814516429,0.0745604884456187,0.1942581419459383,0.5042621613307718
334,19.265,19.16,-0.99,0.20199970516706287,0.23442279524140758,0.20743921696916173,0.07582970479270808,0.19477423950899633,0.504060400429008
335,19.348,19.21,-1.03,0.20242950522327394,0.23723426108882423,0.20797282915025828,0.07710397381202612,0.19527136094380051,0.5038307833723157
336,19.368,19.27,-0.84,0.20283233966493402,0.2400356221182664,0.20847713341698543,0.0783830113192754,0.19574918194558505,0.5035741391918578
337,19.43,19.32,-0.95,0.2032077369622449,0.24282560080249746,0.20895166898380724,0.07966652501968637,0.19620738997421386,0.5032913100992161
338,19.472,19.38,-1.09,0.20355524450835372,0.24560290778150065,0.2093959992643501,0.0809542144720999,0.1966456843164435,0.5029831505566618
339,19.534,19.43,-0.75,0.20387442895790023,0.2483662424054232,0.20980971225609413,0.08224577106232628,0.19706377613826992,0.5026505263370128
340,19.616,19.49,-0.89,0.20416487654481347,0.25111429331071417,0.21019242090241116,0.08354087798648743,0.19746138852753162,0.5022943135749331
341,19.637,19.54,-1.05,0.20442619337912957,0.253845739029676,0.21054376343135414,0.08483921024506579,0.1978382565269525,0.5019153978115715
342,19.719,19.6,-0.85,0.20465800572258322,0.25655924863382334,0.210863403670615,0.08614043464848704,0.19819412715782406,0.501514673034452
343,19.738,19.65,-0.87,0.20485996024274208,0.25925348241160784,0.2111510313381533,0.08744420983514238,0.19852875943455423,0.5010930407145072
344,19.801,19.71,-0.92,0.2050317242455119,0.2619270925810612,0.21140636230815255,0.08875018630269044,0.19884192437031709,0.5006514088421515
345,19.861,19.76,-0.96,0.2051729858858903,0.26457872403782307,0.2116291388521049,0.09005800645336207,0.19913340497403367,0.5001906909643413
346,19.901,19.82,-0.76,0.2052834543568851,0.2672070151389348,0.2118191298548983,0.09136730465391735,0.19940299623892166,0.4997118052245837
347,19.963,19.87,-0.91,0.20536286005657442,0.269810598522601,0.21197613100581975,0.09267770731084056,0.19965050512286225,0.499215673407802
348,20.025,19.93,-1.06,0.20541095473336063,0.2723881019638576,0.2120999649644017,0.0939888329612787,0.19987575052084428,0.4987032199918949
349,20.086,19.98,-0.73,0.20542751160952144,0.2749381492658188,0.21219048150103087,0.09530029238016122,0.20007856322975176,0.49817537120773675
350,20.127,20.04,-0.85,0.20541232548319402,0.2774593611859345,0.21224755761222014,0.09661168870388179,0.20025878590576263,0.4976330541092892
351,20.19,20.09,-0.99,0.20536521280892317,0.2799503563965696,0.2122710976104264,0.09792261757091761,0.20041627301461812,0.4970771956554611
352,20.251,20.15,-0.81,0.20528601175687,0.2824097524793143,0.21226103318826686,0.09923266727985261,0.2005508907750261,0.4965087218053019
353,20.312,20.2,-0.81,0.20517458225076957,0.2848361669525753,0.212217323456998,0.10054141896536921,0.20066251709547944,0.4959285566279973
354,20.352,20.26,-0.87,0.2050308059847632,0.2872282183320335,0.21213995495917382,0.10184844679278916,0.20075104150478543,0.49533762142903354
355,20.455,20.31,-0.93,0.20485458641926485,0.2895845272235534,0.21202894165544,0.10315331817171751,0.20081636507660847,0.49473683389382483
356,20.475,20.37,-0.75,0.2046458487560454,0.29190371744815496,0.2118843248854412,0.10445559398931613,0.20085840034834151,0.4941271072500199
357,20.537,20.42,-0.87,0.20440453989277882,0.29418441719857275,0.21170617330285624,0.10575482886364718,0.20087707123463594,0.4935093494496058
358,20.577,20.48,-1.04,0.2041306283573634,0.2964252602267667,0.21149458278462455,0.10705057141739721,0.20087231293592345,0.4928844623718546
359,20.618,20.53,-0.7,0.2038241042223686,0.29862488706161855,0.21124967631445918,0.10834236457219412,0.20084407184225894,0.49225334104810703
360,20.679,20.59,-0.85,0.20348497899995924,0.300781946255978,0.21097160384075733,0.10962974586367724,0.20079230543280788,0.4916168729093312
361,20.742,20.64,-1.0,0.20311328551760208,0.30289509566228245,0.21066054210901733,0.11091224777750494,0.20071698217128758,0.49097593705737
362,20.822,20.7,-0.85,0.20270907777477895,0.3049630037361937,0.21031669446883983,0.11218939810661328,0.20061808139767376,0.49033140356071747
363,20.842,20.75,-0.87,0.20227243078088436,0.30698435086787806,0.20994029065558734,0.11346072033015617,0.2004955932164884,0.4896841327755429
364,20.904,20.81,-0.94,0.2018034403744948,0.30895783074051286,0.20953158654681883,0.11472573401454308,0.2003495183819793,0.4890349746925683
365,20.944,20.86,-1.01,0.2013022230242065,0.3108821517154732,0.2090908638936487,0.11598395523689424,0.20017986818047417,0.4883847683103495
366,21.005,20.92,-0.81,0.2007689156112372,0.31275603824353004,0.20861843002719926,0.11723489703111628,0.19998666431017165,0.4877343410354546
367,21.065,20.97,-0.95,0.20020367519401736,0.31457823230120874,0.20811461754035107,0.11847806985663853,0.19976993875860707,0.48708450810997556
368,21.126,21.03,-1.13,0.19960667875505445,0.31634749485120806,0.20757978394504414,0.11971298208965858,0.19952973367801183,0.4864360720667673
369,21.207,21.08,-0.79,0.19897812293042094,0.3180626073255298,0.20701431130542164,0.12093914053659136,0.19926610125876346,0.48578982221277694
370,21.227,21.14,-0.91,0.19831822372229538,0.3197223731297436,0.2064186058471438,0.12215605096930832,0.19897910360110607,0.48514653414080916
371,21.289,21.19,-1.07,0.1976272161950334,0.3213256191667346,0.2057930975432232,0.12336321868173253,0.1986688125852946,0.4845069692701057
372,21.329,21.25,-0.92,0.19690535415523444,0.3228711973784744,0.2051382396767318,0.12456014906745443,0.19833530974030347,0.4838718744161196
373,21.391,21.3,-0.91,0.19615290981625075,0.32435798630462787,0.20445450838076568,0.12574634821813555,0.197978686111244,0.48324198138979024
374,21.453,21.36,-0.97,0.1953701734475984,0.3257848926569001,0.20374240215613112,0.12692132354243024,0.19759904212562754,0.48261800662654136
375,21.554,21.41,-1.06,0.19455745300974825,0.32715085290799034,0.20300244136729195,0.1280845844050237,0.19719648745859436,0.48200065084516786
376,21.574,21.47,-0.88,0.19371507377478608,0.3284548348939429,0.20223516771716094,0.1292356427852351,0.19677114089721487,0.4813905987367105
377,21.615,21.52,-1.02,0.1928433779334745,0.32969583942851033,0.20144114370136795,0.13037401395444448,0.1963231302039629,0.4807885186833376
378,21.677,21.58,-1.19,0.1919427241892981,0.3308729019278731,0.20062095204269062,0.13149921717138102,0.19585259197944033,0.4801950625071988
379,21.72,21.63,-0.85,0.19101348734011334,0.33198509404378673,0.1997751951063825,0.13261077639409863,0.1953596715244083,0.47961086524917523
380,21.78,21.69,-0.97,0.19005605784805657,0.3330315253029527,0.198904494297197,0.13370822100726965,0.19484452270114813,0.4790365449774189
381,21.842,21.74,-1.12,0.1890708413983741,0.3340113447502444,0.19800948943895202,0.13479108656330493,0.19430730779414407,0.4784727026255608
382,21.925,21.8,-0.98,0.18805825844781096,0.33492374259346386,0.19709083813748196,0.13585891553583973,0.1937481973700664,0.4779199218604378
383,21.946,21.85,-0.93,0.18701874376318095,0.33576795184739616,0.19614921512779035,0.1369112580842347,0.19316737013704194,0.47737876897908216
384,22.008,21.91,-0.99,0.1859527459507685,0.33654324997486884,0.19518531160620647,0.137947672827781,0.19256501280319677,0.47684979283463613
385,22.071,21.96,-1.05,0.1848607269772394,0.33724896052239406,0.19419983454832893,0.13896772762827475,0.19194131993445082,0.47633352479080027
386,22.112,22.02,-0.9,0.18374316168275184,0.3378844547478689,0.19319350601351917,0.1399710003796035,0.19129649381154623,0.47583047870434725
387,22.173,22.07,-1.02,0.1826005372869948,0.33844915323765584,0.19216706243670315,0.14095707980294397,0.19063074428630677,0.4753411509351242
388,22.296,22.13,-1.19,0.181433352888929,0.3389425275101669,0.19112125390823848,0.14192556624612956,0.18994428863712817,0.47486602038288445
389,22.318,22.18,-0.86,0.18024211896105288,0.3393641016028614,0.1900568434426009,0.14287607248573087,0.18923735142368883,0.4744055485502512
390,22.338,22.24,-1.0,0.17902735683906204,0.3397134536393616,0.18897460623666668,0.14380822453036698,0.1885101643408449,0.4739601796311208
391,22.378,22.29,-1.13,0.17778959820778642,0.3399902173732698,0.18787532891838846,0.144721662423754,0.1877629660716452,0.47353034062384186
392,22.461,22.35,-1.0,0.17652938458425022,0.34019408370535625,0.18675980878665224,0.1456160410460719,0.18699600213938797,0.4731164414684884
393,22.503,22.4,-0.96,0.1752472667986575,0.3403248021709028,0.18562885304308846,0.14649103091232418,0.18620952475864794,0.4727188752074482
394,22.542,22.46,-1.02,0.17394380447410904,0.34038218239391704,0.18448327801662193,0.14734631896635172,0.1854037926851997,0.4723380181684367
395,22.643,22.51,-1.1,0.1726195655058669,0.3403660955048147,0.18332390838155754,0.14818160936908203,0.18457907106475607,0.47197423016899437
396,22.663,22.57,-0.89,0.17127512554098573,0.34027647551811174,0.18215157636999263,0.14899662427952046,0.18373563128044082,0.47162785474146324
397,22.705,22.62,-1.01,0.1699110674591563,0.3401133206666198,0.18096712097935755,0.1497911046268947,0.18287375079892715,0.47129921937738994
398,22.765,22.68,-1.22,0.1685279808556538,0.3398766946885134,0.17977138717590288,0.15056481087222318,0.18199371301517947,0.4709886357902771
399,22.826,22.73,-0.89,0.1671264615273335,0.3395667280634732,0.17856522509498357,0.15131752375741958,0.18109580709573794,0.4706964001955938
400,22.888,22.79,-1.01,0.16570711096267426,0.33918361919392986,0.17734948923904045,0.15204904503987907,0.18018032782048302,0.4704227936069637
401,22.928,22.84,-1.14,0.16427053583688925,0.33872763552738905,0.17612503767423845,0.15275919821038947,0.1792475754228006,0.4701680821475202
402,23.011,22.9,-1.01,0.1628173475130695,0.338199114616095,0.17489273122674664,0.15344782919225364,0.17829785542805845,0.4699325173754742
403,23.053,22.95,-0.98,0.16134816155025983,0.3375984651106423,0.17365343267968536,0.1541148070195881,0.17733147849031045,0.46971633662293555
404,23.093,23.01,-1.05,0.15986359721934076,0.3369261676842956,0.17240800597183695,0.15476002449273357,0.1763487602271494,0.46951976334697443
405,23.154,23.06,-1.15,0.1583642770275762,0.33618277588476575,0.17115731539926787,0.15538339880862312,0.17535002105262804,0.46934300749186775
406,23.236,23.12,-0.9,0.15685082625264846,0.335368916910173,0.16990222482100822,0.15598487216389387,0.1743355860081727,0.46918626586140477
407,23.296,23.17,-1.02,0.15532387248697446,0.3344852923058626,0.16864359686991898,0.15656441232843515,0.17330578459142437,0.4690497225000494
408,23.317,23.23,-1.25,0.15378404519307687,0.3335326785786075,0.16738229216987488,0.15712201318689822,0.17226095058294524,0.4689335490817012
409,23.379,23.28,-0.91,0.15223197527077964,0.3325119277245811,0.16611916856039993,0.1576576952455144,0.17120142187073875,0.4688379053047682
410,23.44,23.34,-0.99,0.15066829463701267,0.3314239676673234,0.16485508032991336,0.15817150610147349,0.17012754027253882,0.46876293929226653
411,23.502,23.39,-1.11,0.1490936358190177,0.3302698026019006,0.16359087745873405,0.15866352087219768,0.16903965135582258,0.46870878799575144
412,23.563,23.45,-1.0,0.14750863156170868,0.3290505132416847,0.16232740487292785,0.15913384258213173,0.1679381042555072,0.4686755776019749
413,23.624,23.5,-0.93,0.14591391444990717,0.3277672569645043,0.16106550171001927,0.1595826025049907,0.16682325148932167,0.46866342394117494
414,23.645,23.56,-0.98,0.14431011654618345,0.3264212678550851,0.1598060005975769,0.16000996045957327,0.16569544877087863,0.4686724328958584
415,23.704,23.61,-1.09,0.14269786904503934,0.32501385664080557,0.1585497269456871,0.1604161050572928,0.16455505482050314,0.4687027008089161
416,23.788,23.67,-0.83,0.1410778019441274,0.32354641051797894,0.15729749825430664,0.16080125389960945,0.16340243117391404,0.4687543148898739
417,23.809,23.72,-0.97,0.1394505437331443,0.32202039286605605,0.15605012343645863,0.16116565372355926,0.16223794198889976,0.46882735361800904
418,23.872,23.78,-1.17,0.1378167211009731,0.3204373428472863,0.15480840215820643,0.1615095804935639,0.16106195385016794,0.46892188714098754
419,23.914,23.83,-0.9,0.13617695866159163,0.31879887488948777,0.15357312419632232,0.16183333943769235,0.15987483557258633,0.4690379776675848
420,23.977,23.89,-0.99,0.13453187869922567,0.317106678049651,0.15234506881456872,0.16213726502653789,0.1586769580030589,0.46917567985298886
421,24.039,23.94,-1.13,0.1328821009331655,0.3153625152562635,0.15112500415950136,0.16242172089293125,0.15746869382128853,0.4693350411751865
422,24.12,24.0,-1.03,0.1312282423025348,0.3135682224286793,0.1499136866766361,0.16268709969093129,0.156250417339678,0.46951610230096624
423,24.141,24.05,-0.98,0.12957091677115176,0.3117257074723869,0.14871186054772062,0.1629338228928356,0.15502250430263298,0.4697188974400565
424,24.202,24.11,-1.06,0.12791073515252882,0.3098369491493827,0.14752025714977632,0.1631623405231734,0.15378533168554123,0.46994345468589976
425,24.262,24.16,-1.14,0.12624830495499456,0.3079039958230861,0.1463395945365043,0.16337313082879457,0.15253927749371035,0.4701897963415902
426,24.303,24.22,-0.89,0.12458423024686366,0.3059289640775099,0.1451705769425605,0.16356669988434458,0.1512847205615622,0.4704579392295356
427,24.385,24.27,-1.02,0.12291911154154249,0.3039140372106619,0.14401389431110573,0.16374358113263837,0.1500220403524095,0.4707478949834342
428,24.445,24.33,-1.23,0.12125354570244543,0.3018614636023478,0.14287022184493164,0.1639043348597183,0.14875161675916815,0.4710596703211847
429,24.486,24.38,-0.95,0.11958812586759592,0.2997735549567048,0.14174021958136568,0.16404954760469365,0.1474738299063932,0.4713932672973571
430,24.549,24.44,-1.0,0.11792344139380777,0.29765268441992565,0.14062453199111222,0.16417983150471535,0.146189059954063,0.47174868353386606
431,24.611,24.49,-1.15,0.11626007782033185,0.29550128457386104,0.1395237876011726,0.1642958235756392,0.14489768690355104,0.4721259124275514
432,24.631,24.55,-1.15,0.11459861685176867,0.29332184530669225,0.13843859864193844,0.16439818492918934,0.1436000904062443,0.47252494333346357
433,24.693,24.6,-1.1,0.11293963635992693,0.29111691156246006,0.1373695607184855,0.16448759992773007,0.14229664957529412,0.4729457617226767
434,24.754,24.66,-1.21,0.11128371040422616,0.2888890809716739,0.13631725250604715,0.1645647752779487,0.14098774280100496,0.4733883493134775
435,24.815,24.71,-1.33,0.10963140927016791,0.2866410013655355,0.13528223546961407,0.16463043906485028,0.13967374757035284,0.4738526841748747
436,24.856,24.77,-1.09,0.10798329952530278,0.2843753681766402,0.13426505360755092,0.16468533972755023,0.1383550402910994,0.47433874080148725
437,24.918,24.82,-1.27,0.10633994409201877,0.28209492172930456,0.13326623321906242,0.16473024497842917,0.1370319961209362,0.47484649015895236
438,24.978,24.88,-1.48,0.10470190233638643,0.2798024444228722,0.13228628269527215,0.16476594066731282,0.13570498880207083,0.4753758996990492
439,25.021,24.93,-1.25,0.1030697301722304,0.27750075781151357,0.13132569233361002,0.16479322959249826,0.13437439050164837,0.47592693334376696
440,25.084,24.99,-1.32,0.10144398017957401,0.275192719584166,0.13038493417515978,0.1648129302606423,0.1330405716583843,0.4764995514375987
441,25.144,25.04,-1.44,0.09982520173658152,0.27288122044847546,0.12946446186458033,0.1648258755977556,0.1317039008357431,0.4770937106675085
442,25.225,25.1,-1.43,0.0982139411640369,0.2705691809230711,0.12856471053212334,0.1648329116138865,0.13036474458195701,0.4777093639502216
443,25.245,25.15,-1.33,0.0966107418812861,0.2682595480431285,0.12768609669715308,0.16483489602446388,0.1290234672971548,0.47834646028663763
444,25.307,25.21,-1.46,0.09501614457249961,0.26595529198465234,0.12682901819248787,0.16483269683153118,0.12768043110786084,0.4790049445832563
445,25.348,25.26,-1.58,0.093430687362073,0.26365940261323606,0.12599385410883113,0.16482719086822845,0.12633599574910587,0.4796847574405978
446,25.408,25.32,-1.32,0.09185490599794452,0.2613748859633508,0.12518096475851603,0.164819262309944,0.12499051845438058,0.4803858349086757
447,25.47,25.37,-1.48,0.09028933404157127,0.2591047606544794,0.12439069165776974,0.16480980115557953,0.12364435385364722,0.4811081082096612
448,25.512,25.43,-1.68,0.08873450306326577,0.2568520542506656,0.12362335752670975,0.16479970168238417,0.12229785387960984,0.4818515034279761
449,25.594,25.48,-1.5,0.08719094284155944,0.25461979957031433,0.12287926630631606,0.16478986087785152,0.12095136768243185,0.4826159411681467
450,25.654,25.54,-1.55,0.08565918156525093,0.25241103095328493,0.12215870319168835,0.1647811768522042,0.119605241553079,0.48340133618081216
451,25.675,25.59,-1.69,0.08413974603678948,0.25022878049249647,0.12146193468095474,0.16477454723502272,0.11825981885543083,0.4842075969573823
452,25.737,25.65,-1.75,0.08263316187557608,0.248076074237575,0.1207892086391799,0.1647708675597019,0.11691543996725687,0.4850346252939568
453,25.797,25.7,-1.62,0.08113995371967574,0.24595592837842112,0.1201407543765471,0.16477102963960402,0.11557244223011147,0.4858823158252083
454,25.878,25.76,-1.76,0.07966064542439585,0.2438713454167031,0.11951678274003107,0.16477591993987822,0.11423115990815277,0.48675055552905155
455,25.959,25.81,-1.87,0.07819576025619585,0.24182531033316376,0.11891748621774575,0.16478641794890037,0.11289192415583099,0.48763922320310393
456,25.98,25.87,-1.6,0.07674582108042431,0.23982078675838767,0.11834303905512825,0.16480339455321152,0.11155506299433217,0.4885481889141609
457,26.021,25.92,-1.76,0.07531135054142839,0.23786071315439833,0.11779359738211423,0.1648277104197311,0.11022090129661709,0.4894773134220997
458,26.063,25.98,-1.94,0.07389287123362642,0.23594799901423327,0.11726929935045895,0.1648602143889472,0.10888976078086124,0.4904264475797963
459,26.125,26.03,-1.75,0.0724909058621737,0.23408552108654307,0.11677026528035989,0.1649017418828016,0.10756196001208435,0.4913954317107702
460,26.187,26.09,-1.79,0.07110597739191551,0.23227611963216374,0.1162965978155788,0.16495311333101417,0.10623781441174507,0.4923840949663613
461,26.249,26.14,-1.88,0.0697386091833931,0.23052259471947534,0.11584838208632328,0.16501513261957737,0.104917636275047,0.4933922546643674
462,26.352,26.2,-1.92,0.06838932511469313,0.22882770256534077,0.11542568587916992,0.1650885855651587,0.10360173479566359,0.4944197156112077
463,26.373,26.25,-1.77,0.06705864968792585,0.2271941519284887,0.11502855981328963,0.16517423841918327,0.10229041609756684,0.4954662694097751
464,26.415,26.31,-1.89,0.06574710811915094,0.22562460056214612,0.11465703752222471,0.1652728364053253,0.10098398327362546,0.4965316937552177
465,26.455,26.36,-2.04,0.06445522641064697,0.22412165173245607,0.11431113584047212,0.16538510229399234,0.09968273643061654,0.49761575172098976
466,26.517,26.42,-1.76,0.06318353140450822,0.22268785080883957,0.11399085499412942,0.1655117350172038,0.09838697274027289,0.49871819103760423
467,26.578,26.47,-1.93,0.06193255081664004,0.22132568193203167,0.11369617879486386,0.16565340832707157,0.09709698649596875,0.4998387433665783
468,26.641,26.53,-2.09,0.06070281325028101,0.22003756476516673,0.11342707483646601,0.16581076950093285,0.09581306917462439,0.5009771235721223
469,26.702,26.58,-1.93,0.059494848188203484,0.21882585133307617,0.1131834946932505,0.16598443809610353,0.0945355095033882,0.502133028993164
470,26.743,26.64,-1.93,0.05830918596278482,0.2176928229547344,0.11296537411961195,0.16617500475713792,0.09326459353063457,0.5033061387183182
471,26.803,26.69,-2.0,0.05714635770320928,0.2166406872734619,0.11277263325012865,0.16638303007830874,0.09200060470077749,0.5044961128664489
472,26.865,26.75,-2.05,0.05600689525911595,0.21567157538918166,0.11260517679967746,0.16660904352379702,0.09074382393236036,0.5057025918755281
473,26.886,26.8,-1.87,0.05489133110006457,0.21478753909677195,0.11246289426308086,0.16685354240782269,0.08949452969886547,0.5069251958024873
474,26.949,26.86,-1.99,0.05380019819029356,0.21399054823425764,0.11234566011388365,0.1671169909366183,0.08825299811168429,0.508163523636705
475,27.011,26.91,-2.13,0.052734029838368675,0.21328248814424783,0.11225333400192926,0.1673998193138096,0.08701950300468854,0.5094171526297205
476,27.052,26.97,-1.81,0.05169335952143251,0.21266515725171467,0.1121857609494518,0.16770242291048737,0.08579431601984669,0.5106856376437026
477,27.115,27.02,-1.95,0.050678720683860264,0.2121402647609242,0.11214277154542773,0.16802516150103905,0.08457770669333495,0.5119685105211444
478,27.198,27.08,-2.13,0.04969064651018725,0.21170942847413265,0.11212418213793868,0.16836835856567242,0.08336994254159974,0.5132652794782108
479,27.219,27.13,-1.97,0.04872966967220645,0.2113741727346151,0.11212979502430037,0.16873230066053782,0.08217128914684103,0.5145754285241088
480,27.299,27.19,-1.99,0.047796322050196724,0.2111359264965127,0.11215939863876569,0.16911723685632077,0.08098201024140385,0.5158984169087848
481,27.361,27.24,-2.05,0.0468911344283504,0.21099602152373773,0.11221276773771736,0.16952337824602948,0.0798023677905583,0.5172336786012268
482,27.422,27.3,-2.1,0.046014636164570244,0.21095569071987472,0.1122896635823582,0.16995089752250112,0.07863262207312377,0.5185806218006935
483,27.442,27.35,-1.92,0.045167354834895285,0.2110160665907446,0.11238983411896447,0.17039992862595243,0.0774730317593787,0.5199386284831864
484,27.504,27.41,-2.04,0.044349815852928264,0.21117817984095089,0.1125130141568205,0.17087056646167476,0.07632385398569347,0.5213070539854121
485,27.584,27.46,-2.18,0.04356254206475726,0.21144295810531843,0.11265892554399576,0.17136286668773867,0.07518534442532605,0.5226852266283719
486,27.605,27.52,-1.86,0.042806053319960354,0.21181122481575004,0.11282727734114649,0.17187684557237692,0.07405775735482654,0.524072447382566
487,27.666,27.57,-1.99,0.042080866019352785,0.21228369820369353,0.11301776599353995,0.17241247992054762,0.07294134571550741,0.5254679895766294
488,27.728,27.63,-2.12,0.04138749264016362,0.21286099043823037,0.11323007550150764,0.17296970706906944,0.07183636116944885,0.5268710986510775
489,27.789,27.68,-1.95,0.04072644123931556,0.21354360689983914,0.11346387758953526,0.17354842494969697,0.07074305414953325,0.528280991958676
490,27.85,27.74,-1.93,0.04009821493549247,0.21433194558994936,0.1137188318742246,0.17414849221949152,0.0696616739030434,0.5296968586127668
491,27.912,27.79,-1.99,0.03950331137074942,0.21522629667624993,0.11399458603143141,0.17476972845773156,0.06859246852839014,0.5311178593847007
492,27.933,27.85,-2.07,0.0389422221525125,0.2162268421734515,0.11429077596294045,0.1754119144284523,0.06753568500455971,0.5325431266513971
493,27.997,27.9,-1.84,0.03841543227691334,0.2173336557589428,0.1146070259630843,0.17607479240754845,0.06649156921290796,0.5339717643939086
494,28.058,27.96,-1.97,0.03792341953452823,0.2185467027224946,0.11494294888577952,0.17675806657317752,0.06546036595096945,0.5354028482477052
495,28.099,28.01,-2.15,0.037466653899727954,0.2198658400488706,0.11529814631253817,0.17746140345795355,0.06444231893798409,0.5368354256052864
496,28.16,28.07,-1.82,0.037045596904964936,0.22129081663195238,0.11567220872209252,0.17818443246115986,0.06343767081187804,0.53826851577162
497,28.221,28.12,-1.93,0.03666070100143372,0.2228212736187679,0.11606471566235492,0.1789267464189541,0.06244666311746708,0.5397011101728393
498,28.284,28.18,-2.07,0.03631240890761273,0.22445674488170483,0.11647523592549947,0.17968790223035327,0.06146953628567427,0.5411321726185904
499,28.325,28.23,-1.96,0.03600115294720729,0.22619665761727917,0.11690332772697472,0.18046742153675788,0.06050652960358578,0.542560639618367
500,28.388,28.29,-1.93,0.0357273543780265,0.2280403330699098,0.1173485388892742,0.18126479145280416,0.059557881175211866,0.5439854207520389
501,28.451,28.34,-1.98,0.03549142271339078,0.22998698737896434,0.11781040703132238,0.18207946534630093,0.05862382787285378,0.5454053990946371
502,28.535,28.4,-2.07,0.03529375503774064,0.23203573254697207,0.11828845976434141,0.1829108636649515,0.057704605278999045,0.5468194316953391
503,28.556,28.45,-1.83,0.03513473531817917,0.23418557752651784,0.1187822148950309,0.18375837480754403,0.05680044761869326,0.5482263501104618
504,28.637,28.51,-1.94,0.03501473371374966,0.23643542942290424,0.11929118063686191,0.18462135603726337,0.05591158768237315,0.5496249609901096
505,28.658,28.56,-2.14,0.034934105884332475,0.23878409480922005,0.11981485583027332,0.18549913443470545,0.05503825673918519,0.5510140467179688
506,28.72,28.62,-1.84,0.03489319230113068,0.24123028115003375,0.12035273017256812,0.18639100788807378,0.05418068444086239,0.5523923661036025
507,28.763,28.67,-1.94,0.034892317560800655,0.24377259832959303,0.12090428445835376,0.18729624611790707,0.053339098716278496,0.5537586551264934
508,28.907,28.73,-2.05,0.03493178970533042,0.246409560280262,0.12146899083141637,0.18821409173359405,0.0525137256568317,0.5551116277310315
509,28.927,28.78,-1.95,0.03501189954974395,0.24913958670708714,0.1220463130489167,0.18914376131898605,0.05170478939284182,0.5564499766716222
510,28.947,28.84,-1.88,0.0351329200196675,0.2519610049046561,0.12263570675876431,0.19008444654455287,0.05091251196118986,0.5577723744069742
511,28.987,28.89,-1.96,0.03529510550078584,0.25487205166253313,0.1232366197910138,0.19103531530359597,0.050137113164473446,0.5590774740425234
512,29.05,28.95,-2.06,0.03549869120220438,0.2578708752555843,0.12384849246409957,0.19199551287004574,0.049378810421996246,0.5603639103198339
513,29.091,29.0,-1.85,0.03574389253568417,0.2609555375155773,0.12447075790666894,0.19296416307538333,0.04863781861296107,0.5616303006517069
514,29.152,29.06,-1.98,0.03603090451264622,0.26412401598050234,0.12510284239570918,0.19394036950221427,0.04791434991228961,0.5628752462015855
515,29.214,29.11,-2.2,0.03635990116075971,0.267374206118071,0.12574416571160207,0.19492321669196952,0.047208613619530805,0.5640973330057268
516,29.275,29.17,-1.95,0.036731034961851435,0.27070392361979545,0.1263941415106781,0.19591177136416,0.04652081598135201,0.5652951331364966
517,29.337,29.22,-2.0,0.037144436312820835,0.2741109067618841,0.12705217771579166,0.19690508364458045,0.04585116000812396,0.5664672059050573
518,29.379,29.28,-2.15,0.037600213011176296,0.27759281882905046,0.1277176769253646,0.19790218829992234,0.04519984528511043,0.5676120991016801
519,29.443,29.33,-2.1,0.03809844976667674,0.2811472505974029,0.12839003684120415,0.19890210597649588,0.04456706777877237,0.5687283502718805
520,29.505,29.39,-1.98,0.03863920774041512,0.28477172287276964,0.1290686507152315,0.19990384444107814,0.04395301963871494,0.5698144880264617
521,29.526,29.44,-2.07,0.03922252411258455,0.28846368908086367,0.12975290781511892,0.2009063998221097,0.04335788899582965,0.5708690333834129
522,29.63,29.5,-2.17,0.039848411680103966,0.2922205379056713,0.1304421939087136,0.20190875784956205,0.04278185975720731,0.5718905011394776
523,29.65,29.55,-2.04,0.04051685848521661,0.296039595972471,0.13113589176699447,0.20290989509188698,0.042225111398431436,0.5728774012690468
524,29.692,29.61,-2.17,0.04122782747611533,0.29991813057193295,0.13183338168517733,0.20390878018854713,0.04168781875390158,0.5738282403478493
525,29.752,29.66,-2.36,0.041981256200585695,0.30385335242179307,0.13253404202145694,0.20490437507670226,0.041170151805857376,0.5747415229988496
526,29.814,29.72,-2.12,0.04277705653358852,0.30784241846265303,0.13323724975277274,0.20589563621070578,0.040672275472769824,0.5756157533578208
527,29.856,29.77,-2.19,0.04361511443964056,0.3118824346845166,0.13394238104692374,0.20688151577311173,0.040194349397743336,0.5764494365562123
528,29.937,29.83,-2.33,0.044495289770761476,0.31597045898078524,0.1346488118503105,0.20786096287594358,0.03973652773753755,0.5772410802190755
529,29.999,29.88,-2.36,0.04541741610058988,0.32010350402677423,0.1353559184904658,0.2088329247511483,0.039298958952797766,0.5779891959758823
530,30.019,29.94,-2.27,0.04638130059506646,0.32427854018024715,0.1360630782923717,0.2097963479294098,0.03888178560008369,0.5786923009820287
531,30.081,29.99,-2.4,0.04738672391990423,0.3284924984017775,0.1367696702074087,0.21075017940665955,0.038485144126276655,0.5793489194487946
532,30.142,30.05,-2.53,0.0484334401849022,0.33274227319291233,0.13747507545365573,0.21169336779768272,0.03810916466591217,0.57995758417957
533,30.203,30.1,-2.27,0.049521176924989904,0.337024725550245,0.13817867816613374,0.21262486447624343,0.03775397084194154,0.580516838110223
534,30.264,30.16,-2.43,0.05064963511773322,0.3413366859335753,0.13887986605546984,0.21354362470116556,0.037419679570386444,0.5810252358515079
535,30.306,30.21,-2.62,0.051818489236888796,0.3456749572463782,0.13957803107335431,0.21444860872780871,0.03710640086931652,0.5814813452314441
536,30.367,30.27,-2.41,0.053027387341469924,0.35003631782689393,0.140272570083084,0.21533878290439382,0.03681423767256004,0.5818837488356154
537,30.429,30.32,-2.44,0.054275951199702466,0.35441752444823865,0.14096288553345898,0.2162131207526339,0.036543285648542125,0.5822310455433617
538,30.49,30.38,-2.56,0.055563776447172815,0.3588153153260615,0.14164838613429062,0.21707060403213163,0.03629363302461465,0.5825218520579152
539,30.53,30.43,-2.56,0.05689043277833775,0.36322641313259274,0.14232848753171926,0.21791022378811753,0.036065360417211076,0.582754804428617
540,30.594,30.49,-2.44,0.05825546417040764,0.36764752801635087,0.14300261298144626,0.21873098138229655,0.03585854066814395,0.5829285595633916
541,30.654,30.54,-2.55,0.05965838913850668,0.37207536062699514,0.14367019401792375,0.21953188950669936,0.03567323868735414,0.5830417967296863
542,30.737,30.6,-2.7,0.06109870102095656,0.376506605144765,0.14433067111750172,0.22031197318050394,0.035509511302404886,0.5830932190421682
543,30.757,30.65,-2.42,0.06257586829349579,0.38093795231374905,0.1449834943534882,0.22107027072984173,0.03536740711499869,0.5830815549355721
544,30.798,30.71,-2.58,0.06408933491122328,0.3853660924779393,0.1456281240410366,0.2218058347506182,0.03524696636478009,0.5830055596211844
545,30.862,30.76,-2.77,0.06563852067702497,0.3897877186187506,0.14626403136973573,0.2225177330543844,0.03514822080066667,0.5828640165255589
546,30.902,30.82,-2.59,0.0672228216351941,0.3941995293925068,0.14689069902173876,0.2232050495973553,0.03507119355993132,0.5826557387101582
547,30.963,30.87,-2.62,0.06884161048892708,0.3985982321662199,0.1475076217732608,0.2238668853927392,0.035015899055235396,0.5823795702706926
548,31.024,30.93,-2.71,0.07049423704035243,0.40298054604977107,0.14811430707729953,0.2245023594065618,0.034982342869770866,0.5820343877150415
549,31.129,30.98,-2.75,0.07218002865169694,0.4073432049224555,0.1487102756254294,0.22511060943720818,0.0349705216606164,0.5816191013187705
550,31.15,31.04,-2.61,0.0738982907261338,0.41168296045176084,0.14929506188649727,0.22569079297896363,0.03498042307037818,0.5811326564573386
551,31.193,31.09,-2.72,0.07564830720684879,0.41599658510205,0.14986821462004943,0.22624208806982646,0.03501202564715703,0.5805740349141311
552,31.253,31.15,-2.85,0.07742934109288055,0.42028087513054707,0.15042929736234548,0.22676369412377687,0.03506529877285317,0.5799422561635258
553,31.314,31.2,-2.55,0.07924063497030637,0.4245326535677699,0.15097788888284336,0.22725483274757893,0.035140202599789346,0.579236378628258
554,31.376,31.26,-2.7,0.08108141155735235,0.42874877317934246,0.1515135836090818,0.22771474854208934,0.035236687995608036,0.5784555009104025
555,31.477,31.31,-2.86,0.08295087426199609,0.4329261194060354,0.1520359920179251,0.22814270988802363,0.03535469649637702,0.577598762995325
556,31.497,31.37,-2.71,0.08484820775059453,0.43706161327901905,0.15254474099117352,0.22853800971624486,0.035494160267827576,0.5766653474279627
557,31.517,31.42,-2.73,0.08677257852606886,0.4411522143074836,0.1530394741336314,0.22889996626276693,0.03565500207464234,0.5756544804607726
558,31.579,31.48,-2.79,0.08872313551422871,0.4451949233358197,0.15351985205187285,0.22922792380866508,0.035837135257677157,0.5745654331727129
559,31.62,31.53,-2.85,0.09069901065686728,0.449186785367531,0.1539855525920767,0.22952125340501942,0.036040463718953406,0.5733975225587057
560,31.682,31.59,-2.67,0.0926993195102968,0.45312489235304865,0.15443627103539395,0.22977935358297136,0.03626488191421933,0.5721501125890623
561,31.745,31.64,-2.78,0.09472316184805386,0.4570063859385395,0.15487172024939763,0.23000165104892514,0.03651027485285122,0.5708226152383296
562,31.849,31.7,-2.91,0.09676962226657757,0.4608284601726609,0.15529163079424546,0.23018760136489402,0.036776518104838375,0.5694144914829703
563,31.869,31.75,-2.59,0.09883777079272964,0.4645883641681174,0.1556957509822459,0.23033668961401008,0.03706347781457481,0.5679252522672307
564,31.89,31.81,-2.71,0.10092666349208783,0.4682834047148456,0.15608384688957663,0.23044843105127374,0.03737101072116347,0.5663544594364797
565,31.951,31.86,-2.84,0.10303534307697718,0.4719109488417871,0.15645570231903158,0.23052237173967566,0.037698964184927436,0.5647017266372618
566,32.013,31.92,-2.7,0.10516283951321188,0.475468426324574,0.15681111871303324,0.23055808917177179,0.038047176219828165,0.5629667201832298
567,32.073,31.97,-2.69,0.10730817062456113,0.478953332136816,0.15714991501689654,0.23055519287641724,0.03841547553150816,0.5611491598860052
568,32.115,32.03,-2.73,0.10947034269404839,0.4823632288428842,0.15747192749331373,0.2305133250096777,0.03880368156067345,0.5592488198499397
569,32.197,32.08,-2.79,0.11164835106128293,0.48569574893024564,0.15777700948983145,0.2304321609283069,0.03921160453151607,0.5572655292297284
570,32.238,32.14,-2.62,0.1138411807150923,0.4889485970796335,0.15806503116151602,0.23031140974384193,0.039639045504867444,0.5551991729497994
571,32.28,32.19,-2.74,0.11604780688080638,0.49211955237152494,0.15833587915117975,0.23015081485522232,0.04008579643576956,0.5530496923843383
572,32.342,32.25,-2.89,0.11826719560162943,0.4952064704275232,0.15858945622962614,0.22995015445775552,0.04055164023514251,0.5508170859967633
573,32.403,32.3,-2.54,0.12049830431360517,0.4982072854853482,0.15882568089842136,0.22970924202622442,0.04103635083521473,0.5485014099374342
574,32.445,32.36,-2.64,0.12274008241374791,0.5011200124062193,0.15904448695774,0.2294279267699736,0.04153969325836248,0.546102778598391
575,32.505,32.41,-2.75,0.12499147182096751,0.5039427486135374,0.15924582304184703,0.22910609405793397,0.04206142368898787,0.543621365123964
576,32.587,32.47,-2.6,0.1272514075294407,0.5066736759620599,0.1594296521247643,0.2287436658117829,0.04260128954806835,0.5410574018761254
577,32.607,32.52,-2.55,0.12951881815413654,0.5093110625369653,0.15959595099867038,0.2283406008656527,0.04315902957004088,0.5384111808534029
578,32.669,32.58,-2.59,0.13179262646833584,0.5118532643820578,0.1597447097276216,0.22789689529087337,0.04373437388171352,0.5356830540621255
579,32.729,32.63,-2.65,0.1340717499331538,0.5142987271558969,0.15987593107921189,0.2274125826842168,0.04432704408292105,0.5328734338387557
580,32.771,32.69,-2.43,0.13635510121925062,0.516645987714079,0.15998962993678748,0.22688773441810164,0.0449367533286712,0.5299827931220344
581,32.853,32.74,-2.55,0.13864158872109417,0.5188936756153215,0.16008583269482973,0.2263224598512027,0.045563206412563916,0.5270116656736233
582,32.934,32.8,-2.71,0.14093011706429234,0.5210405145484935,0.1601645766401175,0.22571690649786788,0.04620609985129099,0.5239606462459169
583,32.954,32.85,-2.37,0.1432195876066411,0.5230853236773082,0.16022590932127256,0.22507126015470352,0.04686512197004495,0.5208303906957111
584,32.996,32.91,-2.46,0.1455088989336426,0.5250270188989837,0.16026988790928745,0.22438574498263536,0.0475399529886816,0.5176216160424517
585,33.078,32.96,-2.57,0.14779694734932697,0.5268646140128739,0.16029657855161905,0.22366062354274227,0.04823026510848701,0.5143351004698917
586,33.098,33.02,-2.46,0.15008262736322733,0.5285972217949977,0.16030605572236795,0.22289619678428826,0.04893572259942043,0.5109716832700744
587,33.16,33.07,-2.39,0.15236483217437033,0.5302240549743853,0.16029840157099273,0.22209280398355943,0.04965598188774122,0.5075322647285921
588,33.22,33.13,-2.42,0.1546424541531991,0.5317444271069506,0.160273705271959,0.22125082263220153,0.050390691643959,0.5040178059501126
589,33.343,33.18,-2.49,0.1569143853223934,0.5331577533422972,0.16023206237766063,0.2203706682737779,0.05113949287106486,0.5004293286232461
590,33.363,33.24,-2.25,0.15917951783755743,0.5344635510785957,0.1601735741768432,0.21945279428730705,0.05190201899303158,0.49676791472390297
591,33.403,33.29,-2.37,0.16143674446873535,0.5356614405003924,0.16009834706064235,0.2184976916165588,0.05267789594361253,0.49303470615633405
592,33.444,33.35,-2.55,0.16368495908370065,0.5367511449938579,0.1600064918982398,0.2175058884438855,0.05346674225551027,0.4892309043310929
593,33.485,33.4,-2.26,0.16592305713394861,0.5377324914335985,0.15989812342404075,0.21647794980736412,0.05426816915002539,0.48535776967920785
594,33.547,33.46,-2.32,0.16814993614432314,0.5386054103347343,0.15977335963821113,0.21541447716004203,0.055081780627324745,0.4814166211019265
595,33.609,33.51,-2.43,0.1703644962071847,0.539369935863654,0.15963232122233778,0.21431610787016744,0.05590717355747078,0.47740883535553313
596,33.693,33.57,-2.35,0.1725656404819292,0.540026205700946,0.15947513097184193,0.21318351466154187,0.05674393777235948,0.4733358463708788
597,33.712,33.62,-2.27,0.17475227570053833,0.5405744607503837,0.1593019132466139,0.21201740499347038,0.05759165615873543,0.4691991445073439
598,33.775,33.68,-2.35,0.17692331267974704,0.5410150446882869,0.1591127934412001,0.21081852038004825,0.05844990475247517,0.46500027574101027
599,33.834,33.73,-2.44,0.17907766684033175,0.5413484033480971,0.15890789747574005,0.20958763564871508,0.05931825283434456,0.46074084078692845
600,33.876,33.79,-2.19,0.18121425873392916,0.5415750839356738,0.15868735130870842,0.20832555813820458,0.06019626302745194,0.45642249415548064
601,33.977,33.84,-2.31,0.18333201457770784,0.5416957340715166,0.1584512804723804,0.20703312683619432,0.06108349139663548,0.4520469431429675
602,33.998,33.9,-2.48,0.18542986679714257,0.5417111006568086,0.15819980963182703,0.20571121145711188,0.06197948755003483,0.4476159467566769
603,34.038,33.95,-2.22,0.18750675457708998,0.5416220285608793,0.15793306216816352,0.2043607114607056,0.06288379474310973,0.44313131457483235
604,34.098,34.01,-2.26,0.18956162442134322,0.5414294591283882,0.157651159786747,0.20298255501211512,0.06379594998538009,0.4385949055419377
605,34.179,34.06,-2.34,0.19159343072081644,0.5411344285052809,0.15735422215100744,0.20157769788432386,0.06471548415016243,0.4340086267002035
606,34.2,34.12,-2.31,0.19360113633041132,0.5407380657834936,0.15704236654252302,0.20014712230414725,0.06564192208758061,0.42937443185789737
607,34.262,34.17,-2.21,0.19558371315450138,0.5402415909653799,0.15671570754783765,0.19869183574326568,0.06657478274115104,0.4246943201955473
608,34.326,34.23,-2.31,0.19754014274088852,0.5396463127496693,0.15637435677242187,0.19721286965607884,0.06751357926826401,0.41997033481098967
609,34.406,34.28,-2.41,0.19946941688301761,0.5389536261415373,0.15601842258210388,0.19571127816632516,0.06845781916489302,0.4152045612043654
610,34.427,34.34,-2.15,0.201370538230145,0.5381650098901992,0.15564800987222144,0.19418813670455823,0.06940700439486903,0.41039912570428877
611,34.489,34.39,-2.3,0.20324252090507408,0.5372820237582702,0.155263219864676,0.19264454059869812,0.07036063152405628,0.4055561938365261
612,34.549,34.45,-2.47,0.20508439112900226,0.5363063056279145,0.15486414993300376,0.1910816036199839,0.07131819185976002,0.4006779686366476
613,34.63,34.5,-2.27,0.20689518785295932,0.5352395684495727,0.15445089345552399,0.18950045648676453,0.07227917159568996,0.3957666889082283
614,34.651,34.56,-2.31,0.2086739633952687,0.534083597039746,0.15402353969659976,0.1879022453286561,0.07324305196278862,0.39082462742827884
615,34.712,34.61,-2.42,0.21041978408438233,0.53284024473502,0.1535821737160227,0.18628813011367318,0.07420930938619878,0.3858540891017418
616,34.774,34.67,-2.43,0.21213173090627618,0.5315114299104173,0.15312687630644534,0.1846592830411242,0.0751774156486009,0.3808574090670503
617,34.814,34.72,-2.3,0.2138089001553911,0.530099132371154,0.15265772395864752,0.18301688690330173,0.076146838060119,0.37583695075487566
618,34.876,34.78,-2.38,0.2154504040879589,0.528605389627599,0.15217478885430114,0.18136213341916735,0.0771170396349609,0.37079510390231324
619,34.936,34.83,-2.49,0.21705537157647922,0.5270322930636175,0.15167813888579604,0.17969622154330328,0.0780874792749217,0.36573428252493134
620,34.976,34.89,-2.16,0.2186229487640758,0.5253819840086473,0.15116783770259426,0.17802035575345923,0.07905761195984679,0.36065692284928746
621,35.039,34.94,-2.28,0.2201522997174678,0.523656649723901,0.15064394478349527,0.17633574432006807,0.08002688894513713,0.3555654812086457
622,35.1,35.0,-2.43,0.22164260707731132,0.521858519313099,0.15010651553412488,0.1746435975611553,0.08099475796638063,0.35046243190473814
623,35.141,35.05,-2.22,0.22309307270469297,0.519989859568207,0.14955560140889915,0.17294512608616702,0.08196066345121374,0.3453502650384674
624,35.204,35.11,-2.25,0.2245029183226003,0.518052970760734,0.14899125005669187,0.1712415390323363,0.08292404673854821,0.34023148431245104
625,35.265,35.16,-2.33,0.22587138615122157,0.5160501823892771,0.14841350548943089,0.16953404229727057,0.08388434630530647,0.3351086048083343
626,35.328,35.22,-2.35,0.22719773953587868,0.5139838488943151,0.14782240827280602,0.16782383677151963,0.08484099800080581,0.32998415074184106
627,35.369,35.27,-2.23,0.2284812635663065,0.5118563453516302,0.1472179957381952,0.1661121165749648,0.08579343528892391,0.3248606531985464
628,35.45,35.33,-2.34,0.22972126568594606,0.509670063155883,0.14660030221485917,0.16440006730085155,0.0867410894981671,0.31974064785336526
629,35.512,35.38,-2.45,0.23091707628991345,0.5074274057057049,0.14596935928141033,0.1626888642711608,0.08768339007973433,0.3146266726768035
630,35.532,35.44,-2.15,0.23206804931031605,0.5051307841013366,0.1453251960355111,0.16097967080686285,0.08861976487363596,0.30952126563107557
631,35.593,35.49,-2.28,0.2331735627876129,0.5027826128654256,0.1446678393807047,0.15927363651646953,0.08954964038289327,0.30442696235924427
632,35.634,35.55,-2.44,0.2342330194267518,0.5003853056971869,0.14399731432921753,0.1575718956062694,0.09047244205581274,0.2993462938705935
633,35.694,35.6,-2.26,0.2352458471368649,0.4979412712698319,0.14331364431951035,0.15587556521571047,0.09138759457631628,0.2942817842254863
634,35.755,35.66,-2.26,0.23621149955338877,0.4954529090808806,0.1426168515473452,0.15418574378145325,0.09229452216229962,0.2892359482229826
635,35.796,35.71,-2.3,0.23712945654156858,0.4929226053646445,0.14190695730917666,0.15250350943355767,0.0931926488719676,0.2842112890945594
636,35.898,35.77,-2.32,0.23799922468034324,0.4903527290759295,0.14118398235670065,0.15082991842717228,0.09408139891805807,0.2792102962073736
637,35.919,35.82,-2.16,0.23882033772562491,0.48774562795379894,0.1404479472613862,0.1491660036130172,0.09496019698984581,0.2742354427805386
638,35.98,35.88,-2.25,0.23959235705203616,0.4851036246738936,0.13969887278781518,0.14751277294983656,0.09582846858281277,0.2692891836178398
639,36.022,35.93,-2.4,0.2403148720722456,0.4824290130973401,0.1389367802746576,0.1458712080618273,0.09668564033586881,0.2643739528602413
640,36.084,35.99,-2.12,0.2409875006331019,0.4797240546238202,0.13816169202210557,0.1442422628438807,0.09753114037600526,0.2594921617614473
641,36.146,36.04,-2.23,0.24160988938780487,0.47699097465595575,0.1373736316845746,0.14262686211731343,0.09836439867025222,0.2546461964897056
642,36.247,36.1,-2.35,0.24218171414335932,0.4742319591818164,0.13657262466745526,0.14102590033866166,0.09918484738478749,0.24983841595900066
643,36.289,36.15,-2.22,0.2427026801825304,0.47144915148210426,0.1357586985266485,0.13944024036409325,0.09999192125102102,0.24507114969275068
644,36.309,36.21,-2.23,0.243172522559537,0.4686446489682083,0.1349318833696005,0.13787071227195685,0.10078505793846142,0.24034669572305556
645,36.35,36.26,-2.26,0.24359100636879313,0.4658205001567197,0.13409221225658222,0.13631811224582838,0.10156369843414247,0.23566731852850456
646,36.412,36.32,-2.28,0.24395792698609792,0.46297870178532063,0.13323972160099842,0.1347832015201895,0.10232728742835054,0.2310352470135524
647,36.473,36.37,-2.08,0.24427311028175205,0.46012119607435,0.13237445156753674,0.13326670539064853,0.10307527370636588,0.22645267253243814
648,36.534,36.43,-2.19,0.24453641280515742,0.4572498681377924,0.131496446466998,0.13176931229038297,0.10380711054591497,0.22192174696053127
649,36.616,36.48,-2.34,0.2447477219405233,0.45436654354689865,0.13060575514666728,0.1302916729342596,0.1045222561200264,0.2174445808158611
650,36.636,36.54,-2.03,0.24490695603336696,0.45147298604915065,0.12970243137508314,0.12883439953190678,0.10522017390498513,0.213023241433414
651,36.679,36.59,-2.17,0.24501406448755647,0.44857089544480955,0.12878653422006,0.12739806507086576,0.10590033309307811,0.20865975119461924
652,36.76,36.65,-2.31,0.24506902783268456,0.44566190562294417,0.12785812841881203,0.12598320267085883,0.10656220900980781,0.2043560858143227
653,36.8,36.7,-2.15,0.24507185776154483,0.44274758275872894,0.1269172847390209,0.12459030501020935,0.10720528353522957,0.20011417268742557
654,36.862,36.76,-2.14,0.24502259713746968,0.43982942367373035,0.1259640803297256,0.12321982382543611,0.10782904552905094,0.1959358892971979
655,36.904,36.81,-2.17,0.24492131997131117,0.43690885436065674,0.12499859906098837,0.12187216948491983,0.10843299125910058,0.1918230616871151
656,36.984,36.87,-2.22,0.2447681313678803,0.4339872286736749,0.12402093185134232,0.1205477106373617,0.10901662483273684,0.18777746299793294
657,37.006,36.92,-2.09,0.24456316744169976,0.4310658271849848,0.12303117698204999,0.11924677393557198,0.1095794586307451,0.18380081207155105
658,37.065,36.98,-2.22,0.24430659520200057,0.428145856207844,0.12202944039723769,0.11796964383590167,0.11012101374326122,0.17989477212302318
659,37.126,37.03,-2.37,0.24399861240697993,0.42522844698572704,0.12101583598902178,0.11671656247337928,0.110640820407236,0.17606094948190162
660,37.188,37.09,-2.02,0.2436394473873957,0.4223146550468945,0.1199904858667896,0.11548772961239871,0.11113841844491763,0.17230089240396185
661,37.229,37.14,-2.13,0.2432293588396167,0.41940545972332927,0.11895352060984384,0.11428330267262513,0.11161335770277632,0.1686160899542606
662,37.291,37.2,-2.24,0.24276863558826225,0.41650176383283277,0.11790507950265493,0.11310339682967867,0.11206519849024033,0.16500797096242728
663,37.353,37.25,-2.1,0.24225759631854338,0.4136043935231243,0.11684531075198393,0.11194808519016042,0.112493512017587,0.16147790305100473
664,37.415,37.31,-2.09,0.24169658927842078,0.4107140982768429,0.11577437168517687,0.1108173990405998,0.11289788083233385,0.15802719173749083
665,37.477,37.36,-2.14,0.2410859919507417,0.40783155107621516,0.11469242892901577,0.10971132816979627,0.11327789925347045,0.15465707961057634
666,37.52,37.42,-2.18,0.24042621069556389,0.4049573487258885,0.11359965856858463,0.10862982126384349,0.11363317380285828,0.15136874558097044
667,37.601,37.47,-2.0,0.23971768036291352,0.40209201233214487,0.11249624628565856,0.1075727863729319,0.11396332363310942,0.14816330420710697
668,37.623,37.53,-2.08,0.23896086387630405,0.39923598793630893,0.11138238747618166,0.10654009144880834,0.11426798095124369,0.14504180509592177
669,37.724,37.58,-2.23,0.23815625178744645,0.39638964729966325,0.11025828734646323,0.10553156495154173,0.11454679143740688,0.1420052323787905
670,37.744,37.64,-1.87,0.23730436180268272,0.3935532888366913,0.1091241609877834,0.10454699652404195,0.11479941465792175,0.1390545042626002
671,37.785,37.69,-1.97,0.23640573828176176,0.39072713869303055,0.1079802334291705,0.1035861377326059,0.11502552447193592,0.13619047265580297
672,37.847,37.75,-2.09,0.2354609517096312,0.38791135196424537,0.10682673966817736,0.10264870287165764,0.11522480943092805,0.13341392286920165
673,37.888,37.8,-1.95,0.2344705981419212,0.3851060140515118,0.10566392467951605,0.10173436983086409,0.11539697317034757,0.13072557339109925
674,37.949,37.86,-1.91,0.23343529862481446,0.38231114215033146,0.10449204340144547,0.10084278102285323,0.11554173479269667,0.12812607573627666
675,38.01,37.91,-1.95,0.2323556985900616,0.3795266868682411,0.10331136069987226,0.09997354436971592,0.11565882924138282,0.12561601436811756
676,38.093,37.97,-2.02,0.23123246722597182,0.37675253396724967,0.10212215131018447,0.09912623434637696,0.11574800766467604,0.12319590669310737
677,38.114,38.02,-1.81,0.23006629682525256,0.3739885062265536,0.10092469975687522,0.09830039307882923,0.11580903776911104,0.12086620312684386
678,38.175,38.08,-1.92,0.22885790211062773,0.3712343654208614,0.09971930025106111,0.09749553149510441,0.11584170416168511,0.1186272872305851
679,38.217,38.13,-2.1,0.22760801953921742,0.36848981440937867,0.09850625656605458,0.09671113052668985,0.1158458086802075,0.11647947591727022
680,38.279,38.19,-1.75,0.2263174065867152,0.3657544993302099,0.09728588189120707,0.0959466423579375,0.115821170711158,0.11442301972586513
681,38.342,38.24,-1.83,0.22498684101245434,0.36302801189463796,0.09605849866430176,0.0952014917208661,0.1157676274944096,0.11245810316283494
682,38.384,38.3,-1.94,0.22361712010649334,0.36030989177555217,0.09482443838281823,0.0944750772327016,0.11568503441415975,0.1105848451095467
683,38.486,38.35,-1.8,0.22220905991984344,0.3575996290843294,0.09358404139438634,0.09376677277361437,0.1155732652754228,0.1088032992943901
684,38.507,38.41,-1.75,0.220763494478967,0.35489666693056426,0.09233765666674752,0.09307592890226501,0.11543221256546762,0.10711345482830435
685,38.549,38.46,-1.78,0.21928127498572753,0.3522004040589877,0.09108564153758864,0.09240187430677763,0.115261787699618,0.10551523680228546
686,38.61,38.52,-1.87,0.21776326900402942,0.34951019755778556,0.08982836144467289,0.09174391728862681,0.11506192125085977,0.10400850694537256
687,38.671,38.57,-1.63,0.21621035963442248,0.3468253656324207,0.08856618963672543,0.09110134727676789,0.11483256316273036,0.10259306434154462
688,38.71,38.63,-1.74,0.21462344467798283,0.34414519043888764,0.08729950686555084,0.09047343636919715,0.11457368294500268,0.10126864620389638
689,38.813,38.68,-1.92,0.2130034357908293,0.3414689209700439,0.08602870105988117,0.08985944089901017,0.11428526985170513,0.10003492870441626
690,38.834,38.74,-1.6,0.21135125763068197,0.3387957759883519,0.08475416698151005,0.0892586030219143,0.11396733304104631,0.09889152785764682
691,38.896,38.79,-1.69,0.2096678469969309,0.33612494699803436,0.08347630586440444,0.08867015232200207,0.11361990171683342,0.09783800045647145
692,38.938,38.85,-1.8,0.2079541519657309,0.3334556012494287,0.08219552503765486,0.08809330743246174,0.11324302525098225,0.09687384505827802
693,39.001,38.9,-1.7,0.20621113102163685,0.3307868847683749,0.08091223753324518,0.08752727766790612,0.1128367732867307,0.09599850301976487
694,39.064,38.96,-1.64,0.2044397521872987,0.328117925403631,0.07962686167969915,0.08697126466507818,0.11240123582219767,0.09521135957862288
695,39.106,39.01,-1.68,0.20264099215277254,0.32544783588538523,0.07833982068273765,0.08642446402870194,0.11193652327395637,0.09451174498031761
696,39.189,39.07,-1.74,0.2008158354060287,0.32277571688799844,0.07705154219413479,0.08588606697921072,0.11144276652030849,0.09389893564824586
697,39.21,39.12,-1.48,0.19896527336621775,0.32010066009024796,0.0757624578699708,0.08535526199907838,0.11092011692397229,0.09337215539559329
698,39.273,39.18,-1.6,0.19709030352123239,0.31742175122644084,0.07447300291947132,0.08483123647446453,0.11036874633393678,0.09293057667722059
699,39.337,39.23,-1.79,0.19519192857109482,0.31473807312173013,0.07318361564561908,0.08431317832883908,0.1097888470662821,0.09257332187986618
700,39.379,39.29,-1.48,0.19327115557869554,0.3120487087048877,0.0718947369787324,0.08380027764518969,0.10918063186382064,0.09229946464887817
701,39.462,39.34,-1.57,0.19132899512942259,0.3093527439917105,0.07060681000423756,0.08329172827335912,0.1085443338344624,0.09210803124962784
702,39.487,39.4,-1.69,0.1893664605012022,0.3066492710323241,0.06932027948588154,0.08278672941906841,0.10788020636823496,0.09199800196176437
703,39.565,39.45,-1.57,0.1873845668463943,0.3039373908160534,0.06803559138560386,0.08228448721133803,0.10718852303291436,0.09196831250449143
704,39.605,39.51,-1.5,0.18538433038689986,0.3012162161280392,0.0667531923812447,0.0817842162452268,0.1064695774482589,0.0920178554910189
705,39.667,39.56,-1.54,0.18336676762381043,0.29848487435211035,0.06547352938326201,0.0812851410969118,0.10572368313887529,0.09214548191030819
706,39.75,39.62,-1.62,0.1813328945629117,0.2957425102146317,0.06419704905163005,0.08078649780816442,0.10495117336577951,0.09235000263422243
707,39.771,39.67,-1.4,0.1792837259573197,0.2929882884642912,0.06292419731406357,0.08028753533733397,0.10415240093676427,0.0926301899481695
708,39.812,39.73,-1.51,0.17722027456849002,0.2902213964830167,0.0616554188866729,0.07978751697401626,0.1033277379957456,0.09298477910327106
709,39.874,39.78,-1.7,0.17514355044680288,0.287441046823411,0.06039115679812219,0.07928572171463295,0.10247757579131898,0.09341246988805105
710,39.935,39.84,-1.41,0.17305456023287805,0.28464647966832834,0.059131851918348584,0.07878144559618644,0.10160232442480623,0.09391192821760352
711,39.977,39.89,-1.48,0.17095430648071874,0.2818369652084806,0.05787794249291991,0.07827400298547549,0.10070241257811707,0.09448178773818212
712,40.039,39.95,-1.6,0.16884378700369124,0.2790118059343304,0.05662986368412734,0.07776272782111136,0.09977828722177468,0.09512065144518092
713,40.102,40.0,-1.53,0.16672399424419107,0.2761703388390947,0.05538804711987,0.07724697480584557,0.09883041330348669,0.09582709331250004
714,40.184,40.06,-1.45,0.16459591466768778,0.2733119375302557,0.054152920451315936,0.07672612054694128,0.09785927341768957,0.09659965993124363
715,40.204,40.11,-1.52,0.16246052818174178,0.27043601424733044,0.05292490692026716,0.07619956464246651,0.09686536745653918,0.09743687215563743
716,40.287,40.17,-1.63,0.16031880758052,0.2675420217838855,0.05170442493710223,0.07566673071148082,0.0958492122428552,0.09833722675403242
717,40.307,40.22,-1.39,0.1581717180152651,0.2646294553120397,0.05049188767010332,0.07512706736620303,0.09481134114556576,0.09929919806284672
718,40.389,40.28,-1.52,0.1560202164911222,0.26169785410787627,0.04928770264691424,0.07458004912436154,0.09375230367824267,0.10032123964127836
719,40.429,40.33,-1.72,0.1538652513906951,0.25874680317622145,0.04809227136882814,0.07402517726002462,0.09267266508135695,0.10140178592462576
720,40.511,40.39,-1.45,0.15170776202468833,0.25577593477321947,0.04690598893856958,0.07346198059131105,0.09157300588892066,0.10253925387407124
721,40.553,40.44,-1.5,0.14954867820998685,0.2527849298250785,0.045729243702232525,0.07289001620347513,0.09045392148021324,0.10373204462081653
722,40.595,40.5,-1.63,0.14738891987550115,0.24977351924139007,0.044562416906027996,0.07230887010600742,0.08931602161730855,0.10497854510253903
723,40.657,40.55,-1.61,0.1452293966960136,0.24674148512167118,0.04340588236841606,0.07171815782273237,0.08815992996914192,0.10627712969021703
724,40.759,40.61,-1.55,0.14307100775415296,0.24368866185411564,0.04226000616806574,0.07111752491437515,0.08698628362289679,0.10762616180337078
725,40.779,40.66,-1.65,0.14091464123054334,0.24061493710575263,0.04112514634796873,0.07050664743350926,0.08579573258352428,0.10902399551174728
726,40.802,40.72,-1.74,0.13876117412209002,0.23752025270337307,0.04000165263594452,0.0698852323120843,0.08458893926222388,0.11046897712149885
727,40.862,40.77,-1.51,0.13661147198825396,0.23440460540482014,0.03888986618170199,0.06925301768192069,0.08336657795471847,0.1119594467439392
728,40.924,40.83,-1.65,0.13446638872506023,0.23126804756049055,0.037790119310571864,0.06860977312868177,0.08212933431016715,0.11349373984497399
729,40.986,40.88,-1.84,0.13232676636649784,0.22811068766516446,0.03670273529398771,0.06795529987993768,0.08087790479157345,0.11507018877330819
730,41.067,40.94,-1.61,0.13019343491290422,0.22493269080061104,0.03562802813677488,0.06728943092805371,0.07961299612857231,0.11668712426552648
731,41.088,40.99,-1.68,0.1280672121859002,0.22173427896973943,0.03456630238132828,0.0666120310887307,0.07833532476350329,0.11834287692614809
732,41.128,41.05,-1.81,0.12594890370941625,0.2185157313234135,0.03351785292878997,0.0659229969961124,0.07704561629168187,0.12003577868084427
733,41.19,41.1,-1.81,0.12383930261627404,0.2152773842815399,0.032482964877310075,0.06522225703556066,0.07574460489678347,0.12176416420112555
734,41.251,41.16,-1.75,0.12173918957969126,0.2120196315505429,0.0314619133774037,0.06450977121544658,0.07443303278226289,0.12352637229887137
735,41.313,41.21,-1.89,0.11964933276903157,0.20874292403960135,0.030454963504352256,0.06378553097948968,0.07311164959973782,0.12532074728912518
736,41.394,41.27,-2.02,0.11757048782909299,0.2054477696780779,0.029462370147540367,0.06304955896128313,0.07178121187525016,0.12714564031965983
737,41.414,41.32,-1.78,0.11550339788218568,0.20213473313658994,0.02848437791655366,0.062301908682734886,0.07044248243429606,0.12899941066591963
738,41.475,41.38,-1.93,0.1134487935522111,0.19880443545412513,0.02752122106380208,0.061542664198225794,0.06909622982648515,0.13088042699004077
739,41.537,41.43,-2.12,0.11140739300992011,0.19545755357351305,0.026573123423380644,0.06077193968635368,0.06774322775065875,0.13278706856274688
740,41.578,41.49,-1.93,0.10937990203850326,0.1920948197874756,0.025640298365836988,0.059989878991223995,0.06638425448127441,0.134717726446978
741,41.66,41.54,-1.97,0.1073670141186586,0.18871702109743793,0.024722948768510184,0.05919665511532661,0.0650200922968533,0.13667080464215253
742,41.681,41.6,-2.09,0.10536941053225057,0.1853249984873878,0.02382126700111529,0.05839246966610538,0.06365152691126282,0.13864472118805035
743,41.763,41.65,-2.11,0.1033877604835701,0.1819196461154714,0.022935434926220247,0.057577552258465864,0.06227934690858374,0.14063790922741948
744,41.825,41.71,-2.04,0.1014227212370781,0.17850191042656374,0.02206562391420347,0.05675215987564974,0.060904343182298315,0.1426488180264793
745,41.866,41.76,-2.12,0.09947493827043653,0.17507278918944105,0.021211994872238547,0.05591657619101286,0.05952730837952652,0.14467591395256402
746,41.908,41.82,-2.28,0.09754504544159034,0.17163333046238705,0.02037469828682407,0.05507111085327948,0.058149036351014205,0.14671768140826202
747,41.97,41.87,-2.05,0.0956336651686223,0.16818463149120028,0.019553874279337767,0.05421609873787111,0.0567703216075496,0.14877262372151848
748,42.011,41.93,-2.21,0.09374140862106764,0.16472783754363524,0.01874965267406638,0.05335189916691985,0.05539195878346213,0.15083926399123895
749,42.136,41.98,-2.44,0.0918688759213484,0.16126414068432995,0.01796215307814887,0.05247889510056174,0.05401474210782914,0.15291614588798963
750,42.157,42.04,-2.25,0.0900166563549731,0.1577947784942913,0.01719148497287116,0.05159749230210386,0.052639464883987096,0.15500183440945067
751,42.197,42.09,-2.28,0.08818532858816656,0.15432103273900385,0.016437747815780588,0.05070811847964245,0.05126691897790176,0.15709491659036867
752,42.238,42.15,-2.4,0.0863754608916075,0.15084422798926472,0.015701031153117082,0.04981122240669973,0.049897894315888494,0.1591940021669148
753,42.3,42.2,-2.43,0.0845876113688993,0.1473657301991227,0.014981414742034864,0.04890727302451785,0.04853317839210736,0.1612977241955408
754,42.36,42.26,-2.33,0.08282232818832469,0.14388694524568393,0.014278968682027493,0.04799675852877202,0.04717355578621529,0.16340473962654992
755,42.422,42.31,-2.44,0.08108014981642059,0.1404093174357352,0.013593753554935192,0.04708018544351359,0.04581980769152739,0.1655137298327044
756,42.503,42.37,-2.58,0.07936160525195252,0.1369343279840554,0.012925820572907977,0.04615807768509176,0.04447271145400525,0.16762340109333715
757,42.524,42.42,-2.32,0.07766721425893051,0.1334634934680558,0.012275211733705745,0.045230975618686976,0.043133040122352334,0.16973248503459726
758,42.565,42.48,-2.48,0.0759974875973699,0.12999836426310846,0.011641959982730257,0.0442994351099381,0.0418015620094632,0.17183973902661567
759,42.628,42.53,-2.67,0.07435292725053365,0.12654052296270346,0.011026089381195227,0.043364026574005586,0.04047904026543917,0.17394394653852957
760,42.689,42.59,-2.52,0.07273402664739421,0.12309158278752572,0.01042761527984597,0.04242533402432788,0.03916623246235807,0.17604391745241355
761,42.73,42.64,-2.55,0.07114127087906336,0.11965318598751042,0.009846544497667736,0.04148395412325645,0.0378638901909543,0.1781384883372597
762,42.874,42.7,-2.64,0.06957513690796127,0.11622700224085555,0.009282875505058534,0.040540495236670145,0.036572758669313574,0.18022652268428183
763,42.894,42.75,-2.67,0.06803609376849147,0.1128147270539081,0.00873659861093512,0.03959557649464533,0.035293576363622944,0.18230691110496725
764,42.914,42.81,-2.54,0.06652460275797507,0.10941808016579899,0.00820769615319283,0.03864982686029416,0.03402707462096866,0.18437857149339798
765,42.956,42.86,-2.64,0.06504111761662562,0.10603880396154376,0.007696142691914389,0.037703884208866216,0.03277397731414103,0.18644044915441188
766,42.999,42.92,-2.76,0.06358608469540705,0.10267866189705284,0.007201905204726899,0.03675839441910559,0.03153500049837567,0.1884915168992356
767,43.059,42.97,-2.49,0.0621599431106853,0.09933943693918958,0.006724943283727953,0.03581401047869766,0.03031085207994075,0.19053077511027466
768,43.12,43.03,-2.62,0.060763124884664343,0.09602293002367858,0.006265209333436291,0.03487139160545757,0.029102231496467894,0.19255725177678187
769,43.225,43.08,-2.8,0.059396055070678334,0.09273095853337744,0.005822648769244892,0.03393120238576522,0.02790982940891235,0.19457000250316728
770,43.245,43.14,-2.64,0.05805915186249635,0.08946535479924847,0.0053972002158606995,0.03299411193167443,0.026734327405025873,0.1965681104917379
771,43.286,43.19,-2.66,0.056752826686912276,0.08622796462618612,0.004988795705246324,0.03206079305804582,0.02557639771422209,0.19855068650166408
772,43.368,43.25,-2.75,0.0554774842790209,0.08302064584559714,0.004597360873631509,0.03113192148091064,0.02443670293369028,0.20051686878603764
773,43.429,43.3,-2.79,0.054233522739655496,0.0798452668964465,0.004222815157194092,0.030208175038129257,0.023315895765575714,0.20246582300899096
774,43.45,43.36,-2.64,0.05302133357449552,0.07670370543638023,0.0038650719860169225,0.029290232933289254,0.022214618765015428,0.20439674214490133
775,43.511,43.41,-2.75,0.051841301714398096,0.07359784698437517,0.003524038975941153,0.028378775003635483,0.021133504098797322,0.20630884636170277
776,43.615,43.47,-2.86,0.05069380551656682,0.07052958359611525,0.00319961811795428,0.02747448101264229,0.020073173314386912,0.20820138289029722
777,43.634,43.52,-2.58,0.04957921674622251,0.06750081257304712,0.0028917059647516844,0.026578029967680748,0.01903423711905089,0.21007362588201006
778,43.695,43.58,-2.72,0.048497900538490006,0.06451343520584604,0.002600193814097895,0.025690099463116404,0.018017295168798658,0.21192487625596707
779,43.736,43.63,-2.88,0.04745021534024039,0.06156935555293947,0.0023249678885859013,0.024811365049143344,0.017022935866859414,0.21375446153822114
780,43.799,43.69,-2.72,0.04643651283163703,0.05867047925483575,0.0020659095113575955,0.02394249962674668,0.016051736171416725,0.21556173569439338
781,43.86,43.74,-2.73,0.04545713782719084,0.05581871238507179,0.0018228952773526774,0.02308417286927612,0.015104261412330613,0.21734607895752137
782,43.881,43.8,-2.79,0.044512428156252885,0.053015960338431645,0.0015957972197048972,0.02223705067109354,0.01418106511656373,0.2191068976527885
783,43.962,43.85,-2.85,0.043602714523005834,0.05026412675683236,0.0013844829709444195,0.021401794623678354,0.013282688842006196,0.2208436240208314
784,44.003,43.91,-2.7,0.04272832034614016,0.047565112493019965,0.0011888159186782472,0.020579061519495054,0.012409662019384848,0.22255571604131116
785,44.063,43.96,-2.83,0.041889561578540395,0.044920814611914286,0.0010086553554353886,0.01976950288382282,0.011562501801940557,0.22424265725835804
786,44.125,44.02,-2.96,0.04108674650743725,0.0423331254291035,0.0008438566223746034,0.018973764534628394,0.01074171292254986,0.22590395660940968
787,44.186,44.07,-2.66,0.040320175535571136,0.039803931585698574,0.0006942712465454,0.01819248617047411,0.009947787557955085,0.2275391482588606
788,44.228,44.13,-2.79,0.03959014094396686,0.03733511315851716,0.0005597470713836883,0.017426300986378433,0.009181205199749038,0.2291477914378366
789,44.269,44.18,-2.91,0.03889692663693339,0.03492854280445804,0.0004401283801137335,0.016675835317509463,0.008442432531745599,0.23072947029133026
790,44.332,44.24,-2.77,0.03824080786989434,0.032586084937982825,0.00033525601172215756,0.015941708310613024,0.007731923313366559,0.23228379373383157
791,44.394,44.29,-2.78,0.037622050960683606,0.030309594940673656,0.00024496746920808353,0.015224531623074819,0.00705011826869351,0.23381039531445297
792,44.436,44.35,-2.82,0.03704091298502347,0.028100918401732757,0.00016909701990374662,0.014524909149394295,0.0063974449808389365,0.23530893309244763
793,44.518,44.4,-2.86,0.03649764145698377,0.025961890388139664,0.0001074757877765618,0.013843436774658886,0.005774317791287698,0.23677908952397284
794,44.559,44.46,-2.69,0.03599247399529565,0.023894334743081242,5.993183775558708e-05,0.01318070215439711,0.005181137703866303,0.238220571360892
795,44.601,44.51,-2.82,0.035525637976491,0.021900063411092914,2.6290252283706737e-05,0.012537284519958943,0.004618292293013863,0.2396331095623064
796,44.725,44.57,-3.0,0.035097350175949796,0.019980875788099896,6.3732004329575836e-06,0.011913754508359778,0.0040861556160433875,0.241016459219381
797,44.745,44.62,-2.7,0.034707816398036176,0.018138558094281294,0.0,0.011310674015390562,0.0035850881290948465,0.24237039949388267
798,44.766,44.68,-2.82,0.034357231096584284,0.016374882767422008,6.987173041024612e-06,0.010728596070712623,0.0031154366064846937,0.2436947335707296
799,44.827,44.73,-2.94,0.034045776987024344,0.014691607874319786,2.7148495323928295e-05,0.010168064733643484,0.002677534063141389,0.24498928862478656
800,44.869,44.79,-2.8,0.0337736246514065,0.013090476537986027,6.0295040154285534e-05,0.00962961500843735,0.0022716996798092994,0.24625391580207084
801,44.929,44.84,-2.76,0.033540932137555254,0.011573216378624443,0.00010623521701618913,0.009113772777983012,0.0018982387307106686,0.2474884902153998
802,44.991,44.9,-2.81,0.03334784455361571,0.010141538966451737,0.00016477480548647883,0.008621054754856864,0.0015574425133641826,0.2486929109543629
803,45.073,44.95,-2.88,0.03319449365929327,0.008797139284430346,0.00023571698489876822,0.008151968448606748,0.0012495882802683286,0.24986710110938665
804,45.094,45.01,-2.69,0.03308099745511817,0.0075416951990083265,0.00031886236024242286,0.00770701214807966,0.0009749391721834813,0.2510110078095341
805,45.156,45.06,-2.81,0.03300745977111578,0.006376866936932929,0.0004140089848075042,0.007286674917503868,0.0007337441527819825,0.25212460227355055
806,45.219,45.12,-2.97,0.03297396985633429,0.005304296566058494,0.0005209523801335387,0.006891436604891579,0.000526237944460124,0.2532078798735571
807,45.26,45.17,-2.67,0.03298060197076585,0.004325607477854384,0.0006394855538799889,0.006521767861173903,0.0003526409651248783,0.2542608602107034
808,45.321,45.23,-2.79,0.033027414981292746,0.0034424038690400896,0.0007693990163210884,0.006178130168322872,0.00021315926578418693,0.2552835872020115
809,45.363,45.28,-2.9,0.03311445196335896,0.0026562702195670157,0.0009104807962457724,0.00586097587461226,0.00010798446877198907,0.25627612917759907
810,45.443,45.34,-2.78,0.03324173981007963,0.0019687707641616215,0.0010625164570819488,0.005570748235180735,3.72937064514538e-05,0.25723857898740266
811,45.505,45.39,-2.74,0.033409288850500665,0.0013814489546903328,0.001225289114088951,0.005307881456093757,1.2495602627522713e-06,0.2581710541163845
812,45.566,45.45,-2.77,0.03361709247874488,0.0008958269105283099,0.001398579453510039,0.005072800740039226,0.0,0.2590736968070655
813,45.627,45.5,-2.85,0.0338651267957869,0.0005134048540110828,0.0015821657546171953,0.004865922331679902,3.367832321779847e-05,0.2599466741881187
814,45.647,45.56,-2.61,0.03415335026556427,0.0002356605280530725,0.0017758239155862738,0.004687653560608784,0.00010240309469897643,0.26079017840766205
815,45.709,45.61,-2.71,0.03448170338709304,6.404859303489962e-05,0.0019793274841365793,0.0045383928797967776,0.00020627808595794975,0.26160442676978224
816,45.833,45.67,-2.88,0.03485010838423598,0.0,0.002192447693854838,0.0044185298973753295,0.00034539221479998696,0.2623896618727397
817,45.874,45.72,-2.59,0.03525846891477619,4.4921337060420426e-05,0.0024149535071013683,0.004328445399579919,0.0005198194850063045,0.2631461517472274
818,45.894,45.78,-2.68,0.03570666980049246,0.00020019414565326243,0.002646611665383562,0.004268511362685921,0.0007296189262601912,0.26387418999299883
819,45.935,45.83,-2.81,0.036194576779970074,0.0004671742030535669,0.0028871867480550423,0.0042390909518350926,0.0009748345344631167,0.26457409591216247
820,45.997,45.89,-2.74,0.036722036285858975,0.0008471907675327619,0.0031364412401317975,0.004240538504857602,0.001255495212621966,0.265246214637423
821,46.059,45.94,-2.67,0.03728887524823456,0.0013415457827036575,0.0033941356099370296,0.004273199499448497,0.001571614712521831,0.2658909172534833
822,46.081,46.0,-2.72,0.037894900925671174,0.0019515130377107319,0.003660028397237961,0.004337410502219681,0.0019231915774229767,0.2665086009097643
823,46.183,46.05,-2.76,0.03853990076557957,0.002678337280022359,0.00393387631248562,0.004433499098240259,0.002310209086025041,0.26709968892258945
824,46.204,46.11,-2.53,0.03922364229526785,0.003523233277752892,0.004215434347680445,0.004561783799799262,0.0027326351979607187,0.2676646308649608
825,46.244,46.16,-2.65,0.03994587304507421,0.0044873848286412065,0.004504455899274481,0.0047225739332726665,0.003190422501119293,0.26820390264198735
826,46.307,46.22,-2.84,0.040706320504794176,0.005571943713015696,0.0048006929034052825,0.0049161695031333,0.0036835081611526024,0.2687180065499455
827,46.368,46.27,-2.59,0.04150469211449454,0.006778028588324891,0.005103895983656759,0.005142861032306152,0.004211813873575407,0.26920747131686246
828,46.408,46.33,-2.65,0.042340675290688794,0.008106723823072457,0.005413814611479346,0.005402929378211732,0.004775245818920274,0.26967285212245923
829,46.471,46.38,-2.78,0.04321393748871281,0.00955907826835411,0.005730197279345655,0.005696645523996508,0.005373694621424802,0.27011473059531155
830,46.534,46.44,-2.75,0.04412412630193705,0.011136103965787162,0.006052791686615693,0.006024270344709186,0.006007035311733763,0.27053371478513044
831,46.596,46.49,-2.67,0.045070869598226676,0.012838774791297369,0.006381344937958363,0.006386054348488953,0.006675127294110739,0.2709304391080435
832,46.658,46.55,-2.75,0.04605377569388193,0.014668025034719923,0.0067156037540707005,0.0067822373930352935,0.007377814318658095,0.2713055642627215
833,46.7,46.6,-2.86,0.04707243356514784,0.01662474791550116,0.007055314694355394,0.007213048377710911,0.008114924459038827,0.27165977711520817
834,46.781,46.66,-2.63,0.048126413097237676,0.01870979403507766,0.007400224391148006,0.0076787049116532665,0.008886270096186354,0.27199379055034284
835,46.801,46.71,-2.77,0.04921526537068436,0.020923969766727706,0.007750079795036707,0.008179412958247275,0.009691647908488437,0.2723083432877029
836,46.905,46.77,-2.98,0.05033852298471662,0.02326803558386864,0.00810462843078284,0.008715366456287147,0.010530838868927604,0.2726041996600393
837,46.925,46.82,-2.77,0.05149570041725332,0.025742704327959904,0.008463618663328364,0.009286746918163677,0.011403608249657027,0.2728821493522371
838,46.966,46.88,-2.82,0.05268629442103818,0.02834863941734787,0.00882679997338383,0.009893723005432809,0.012309705634476434,0.2731430070989076
839,47.027,46.93,-2.94,0.05390978445536684,0.03108645299859415,0.009193923242092639,0.010536450082182807,0.01324886493963322,0.2733876123388809
840,47.069,46.99,-2.94,0.0551656331527264,0.03395670404223801,0.0095647410442062,0.011215069746804163,0.014220804443325508,0.27361682882507243
841,47.152,47.04,-2.85,0.056453286819502936,0.03695989638547705,0.009939007949101466,0.011929709343027452,0.015225226824248608,0.2738315441883601
842,47.193,47.1,-2.94,0.0577721759697721,0.04009647672466777,0.01031648082888319,0.01268048145128329,0.016261819209492708,0.27403266945425664
843,47.275,47.15,-3.05,0.059121715891064706,0.043366832560871864,0.010696919172736012,0.01346748336155769,0.01733025323205784,0.2742211385113456
844,47.295,47.21,-2.78,0.060501307240869176,0.046771290102022425,0.01108008540661746,0.014290796529031726,0.01843018509821398,0.274397907530624
845,47.378,47.26,-2.92,0.06191033667251633,0.05031011212565511,0.011465745217324566,0.015150486013898118,0.019561255664904603,0.2745639543350397
846,47.417,47.32,-3.1,0.06334817748899121,0.05398349580650684,0.011853667879928673,0.016046599906842037,0.020723090527367635,0.27472027771863133
847,47.48,47.37,-2.89,0.06481419032313439,0.057791570513679544,0.012243626587552825,0.01697916874179394,0.02191530011713304,0.274867896714775
848,47.541,47.43,-2.92,0.06630772384264225,0.06173439558245156,0.012635398782480208,0.017948204897679038,0.023137479810543232,0.27500784981314735
849,47.603,47.48,-3.01,0.06782811547820991,0.0658119580662524,0.01302876648760329,0.01895370199100167,0.024389210047907606,0.2751411941251843
850,47.643,47.54,-3.01,0.0693746921730161,0.07002417047494999,0.0134235166371885,0.019995634261294935,0.025670056463359694,0.2752690044980375
