,Time_Host,Time_Arduino,easingdata,CH1_Oxy,CH1_Deoxy,CH2_Oxy,CH2_Deoxy,CH3_Oxy,CH3_Deoxy
0,0.039,24.63,5.26,1.0,1.0,1.0,1.0,0.8490284865972868,1.0
1,0.113,0.04,0.0,0.981985926886428,0.9818583223856207,0.9820573204498556,0.981709281225441,0.8337432292878639,0.9816949429080146
2,0.134,0.1,0.0,0.9639747752587094,0.9637251005148544,0.9641190617932182,0.963427875597419,0.8184477553449058,0.9634014169151223
3,0.178,0.15,0.0,0.9459739472703343,0.9456077405780814,0.9461925163667623,0.9451633087554885,0.8031485318475319,0.94512690640932
4,0.239,0.21,0.0,0.9279908352648284,0.9275136335887562,0.9282849644788504,0.9269230911954561,0.787852033930692,0.926878878068967
5,0.3,0.26,0.0,0.9100328145020979,0.9094501481498845,0.9104036673217278,0.908714710878188,0.7725647384155887,0.9086647735599588
6,0.348,0.32,0.0,0.8921072359292923,0.8914246232693323,0.8925558599317984,0.8905456258866614,0.7572931174562255,0.8904920022851126
7,0.407,0.37,0.0,0.8742214190113249,0.8734443612384761,0.874748744212335,0.8724232571462541,0.7420436322161726,0.8723679342002736
8,0.49,0.43,0.0,0.8563826446353988,0.8555166205879361,0.8569894820322266,0.8543549812224489,0.7268227265888658,0.8542998927108911
9,0.512,0.48,0.0,0.8385981481030983,0.8376486091333761,0.8392851884136362,0.8363481232093473,0.7116368209739936,0.8362951476620627
10,0.574,0.54,0.0,0.8208751122228254,0.8198474771236236,0.8216429248207232,0.8184099497216015,0.6964923061217844,0.8183609084343151
11,0.616,0.59,0.04,0.803220660514622,0.8021203105026363,0.8040696925608852,0.800547662001625,0.6813955370562645,0.8005043171566798
12,0.678,0.65,0.11,0.7856418505386509,0.784474124296152,0.7865724263092719,0.7827683891532059,0.6663528270878493,0.7827324420479148
13,0.74,0.7,0.02,0.7681456673578505,0.7669158561331864,0.7691579877665876,0.7650791815119734,0.6513704419249368,0.7650522708960532
14,0.781,0.76,0.04,0.7507390171444871,0.749452359911906,0.7518331594594229,0.7474870041625372,0.6364545938935219,0.747470704685784
15,0.844,0.81,0.19,0.7334287209395417,0.7320903996187837,0.7346046386915613,0.7299987306115394,0.6216114362732148,0.7299945513825153
16,0.905,0.87,0.2,0.7162215085731468,0.7148366433093286,0.7174790316539738,0.7126211366252374,0.6068470577574312,0.7126305198813361
17,0.946,0.92,0.1,0.6991240127535948,0.6976976572580537,0.7004628477005392,0.6953608942396138,0.592167477044918,0.6953852141284635
18,1.009,0.98,0.2,0.682142763331804,0.6806799002847438,0.6835624937959198,0.6782245659503533,0.577578637569216,0.678265127422165
19,1.071,1.03,0.25,0.6652841817475261,0.6637897182634784,0.666784269141472,0.6612185990893917,0.5630864023721274,0.6612766368995505
20,1.132,1.09,0.12,0.6485545756630278,0.647033338820289,0.6501343599845782,0.6443493203941182,0.548696549126726,0.6444259982150712
21,1.235,1.14,0.23,0.6319601337894443,0.6304168662247612,0.6336188346163226,0.6276229307747196,0.5344147653149133,0.627719340416013
22,1.256,1.2,0.3,0.6155069209104679,0.613946276480369,0.6172436385619904,0.6110455002845947,0.5202466435639924,0.6111626610197591
23,1.278,1.25,0.23,0.5992008731075025,0.5976274126178036,0.6010145899684198,0.5946229632982376,0.5061976771462178,0.5947618212970773
24,1.34,1.31,0.27,0.5830477931898725,0.5814659801950842,0.5849373751917399,0.5783611139005055,0.4922732556447824,0.5785225417652007
25,1.382,1.36,0.45,0.5670533463331304,0.565467543007754,0.5690175445884805,0.5622656014907282,0.47847866078923956,0.5624503978939824
26,1.444,1.42,0.43,0.551223055927987,0.5496375190120083,0.5532605085125052,0.5463419266046673,0.46481906246292093,0.5465508160279288
27,1.506,1.47,0.36,0.5355622996419059,0.533981176463138,0.5376715335197229,0.5305954369568509,0.4512995148845141,0.5308290695264436
28,1.588,1.53,0.46,0.5200763056949624,0.5185036302712175,0.5222557387820945,0.5150313237053324,0.43792495296559625,0.5152902751241694
29,1.609,1.58,0.5,0.5047701493511733,0.5032098385755229,0.5070180927120741,0.4996546179404361,0.42470018884558364,0.49993938951286965
30,1.67,1.64,0.4,0.48964874962615185,0.48810459953873897,0.4919634097982879,0.4844701873985848,0.41162990860521015,0.4847812061458904
31,1.732,1.69,0.52,0.4747168662116025,0.47319254836160485,0.47709634765292397,0.4694827334018832,0.39871866915929266,0.4698203522658448
32,1.775,1.75,0.58,0.4599790966168221,0.4584781545182753,0.4624214042709812,0.4546967880237287,0.38597089532918755,0.455061286155802
33,1.835,1.8,0.48,0.4454398735270434,0.4439657192123149,0.44794291550120147,0.44011671148036896,0.3733908770950092,0.44050829461390123
34,1.898,1.86,0.5,0.43110346237810365,0.42965937305290414,0.4336650527281809,0.42574668974799895,0.36098276702735954,0.4261654906509724
35,1.96,1.91,0.63,0.41697395914659907,0.4155630739505156,0.4195918207648298,0.41159073240468375,0.3487505778980183,0.4120368114104131
36,2.002,1.97,0.59,0.4030552883543725,0.40168060523099774,0.4057270559540418,0.3976526706960848,0.33669818046874633,0.39812601630924943
37,2.062,2.02,0.6,0.38935120128590706,0.38801557396668734,0.392074424478127,0.3839361558236442,0.3248293014570658,0.38443668539899706
38,2.146,2.08,0.7,0.3758652744169266,0.3745714095228588,0.3786374208742435,0.37044465745355537,0.31314752167761656,0.37097221794463536
39,2.187,2.13,0.75,0.3626009080522695,0.3613513623175151,0.36541936675376396,0.3571814624445348,0.3016562743574616,0.3577358312197145
40,2.209,2.19,0.63,0.34956132517088107,0.3483585027922377,0.3524234097232415,0.3441496737921034,0.29035884362350395,0.34473055951533893
41,2.311,2.24,0.75,0.3367495704755345,0.3355957205915484,0.3396525225044058,0.3313522097868079,0.2792583631599982,0.3319592533605101
42,2.351,2.3,0.83,0.32416850964466315,0.32306572394800354,0.32710950225040886,0.31879180338356106,0.26835781503396,0.31942457895107246
43,2.371,2.35,0.76,0.3118208287834544,0.3107710392700239,0.31479697005535523,0.3064710017790637,0.25766002868610444,0.30712901778428514
44,2.433,2.41,0.77,0.2997090340711299,0.2987140109292716,0.3027173706539585,0.29439216619407993,0.24716768008477366,0.29507486649583115
45,2.495,2.46,0.88,0.28783545160112567,0.28689680124420414,0.2908729723079824,0.28255747185717084,0.2368832910401716,0.28326423689587665
46,2.537,2.52,0.9,0.2762022274106952,0.27532139065625827,0.2792658668759761,0.2709689081863061,0.22680922867609044,0.27169905620059337
47,2.599,2.57,0.88,0.26481132769629295,0.26398957809493395,0.2678979700626803,0.25962827916456965,0.21694770505618746,0.26038106745536965
48,2.682,2.63,0.99,0.2536645392109384,0.2529029815278719,0.2567710218443444,0.2485372039059718,0.20730077696176627,0.24931183014574948
49,2.702,2.68,1.0,0.2427634698396234,0.24206303869183945,0.24588658706605337,0.2376971174071818,0.19787034581793883,0.23849272099196975
50,2.765,2.74,0.91,0.23210954934869107,0.23147100800037446,0.23524605620701441,0.22710927148081506,0.18865815776498907,0.2279249349228081
51,2.826,2.79,1.02,0.22170403030497662,0.22112796962369513,0.22485064630959914,0.21677473586576024,0.17966580387171036,0.21760948622431436
52,2.867,2.85,1.07,0.211547989160366,0.21103482673636284,0.2147014020677921,0.20669439950990884,0.17089472048743612,0.2075472098588761
53,2.928,2.9,0.96,0.20164232749731087,0.20119230692808246,0.2047991970705793,0.19686897202055137,0.1623461897294272,0.1977387629499568
54,2.989,2.96,0.98,0.19198777343073517,0.19160096377293584,0.1951447351957081,0.18729898527763436,0.15402134010222585,0.18818462642774586
55,3.051,3.01,1.08,0.1825848831616748,0.18226117855226517,0.18573855214916726,0.17798479520501473,0.14592114724554453,0.17888510683086556
56,3.132,3.07,0.98,0.17343404267792786,0.1731731621263442,0.17658101714568947,0.1689265836947771,0.13804643480721018,0.16984033825919562
57,3.153,3.12,0.94,0.1645354695969455,0.16433695694989495,0.1676723347255392,0.16012436067959002,0.13039787543762704,0.16105028447279546
58,3.194,3.18,1.05,0.15588921514616091,0.15575243922642326,0.15901254670279913,0.15157796634797568,0.12297599190216554,0.15251474113183272
59,3.257,3.23,1.06,0.1474951662759275,0.1474193211962666,0.1506015342403172,0.14328707349727,0.11578115830783234,0.14423333817235745
60,3.32,3.29,0.96,0.13935304790020533,0.13933715355317847,0.14243902004643325,0.13525119001895616,0.10881360144052918,0.13620554231270524
61,3.382,3.34,1.08,0.13146242526008825,0.1315053279842217,0.13452457068858634,0.12746966151097905,0.1020734022091774,0.12843065968526637
62,3.423,3.4,1.14,0.12382270640522473,0.12392307982771392,0.12685759901892404,0.1199416740115875,0.09556049719298243,0.12090783858832208
63,3.504,3.45,1.0,0.1164331447881596,0.11658949084395157,0.11943736670709443,0.11266625684920845,0.08927468028812723,0.11363607235262499
64,3.526,3.51,1.05,0.10929284196660241,0.1095034920934412,0.11226298687546982,0.10564228560283287,0.08321560445021003,0.10661420231738654
65,3.586,3.56,1.13,0.1024007504086145,0.1026638669173773,0.10533342683212281,0.09886848516739205,0.07738278352877549,0.09984092091032828
66,3.669,3.62,1.03,0.09575567639569478,0.09606925401512498,0.09864751089694161,0.09234343291860839,0.0717755941903157,0.09331477482645337
67,3.711,3.67,1.01,0.08935628301872114,0.0897181506134887,0.09220392331630681,0.08606556197182548,0.0663932779261318,0.08703416830020012
68,3.813,3.73,1.12,0.08320109326166604,0.08360891572257688,0.08600121126175883,0.08003316452934815,0.06123494314146378,0.08099736646564545
69,3.833,3.78,1.1,0.07728849316797944,0.07773977347309279,0.08003778790810279,0.07424439531083629,0.05629956732231908,0.07520249879943353
70,3.875,3.84,1.01,0.07161673508453252,0.07210881652989613,0.07431193558644197,0.06869727506128966,0.05158599927645634,0.06964756264111614
71,3.936,3.89,1.11,0.0661839409780386,0.06671400957669303,0.06882180900769864,0.06338969413114982,0.047092961445019385,0.06433042678560677
72,3.978,3.95,1.14,0.0609881058189163,0.06155319286673175,0.06356543855227462,0.0583194161230347,0.042819052281370895,0.05924883514247329
73,4.038,4.0,1.03,0.05602710102762773,0.05662408583441056,0.05854073362162115,0.0534840815996202,0.03876274869373298,0.054400410456826497
74,4.099,4.06,1.13,0.05129867797859584,0.05192429076274798,0.053745486047596124,0.048881211847207354,0.03492240854830455,0.04978265808660567
75,4.161,4.11,1.17,0.04680047155687494,0.04745129650172319,0.049177373555556056,0.04450821268958028,0.03129627322960073,0.04539296983111295
76,4.203,4.17,1.05,0.042530003762806703,0.04320248223256726,0.044833963277122614,0.04036237834688367,0.02788247025484085,0.04122862780570596
77,4.263,4.22,1.05,0.038484687359916774,0.03917512127317553,0.04071271530845327,0.03644089533443665,0.024679015939295716,0.03728680835761926
78,4.324,4.28,1.15,0.03466182956130958,0.03536638491990862,0.036810986309689014,0.03274084639661502,0.021683818109587465,0.03356458601794721
79,4.408,4.33,1.0,0.03105863574984126,0.03177334632113535,0.033126033141149806,0.02925921447110588,0.01889467886200649,0.030058937484881657
80,4.429,4.39,0.91,0.02767221322741326,0.02839298437793752,0.029655016531838312,0.025992886678938756,0.016309297362961942,0.026766745633361684
81,4.471,4.44,0.99,0.024499574988831763,0.025222187667448628,0.026395004775865028,0.022938658335749127,0.013925272688721875,0.02368480354635999
82,4.534,4.5,1.03,0.02153764351581606,0.022257758384346814,0.023342977452499195,0.020093236979766182,0.011740106701620092,0.020809818563108696
83,4.576,4.55,0.91,0.018783254586890164,0.01949641629607539,0.02049582916565461,0.01745324641206358,0.00975120695990766,0.018138416339656856
84,4.64,4.61,1.0,0.016233161099025117,0.01693480270743603,0.017850373298715673,0.015015230744687613,0.007955889658437843,0.015667144917251997
85,4.702,4.66,1.08,0.013884036897010253,0.01456948443028952,0.01540334578070396,0.012775658452378465,0.006351382597420809,0.01339247879413776
86,4.786,4.72,0.98,0.011732480606628846,0.012396957754202192,0.0131514088598829,0.010730926423716737,0.0049348281765617,0.011310822996460359
87,4.808,4.77,0.99,0.009775019467792745,0.01041365241399115,0.011091154880979306,0.008877364007658787,0.003703286411990629,0.009418517144077557
88,4.891,4.83,1.07,0.00800811316386555,0.008615935550240048,0.009219110062276208,0.0072112370515621995,0.002653737973505382,0.007711839507161609
89,4.912,4.88,0.96,0.006428157643496041,0.0070001156589685,0.007531738268921754,0.005728751926923268,0.001783087239760829,0.006187011049583298
90,4.992,4.94,0.87,0.005031488931391442,0.0055624465267344134,0.006025444778894966,0.0044260595391435,0.0010881653691358344,0.004840199455159963
91,5.054,4.99,0.94,0.0038143869245724537,0.004299131147535876,0.004696580038149222,0.003299259317721471,0.0005657333840841513,0.00366752313294711
92,5.074,5.05,0.94,0.0027730791707653397,0.0032063256179610516,0.003541443401519802,0.0023444031833397662,0.00021248526682598397,0.0026650551978535802
93,5.135,5.1,0.83,0.0019037446256899237,0.0022801430071191673,0.0025562868560366878,0.0015574994883960443,2.505106426044459e-05,0.0018288274229681437
94,5.178,5.16,0.91,0.0012025173860878181,0.0015166571979822153,0.001737318723338362,0.0009345169276209405,0.0,0.0011548341600992756
95,5.261,5.21,0.96,0.0006654903954164215,0.0009119066968740939,0.0010807073379601544,0.0004713884155336214,0.000133843591467068,0.0006390362251475355
96,5.324,5.27,0.85,0.00028871911922562096,0.0004618984079589043,0.0005825846983768545,0.0001640149276049358,0.00042303877004786514,0.00027736474504904074
97,5.344,5.32,0.85,6.822518733074923e-05,0.00016261136970173684,0.00023905008779081104,8.269302135418111e-06,0.0008639910023651801,6.572496315116888e-05
98,5.407,5.38,0.93,0.0,1.00004503999412e-05,4.6173661772459036e-05,0.0,0.0014530574108087523,0.0
99,5.468,5.43,0.82,8.000829549338418e-05,0.0,0.0,0.0001350348195356233,0.0021865498915347482,7.605456663731145e-05
100,5.51,5.49,0.74,0.0003041916764104645,0.00012852745552405053,9.6551619491787e-05,0.0004091845639430261,0.0030607382282022795,0.000289738627619948
101,5.573,5.54,0.82,0.000668472092417632,0.00039148689753366,0.0003318324468554737,0.0008182466586494269,0.004071853199758488,0.0006368910110898355
102,5.614,5.6,0.8,0.0011687552770334889,0.0007847725551566097,0.000701831247187185,0.0013580087161469327,0.0052160896806109774,0.0011133429633364003
103,5.678,5.65,0.67,0.0018009341362446335,0.001304272257301024,0.001202525007339117,0.002024252045893833,0.006489609731534448,0.001714921645408916
104,5.741,5.71,0.76,0.002560892086797017,0.001945870827788002,0.001829882271342485,0.0028127551069536865,0.007888545679663617,0.0024374535694549424
105,5.805,5.76,0.79,0.003444506342085066,0.002705453422243793,0.002579866425845629,0.003719296901148483,0.009409003185940037,0.0032767679725766246
106,5.867,5.82,0.64,0.004447651143670878,0.0035789088046965963,0.0034484389335157728,0.004739660304615333,0.011047064298399327,0.004228700126116383
107,5.909,5.87,0.68,0.005566200936619393,0.004562132561912505,0.00443156251244207,0.005869635335782825,0.012798790489706146,0.005289094578403322
108,5.992,5.93,0.76,0.006796033487019662,0.005651030253585274,0.00552520425967679,0.007105022357917712,0.014660225677370783,0.006453808329112329
109,6.013,5.98,0.66,0.008133032940240365,0.006841520496577787,0.006725338717162088,0.008441635214520078,0.01662739922510248,0.00771871393350705
110,6.056,6.04,0.63,0.009573092818604197,0.008129537981510532,0.008027950878383913,0.009875304295969,0.0186963289237689,0.00907970253495533
111,6.139,6.09,0.75,0.011112118957261847,0.009511036420098254,0.009429039134154073,0.011401879535941715,0.020863023950450647,0.010532686824216613
112,6.18,6.15,0.71,0.012746032377134953,0.01098199142173729,0.0109246181559711,0.013017233336235633,0.023123487804104795,0.01207360392410574
113,6.222,6.2,0.6,0.014470772093889212,0.012538403297936361,0.012510721715461704,0.014717263418713567,0.02547372121637577,0.01369841819823993
114,6.369,6.26,0.69,0.016282297861991847,0.014176299793269018,0.014183405438457355,0.0164978956031854,0.02790972503612152,0.015403123982674422
115,6.389,6.31,0.71,0.018176592853008475,0.01589173874160959,0.015938749492318827,0.018355086510142723,0.0304275030862563,0.01718374823932946
116,6.41,6.37,0.56,0.020149666267401684,0.017680810646498953,0.017772861205192256,0.020284826187371825,0.03302306499153134,0.01903635313020866
117,6.452,6.42,0.62,0.02219755587919029,0.01953964118457865,0.01968187761596264,0.02228314065957678,0.035692428975881985,0.020957038511508406
118,6.513,6.48,0.71,0.024316330512904976,0.02146439363113451,0.02166196795377354,0.024346094400244083,0.0384316246279723,0.02294194434681751
119,6.553,6.53,0.62,0.02650209245232876,0.02345127120690296,0.02370933604608732,0.026469792725080238,0.0412366956335627,0.02498725303870682
120,6.616,6.59,0.64,0.028750979780532235,0.025496519345414307,0.025820222654331218,0.028650384106469848,0.044103702473319274,0.027089191678108665
121,6.677,6.64,0.74,0.031059168650718776,0.027596427880267796,0.027990907736205675,0.03088406240852648,0.04702872508469505,0.0292440342109806
122,6.739,6.7,0.66,0.03342287548741483,0.029747333151839975,0.03021771263376669,0.033167069042412574,0.05000786548654282,0.031448103521834324
123,6.78,6.75,0.54,0.035838359117582375,0.031945620033018124,0.03249700218645404,0.03549569504167448,0.053037250365150765,0.03369777343379183
124,6.842,6.81,0.61,0.038301922831289185,0.03418772387362882,0.03482518676832187,0.037866283057386894,0.05611303362041579,0.03598947062490812
125,6.903,6.86,0.64,0.04080991637165085,0.036470132363301454,0.037198724248833345,0.040275229272941686,0.05923139887086885,0.038319676460578926
126,6.965,6.92,0.52,0.04335873785384443,0.03878938731257482,0.039614121876697515,0.04271898523835758,0.06238856191622881,0.040684928741936084
127,7.005,6.97,0.65,0.04594483561306191,0.04114208635213184,0.04206793808633291,0.04519405962404203,0.06558077315610478,0.04308182337022153
128,7.086,7.03,0.74,0.04856470998132066,0.043524884550132786,0.04455678422664376,0.04769701989400281,0.06880431996342484,0.04550701592721818
129,7.108,7.08,0.65,0.05121491499308651,0.0459344959477086,0.04707732621189448,0.05022449389858464,0.07205552901115157,0.047957223171898475
130,7.172,7.14,0.69,0.053892060019693815,0.048367695012769975,0.04962628609455588,0.052773171386899596,0.07533076855085738,0.050429224453530916
131,7.212,7.19,0.82,0.056592811332573906,0.05082131801238187,0.05220044356008117,0.0553398054392178,0.07862645064177527,0.05291986304155915
132,7.274,7.25,0.77,0.059313893595340145,0.05329226430403927,0.05479663734366909,0.05792121381966376,0.0819390333289935,0.05542604737263777
133,7.336,7.3,0.69,0.06205209128481953,0.055777497546253586,0.05741176656916826,0.06051428024961567,0.08526502276950919,0.057944752215275876
134,7.399,7.36,0.8,0.06480425004116258,0.058274046828923357,0.060042792010354666,0.06311595560224013,0.08860097530490177,0.06047301975260238
135,7.461,7.41,0.82,0.06756727794721366,0.06077900772401699,0.06268673727488429,0.06572325901862053,0.09194349947942117,0.06300796058382828
136,7.503,7.47,0.67,0.07033814673737161,0.06328954325714468,0.06534068991128643,0.06833327894596224,0.09528925800229558,0.06554675464504603
137,7.545,7.52,0.79,0.0731138929361996,0.06580288480065292,0.0680018024394136,0.0709431740983961,0.09863496965305255,0.06808665205007351
138,7.608,7.58,0.86,0.07589161892706166,0.06831633288893736,0.07066729330480855,0.07355017434095357,0.1019774111286327,0.07062497385212044
139,7.709,7.63,0.78,0.07866849395108032,0.07082725795673821,0.07333444775749716,0.07615158149734845,0.10531341883105422,0.07315911272712346
140,7.73,7.69,0.86,0.08144175503672577,0.07333310100125276,0.07600061865576442,0.07874477008227233,0.10863989059436795,0.07568653357966616
141,7.832,7.74,1.02,0.08420870786036887,0.07583137416897229,0.07866322719553459,0.08132718795898411,0.11195378734964925,0.07820477407246378
142,7.854,7.8,0.97,0.08696672753817289,0.07831966126821137,0.08131976356607695,0.08389635692302098,0.11525213472680389,0.08071144508045143
143,7.893,7.85,0.98,0.08971325934975267,0.08079561820834856,0.08396778753287014,0.0864498732128772,0.11853202459202124,0.08320423107056907
144,7.955,7.91,1.14,0.09244581939409091,0.08325697336683537,0.08660492894855348,0.08898540794850028,0.12179061651978923,0.08568089040838227
145,8.019,7.96,1.17,0.0951619951782702,0.08570152788506069,0.08922888819296843,0.09150070749845167,0.12502513919848,0.08813925559271953
146,8.06,8.02,1.05,0.09785944613964757,0.08812715589418375,0.09183743654334818,0.09399359377658312,0.12823289176860705,0.09057723341954571
147,8.143,8.07,1.17,0.10053590410214953,0.09053180467208156,0.09442841647575213,0.09646196446909848,0.13141124509294233,0.09299280507633244
148,8.204,8.13,1.25,0.10318917366740603,0.09291349473259826,0.0969997418988841,0.09890379319290685,0.13455764295776432,0.09538402616822697
149,8.225,8.18,1.13,0.10581713254147833,0.09527031984832897,0.09954939832147994,0.10131712958622048,0.1376696032045671,0.09774902667736542
150,8.266,8.24,1.23,0.10841773179796907,0.0976004470082179,0.10207544295448326,0.10370009933241545,0.14074471879159725,0.10008601085672165
151,8.329,8.29,1.38,0.11098899607833652,0.09990211631129568,0.10457600474925917,0.10605090411824389,0.1437806587846229,0.10239325705992669
152,8.371,8.35,1.32,0.11352902373027066,0.10217364079792438,0.10704928437312669,0.1083678215275548,0.1467751692763836,0.1046691175085329
153,8.432,8.4,1.37,0.11603598688500555,0.10441340621996333,0.10949355412349993,0.11064920487174743,0.14972607423422754,0.10691201799823377
154,8.493,8.46,1.56,0.11850813147444665,0.10661987075131464,0.11190715778190428,0.11289348295824954,0.1526312762755273,0.10912045754557749
155,8.555,8.51,1.58,0.12094377718900809,0.10879156464034116,0.11428851040911418,0.1150991597983587,0.15548875737057602,0.1112930079767336
156,8.597,8.57,1.52,0.12334131737709289,0.11092708980566933,0.11663609808267393,0.11726481425579925,0.1582965794727897,0.11342831345988819
157,8.659,8.62,1.63,0.12569921888719435,0.11302511937690105,0.11894847757811243,0.11938909963734044,0.16105288507618656,0.11552508998285468
158,8.699,8.68,1.67,0.12801602185365826,0.11508439718176523,0.12122427599524493,0.12147074322680601,0.16375589770026006,0.11758212477749998
159,8.781,8.73,1.51,0.13029033942720902,0.11710373718124677,0.1234621903310434,0.12350854576380248,0.16640392230248527,0.11959827569260251
160,8.842,8.79,1.65,0.13252085745138506,0.11908202285424722,0.12566098700061254,0.1255013808685227,0.16899534561878443,0.12157247051678055
161,8.924,8.84,1.77,0.13470633408604032,0.12101820653336033,0.12781950130783057,0.12744819441404234,0.17152863643233462,0.12350370625315257
162,8.944,8.9,1.72,0.1368455993790491,0.12291130869338136,0.12993663686721563,0.12934800384759756,0.17400234577114182,0.1253910483474133
163,9.005,8.95,1.77,0.13893755478730682,0.1247604171942112,0.13201136497854635,0.13119989746240832,0.17641510703485666,0.1272336298710262
164,9.047,9.01,1.93,0.14098117264806426,0.12656468647985572,0.13404272395570135,0.1330030336216878,0.17876563605139134,0.12903065066124222
165,9.089,9.06,1.87,0.14297549560160344,0.12832333673524443,0.1360298184111285,0.13475663993652517,0.18105273106401804,0.13078137641965368
166,9.154,9.12,1.74,0.14491963596626878,0.13003565300259828,0.13797181849733337,0.13646001239934155,0.18327527264975463,0.13248513777098833
167,9.194,9.17,1.85,0.1468127750669021,0.13170098425906607,0.13986795910678815,0.13811251447460032,0.18543222356996575,0.13414132928384184
168,9.299,9.23,1.87,0.14865416251779623,0.1333187424573324,0.1417175390317097,0.13971357614842303,0.1875226285541978,0.13574940845504435
169,9.32,9.28,1.73,0.1504431154613609,0.13488840153087625,0.14351992008521652,0.14126269293873753,0.18954561401830144,0.13730889465936372
170,9.361,9.34,1.83,0.1521790177637597,0.1364094963655462,0.1452745261854182,0.1427594248675859,0.19150038771789596,0.1388193680662606
171,9.422,9.39,1.91,0.15386131916881482,0.13788162173911545,0.14698084240401288,0.1442033953972491,0.1933862383382248,0.14028046852542364
172,9.485,9.45,1.84,0.15548953441151045,0.1393044312304851,0.1486384139809717,0.14559429033188548,0.1952025350214559,0.14169189442281843
173,9.524,9.5,1.87,0.15706324229245058,0.1406776361002156,0.15024684530686042,0.14693185668642814,0.19694872683249445,0.1430534015089863
174,9.585,9.56,2.01,0.15858208471466195,0.1420010041440751,0.15180579887431797,0.14821590152452863,0.19862434216441505,0.14436480170131927
175,9.665,9.61,1.93,0.16004576568417364,0.1432743585212915,0.15331499420020644,0.14944629076734017,0.20022898808468237,0.14562596186202326
176,9.686,9.67,1.9,0.1614540502758523,0.14449757655917855,0.15477420671996922,0.15062294797490694,0.2017623496233976,0.1468368025534612
177,9.748,9.72,2.0,0.16280676356602178,0.14567058853577383,0.15618326665574614,0.15174585310187763,0.20322418900488332,0.1479972967725484
178,9.828,9.78,2.03,0.16410378953344965,0.14679337644209067,0.15754205785980502,0.15281504122920986,0.20461434482398694,0.1491074686658508
179,9.85,9.83,1.89,0.16534506993031908,0.14786597272554866,0.1588505166348474,0.15383060127348686,0.20593273116853236,0.15016739222702247
180,9.91,9.89,2.0,0.1665306031248033,0.14888845901612743,0.16010863053273008,0.1547926746754439,0.20717933668938657,0.15117718997820348
181,9.992,9.94,2.05,0.16766044291683432,0.14986096483677955,0.16131643713312788,0.1557014540692984,0.20835422361964637,0.15213703163698875
182,10.053,10.0,1.93,0.16873469732862392,0.15078366629963877,0.16247402280366433,0.1565571819344827,0.20945752674447926,0.15304713277056245
183,10.094,10.05,1.97,0.16975352737145366,0.1516567847895651,0.16358152144305188,0.1573601492313866,0.21048945232317456,0.15390775343857815
184,10.177,10.11,2.09,0.17071714579021732,0.1524805856365687,0.1646391132088176,0.15811069402272096,0.2114502769649853,0.1547191968263426
185,10.198,10.16,1.99,0.1716258157871871,0.1532553767786429,0.1656470232312426,0.1588092000820935,0.21234034646036754,0.15548180786983634
186,10.238,10.22,1.97,0.17247984972648242,0.15398150741650626,0.16660552031518297,0.159456095491346,0.2131600745692449,0.1561959718740759
187,10.299,10.27,2.1,0.1732796078207411,0.15465936666171148,0.16751491563143756,0.16005185122814727,0.2139099417679569,0.15686211312628998
188,10.402,10.33,2.09,0.17402549680151883,0.1552893821795271,0.16837556139931156,0.16059697974527534,0.21459049395658675,0.1574806935053469
189,10.422,10.38,1.96,0.17471796857495853,0.15587201882794977,0.16918784956199404,0.1610920335429613,0.21520234112839598,0.1580522110888358
190,10.485,10.44,2.06,0.1753575188642699,0.15640777729416339,0.1699522104563361,0.16153760373562503,0.2157461560031283,0.15857719875916976
191,10.525,10.49,2.11,0.17594468584054915,0.1568971927297315,0.1706691114785865,0.161934318614308,0.21622267262598435,0.1590562228100487
192,10.586,10.55,1.9,0.17648004874344994,0.15734083338578916,0.17133905574761754,0.16228284220610423,0.21663268493408938,0.15948988155458924
193,10.649,10.6,1.94,0.17696422649317797,0.15773929924948962,0.17196258076712845,0.16258387283190587,0.2169770452922789,0.15987880393640513
194,10.709,10.66,2.0,0.17739787629522025,0.1580932206829564,0.17254025708825915,0.1628381416638018,0.21725666300001834,0.16022364814489387
195,10.771,10.71,1.88,0.17778169223916152,0.15840325706598415,0.1730726869740091,0.16304641128347047,0.21747250277123503,0.16052510023595748
196,10.812,10.77,1.88,0.17811640389287162,0.15867009544371685,0.17356050306681192,0.1632094742428943,0.2176255831887834,0.16078387275935466
197,10.873,10.82,2.02,0.1784027748932877,0.15889444918051054,0.17400436706056244,0.1633281516287002,0.21771697513520327,0.16100070339384767
198,10.914,10.88,2.02,0.17864160153497322,0.15907705662115482,0.17440496837833191,0.16340329163138595,0.21774780020138768,0.16117635359126856
199,10.977,10.93,1.9,0.1788337113576194,0.1592186797605801,0.17476302285696282,0.1634357681206354,0.21771922907475927,0.16131160723059068
200,11.039,10.99,1.97,0.17897996173364966,0.1593201029231297,0.17507927143970123,0.16342647922785503,0.2176324799085692,0.16140726928305055
201,11.081,11.04,1.97,0.1790812384570994,0.15938213145242536,0.17535447887801384,0.16337634593699588,0.21748881667397063,0.16146416448932518
202,11.143,11.1,1.78,0.1791384543349678,0.15940559041280564,0.17558943244374745,0.1632863106846613,0.21728954749653967,0.1614831360497353
203,11.205,11.15,1.85,0.17915254778225637,0.15939132330327643,0.17578494065278985,0.16315733597045817,0.21703602297890076,0.16146504432841668
204,11.288,11.21,1.88,0.17912448142190296,0.15934019078488315,0.175941832001372,0.162990402978532,0.2167296345110617,0.16141076557237868
205,11.309,11.26,1.77,0.1790552406907974,0.15925306942239156,0.17606095371610475,0.1627865102112234,0.21637181256998886,0.16132119064634595
206,11.372,11.32,1.79,0.17894583245299986,0.15913085044115244,0.1761431705187449,0.16254667213579696,0.21596402500986778,0.16119722378425463
207,11.393,11.37,1.93,0.17879728362119443,0.1589744385000133,0.17618936340655003,0.16227191784520595,0.21550777534442273,0.16103978135824318
208,11.454,11.43,1.86,0.17861063978732805,0.15878475048111865,0.17620042844895215,0.1619632897338476,0.21500460102261698,0.1608497906659362
209,11.517,11.48,1.79,0.17838696386332753,0.15856271429740118,0.17617727560118832,0.1616218421892197,0.21445607169902817,0.16062818873677473
210,11.577,11.54,1.88,0.1781273347327658,0.15830926771851353,0.17612082753547148,0.1612486403003223,0.21386378750019538,0.16037592115809532
211,11.617,11.59,1.88,0.1778328459143683,0.15802535721588934,0.17603201849027297,0.16084475858356923,0.21322937728825134,0.16009394092161286
212,11.698,11.65,1.72,0.17750460423829317,0.15771193682755963,0.17591179313830643,0.16041127972690017,0.21255449692315684,0.15978320729092227
213,11.719,11.7,1.81,0.1771437285361488,0.15736996704330142,0.17576110547381996,0.15994929335272906,0.21184082752483543,0.15944468469060172
214,11.781,11.76,1.86,0.17675134834571712,0.15700041371065843,0.1755809177198168,0.15945989480033473,0.21109007373647934,0.15907934161747367
215,11.884,11.81,1.77,0.17632860263133054,0.15660424696235106,0.17537219925581787,0.15894418392828993,0.21030396199025303,0.15868814957455685
216,11.903,11.87,1.75,0.1758766385208113,0.15618244016557153,0.17513592556673935,0.15840326393752877,0.2094842387765748,0.15827208202821727
217,11.945,11.92,1.83,0.17539661005984,0.15573596889364316,0.17487307721339002,0.15783824021565798,0.20863266891812352,0.1578321133889953
218,12.008,11.98,1.75,0.17488967698459162,0.1552658099204873,0.17458463882503833,0.15725021920310073,0.20775103384969343,0.15736921801654555
219,12.089,12.03,1.67,0.1743570035134545,0.15477294023829985,0.17427159811445103,0.15664030728161643,0.2068411299049886,0.1568843692490815
220,12.11,12.09,1.78,0.17379975715861867,0.15425833609878556,0.17393494491575318,0.1560096096856799,0.205904766611412,0.15637853845767102
221,12.172,12.14,1.78,0.17321910755828965,0.15372297207824534,0.17357567024540455,0.15535922943713676,0.20494376499386024,0.15585269412568614
222,12.234,12.2,1.66,0.1726162253302514,0.15316782016675914,0.1731947653865339,0.15469026630349603,0.20395995588848884,0.1553078009536747
223,12.335,12.25,1.74,0.17199228094745225,0.15259384888167243,0.17279322099680872,0.1540038157801875,0.20295517826737544,0.15474481898989295
224,12.355,12.31,1.81,0.1713484436362369,0.15200202240556931,0.17237202623997072,0.1533009680971058,0.20193127757498328,0.15416470278671235
225,12.396,12.36,1.68,0.17068588029780293,0.15139329974890012,0.17193216794113192,0.15258280724976717,0.2008901040773082,0.15356840058308868
226,12.456,12.42,1.71,0.17000575445341773,0.15076863393741732,0.17147462976588765,0.15185041005541838,0.19983351122457318,0.15295685351325872
227,12.517,12.47,1.8,0.16930922521389224,0.15012897122456234,0.1710003914232656,0.1511048452344465,0.1987633540283246,0.1523309948418021
228,12.641,12.53,1.68,0.16859744627377513,0.14947525032892742,0.17051042789251694,0.1503471725174181,0.1976814874537742,0.15169174922517564
229,12.661,12.58,1.6,0.1678715649306958,0.14880840169689538,0.17000570867376016,0.149578441778027,0.19658976482821244,0.15104003199979563
230,12.683,12.64,1.74,0.16713272113024902,0.14812934679053028,0.1694871970624793,0.14879969219216255,0.1954900362662942,0.15037674849670837
231,12.724,12.69,1.74,0.16638204653677774,0.14743899740075495,0.16895584944786055,0.1480119514232384,0.19438414711296081,0.14970279338285247
232,12.787,12.75,1.62,0.16562066363037223,0.14673825498581464,0.16841261463492205,0.14721623483385377,0.19327393640471585,0.14901905002888527
233,12.85,12.8,1.72,0.16484968483035642,0.14602801003499744,0.16785843319036042,0.14641354472381554,0.19216123534993346,0.14832638990351704
234,12.889,12.86,1.75,0.16407021164549065,0.14530914145756038,0.1672942368120111,0.1456048695945296,0.19104786582887032,0.14762567199427312
235,12.974,12.91,1.58,0.16328333385109117,0.14458251599679475,0.1667209477218073,0.14479118343977493,0.18993563891404505,0.14691774225458318
236,13.015,12.97,1.54,0.16249012869323756,0.14384898766915535,0.16613947808210602,0.14397344506289092,0.18882635341163995,0.1462034330770823
237,13.056,13.02,1.64,0.16169166012021227,0.14310939722836963,0.1655507294352306,0.1431525974204317,0.1877217944245516,0.14548356279299604
238,13.118,13.08,1.53,0.16088897804128663,0.14236457165443775,0.16495559216606082,0.14232956699235558,0.186623731937659,0.14475893519747052
239,13.181,13.13,1.49,0.16008311761292263,0.14161532366742613,0.1643549449874583,0.1415052631788329,0.1855339194257853,0.14403033910070093
240,13.241,13.19,1.63,0.15927509855239938,0.1408624512659526,0.1637496544482353,0.14068057772376735,0.18445409248473618,0.1432985479046974
241,13.282,13.24,1.63,0.15846592447881505,0.14010673729024478,0.1631405744632929,0.13985638416511825,0.1833859674857282,0.14256431920550655
242,13.364,13.3,1.54,0.15765658228136992,0.13934894900962683,0.1625285458654947,0.13903353731207702,0.18233124025347722,0.1418283944206824
243,13.384,13.35,1.66,0.1568480415147953,0.1385898377342597,0.16191439597879836,0.13821287274910207,0.18129158476821186,0.14109149844176877
244,13.446,13.41,1.68,0.15604125382177245,0.13783013845092826,0.16129893821215271,0.13739520636676486,0.18026865189189553,0.14035433931152777
245,13.487,13.46,1.53,0.15523715238217817,0.1370705694826411,0.16068297167367618,0.136581333919319,0.17926406811897055,0.13961760792562128
246,13.547,13.52,1.62,0.15443665138898513,0.13631183217179388,0.16006728080463523,0.1357720306088909,0.17827943435195379,0.13888197775843636
247,13.609,13.57,1.62,0.15364064555062984,0.13555461058664234,0.15945263503275478,0.13496805069620102,0.17731632470222358,0.13814810461273358
248,13.67,13.63,1.51,0.1528500096196403,0.13479957125083175,0.15883978844440322,0.13417012713774645,0.1763762853163311,0.13741662639278934
249,13.71,13.68,1.54,0.15206559794727337,0.13404736289573793,0.158229479475173,0.13337897124940068,0.17546083322814243,0.13668816290070004
250,13.771,13.74,1.66,0.15128824406384808,0.13329861623538286,0.1576224306183105,0.1325952723964149,0.17457145523708467,0.13596331565550582
251,13.832,13.79,1.57,0.15051876028440148,0.13255394376369106,0.15701934815037968,0.13181969770980995,0.1737096068127325,0.13524266773478033
252,13.893,13.85,1.48,0.14975793733925202,0.1318139395738427,0.1564209218735002,0.131052891829117,0.17287671102594662,0.13452678363831497
253,13.935,13.9,1.6,0.14900654402904212,0.13107917919945059,0.1558278248734971,0.13029547667136337,0.1720741575067704,0.13381620917350429
254,14.017,13.96,1.65,0.1482653269038669,0.13035021947724768,0.1552407132933412,0.1295480512261172,0.17130330142929082,0.13311147136202003
255,14.08,14.01,1.56,0.14753500996615737,0.12962759843092134,0.15466022612132763,0.1288111913763163,0.1705654625236553,0.13241307836734667
256,14.1,14.07,1.67,0.14681629439703903,0.1289118351756949,0.15408698499350773,0.12808544974454197,0.1698619241154269,0.13172151944274424
257,14.141,14.12,1.76,0.14610985830591605,0.12820342984324018,0.1535215940099453,0.12737135556436344,0.16919393219248374,0.1310372648991988
258,14.203,14.18,1.67,0.14541635650304005,0.1275028635265007,0.1529646395644231,0.12666941457636735,0.1685626944997207,0.1303607660929163
259,14.265,14.23,1.67,0.14473642029481024,0.12681059824401572,0.15241669018725304,0.12598010894849973,0.16796937966187933,0.1296924554319119
260,14.325,14.29,1.7,0.14407065730152363,0.12612707692335048,0.15187829640086054,0.12530389722037066,0.1674151163349056,0.1290327464012399
261,14.366,14.34,1.62,0.1434196512972762,0.12545272340324473,0.1513499905878328,0.12464121427118502,0.16690099238629852,0.1283820336063991
262,14.449,14.4,1.55,0.14278396207169777,0.12478794245408714,0.15083228687114103,0.12399247131094857,0.16642805410493447,0.12774069283443903
263,14.47,14.45,1.65,0.14216412531319103,0.12413311981631,0.15032568100624205,0.12335805589457166,0.1659973054408445,0.1271090811322818
264,14.531,14.51,1.65,0.1415606525133351,0.12348862225627298,0.1498306502847509,0.12273833195845449,0.16560970727538474,0.1264875369017643
265,14.593,14.56,1.54,0.140974030892106,0.12285479763918443,0.14934765344935247,0.12213363987910117,0.16526617672219984,0.12587638001089863
266,14.654,14.62,1.65,0.14040472334354345,0.12223197501859186,0.1488771306196029,0.12154429655328551,0.16496758645935547,0.12527591192084317
267,14.696,14.67,1.74,0.1398531684014663,0.12162046474197084,0.1484195032283022,0.12097059549928023,0.164714764093013,0.12468641582807694
268,14.756,14.73,1.61,0.13931978022482183,0.12102055857194713,0.14797517396821347,0.12041280697865965,0.16450849155302968,0.1241081568212729
269,14.817,14.78,1.65,0.1388049486022382,0.12043252982269992,0.14754452674902838,0.11987117813820172,0.16434950452089292,0.12354138205237206
270,14.879,14.84,1.77,0.13830903897534724,0.11985663351111199,0.14712792666458713,0.11934593317144086,0.16423849189044312,0.12298632092136352
271,14.939,14.89,1.66,0.13783239248045845,0.11929310652223986,0.14672571997045875,0.11883727349943195,0.16417609526189275,0.12244318527427592
272,14.981,14.95,1.59,0.13737532600819652,0.11874216778867623,0.14633823407205448,0.11834537797026921,0.16416290846969067,0.1219121696138829
273,15.048,15.0,1.73,0.13693813228074908,0.1182040184833627,0.14596577752348047,0.11787040307686868,0.16419947714481742,0.12139345132262146
274,15.11,15.06,1.7,0.1365210799464056,0.11767884222539036,0.14560864003733717,0.11741248319248304,0.16428629831212369,0.12088719089721411
275,15.213,15.11,1.56,0.13612441369109354,0.11716680529830413,0.14526709250565892,0.11697173082337786,0.16442382002332787,0.12039353219448408
276,15.234,15.17,1.66,0.13574835436662186,0.1166680568804132,0.1449413870321607,0.11654823687806823,0.16461244102629022,0.11991260268784973
277,15.255,15.22,1.69,0.13539309913534858,0.11618272928660342,0.1446317569759407,0.1161420709525032,0.16485251047118685,0.1194445137339846
278,15.359,15.28,1.54,0.1350588216310002,0.11571093822114577,0.1443384170067693,0.11575328163059072,0.1651443276542018,0.118989360849133
279,15.38,15.33,1.59,0.13474567213538216,0.11525278304100295,0.14406156317205004,0.11538189679948946,0.1654881417993437,0.11854722399458145
280,15.422,15.39,1.66,0.13445377777072492,0.11480834702914845,0.14380137297546045,0.11502792397914492,0.1658841518789815,0.11811816787079855
281,15.483,15.44,1.54,0.1341832427074073,0.1143776976774307,0.1435580054671972,0.11469135066559952,0.16633250647368183,0.11770224221977069
282,15.546,15.5,1.54,0.13393414838677034,0.11396088697853939,0.1433316013456735,0.11437214468764982,0.16683330367190863,0.11729948213507367
283,15.587,15.55,1.68,0.13370655375868892,0.11355795172665725,0.14312228307045777,0.11407025457645276,0.16738659101013068,0.11690990837923187
284,15.65,15.61,1.65,0.13350049553353807,0.11316891382639307,0.14293015498621633,0.11378560994768018,0.16799236545387106,0.11653352770792005
285,15.711,15.66,1.53,0.1333159884481859,0.11279378060958947,0.14275530345742746,0.1135181218957902,0.16865057342022985,0.11617033320056452
286,15.752,15.72,1.6,0.13315302554566402,0.11243254515958531,0.1425977970136501,0.11326768339994253,0.16936111084242791,0.11582030459689668
287,15.813,15.77,1.61,0.13301157846820505,0.11208518664249427,0.14245768650516516,0.11303416974104706,0.17012382327694536,0.11548340863900745
288,15.915,15.83,1.46,0.1328915977633888,0.11175167064504461,0.14233500526885243,0.11281743892940468,0.170938506053833,0.11515959941845194
289,15.955,15.88,1.55,0.1327930132031795,0.111431949518515,0.14222976930420173,0.11261733214238354,0.1718049044707482,0.11484881872796093
290,15.976,15.94,1.64,0.13271573411565596,0.11112596272830463,0.14214197745938933,0.1124336741715739,0.17272271403122855,0.11455099641732677
291,16.017,15.99,1.46,0.13265964972923555,0.11083363720868823,0.14207161162736873,0.11226627387887778,0.17369158072767604,0.11426605075304232
292,16.078,16.05,1.47,0.13262462952916124,0.11055488772232965,0.14201863695190786,0.1121149246610225,0.17471110136949572,0.11399388878128161
293,16.138,16.1,1.59,0.13261052362596806,0.11028961722415702,0.14198300204345327,0.11197940492203,0.17578082395681685,0.11373440669381643
294,16.179,16.16,1.5,0.13261716313559446,0.11003771722922599,0.1419646392046578,0.11185947855319839,0.17690024810020388,0.11348749019646498
295,16.281,16.21,1.38,0.13264436057077508,0.10979906818420734,0.14196346466539356,0.11175489542014794,0.17806882548672598,0.11325301487966791
296,16.302,16.27,1.37,0.1326919102433473,0.1095735398421345,0.1419793788270711,0.11166539185645918,0.17928596039271366,0.11303084659078573
297,16.343,16.32,1.36,0.1327595886771341,0.10936099164003328,0.1420122665161043,0.11159069116340359,0.18055101024348238,0.11282084180771199
298,16.403,16.38,1.2,0.13284715503111164,0.10916127307903967,0.14206199724637264,0.11153050411524819,0.18186328622021242,0.11262284801340593
299,16.485,16.43,1.31,0.1329543515326067,0.1089742241066021,0.14212842549052426,0.11148452946962449,0.18322205391403878,0.1124367040709648
300,16.506,16.49,1.35,0.13308090392028038,0.108799675500367,0.14221139095994817,0.11145245448248231,0.18462653402725693,0.11226224059887557
301,16.567,16.54,1.26,0.13322652189664985,0.1086374492533557,0.14231071889325028,0.11143395542718312,0.18607590312141084,0.11209928034610585
302,16.649,16.6,1.28,0.13339089958988165,0.10848735896005807,0.14242622035310665,0.11142869811731994,0.18756929441193199,0.11194763856670979
303,16.71,16.65,1.4,0.13357371602456913,0.10834921020308749,0.14255769253142644,0.11143633843287351,0.18910579860893423,0.11180712339363622
304,16.73,16.71,1.33,0.13377463560120695,0.10822280094005308,0.14270491906283092,0.1114565228493169,0.19068446480373122,0.11167753621143178
305,16.792,16.76,1.27,0.13399330858409164,0.10810792189030333,0.14286767034650583,0.11148888896925901,0.19230430140060573,0.1115586720275339
306,16.852,16.82,1.35,0.13422937159739526,0.10800435692118618,0.14304570387650797,0.11153306605618876,0.1939642770933325,0.11145031984184635
307,16.915,16.87,1.33,0.13448244812918253,0.10791188343345234,0.1432387645806241,0.11158867556984485,0.19566332188592553,0.11135226301428751
308,17.017,16.93,1.16,0.13475214904314303,0.10783027274541909,0.14344658516788553,0.11165533170270739,0.19740032815703046,0.11126427963000245
309,17.038,16.98,1.24,0.13503807309777693,0.10775929047551558,0.14366888648482498,0.11173264191709457,0.19917415176730938,0.11118614286193766
310,17.058,17.04,1.3,0.13533980747272237,0.10769869692284777,0.14390537788053592,0.11182020748235523,0.20098361320907548,0.11111762133048975
311,17.119,17.09,1.19,0.13565692830187104,0.10764824744544124,0.14415575758055743,0.1119176240116704,0.20282749879732032,0.11105847945995599
312,17.202,17.15,1.21,0.13598900121289326,0.10760769283583661,0.14441971306951987,0.11202448199801741,0.20470456190115846,0.11100847783153069
313,17.223,17.2,1.32,0.1363355818727881,0.10757677969372437,0.1446969214823433,0.11214036734889939,0.20661352421461576,0.11096737353260205
314,17.284,17.26,1.24,0.13669621653908748,0.10755525079530848,0.14498705000362738,0.11226486191947524,0.20855307706560605,0.11093492050210917
315,17.367,17.31,1.19,0.13707044261635612,0.10754284545908636,0.14528975627475937,0.11239754404372697,0.21052188276186717,0.11091086987172065
316,17.387,17.37,1.3,0.13745778921763424,0.10753929990772904,0.14560468880820435,0.11253798906328263,0.21251857597256277,0.11089497030259626
317,17.449,17.42,1.3,0.13785777773046798,0.10754434762573756,0.14593148740842377,0.11268576985347943,0.21454176514419387,0.11088696831749349
318,17.51,17.48,1.19,0.13826992238716374,0.10755771971254674,0.14626978359886597,0.11284045734621442,0.21659003394939405,0.11088660862798387
319,17.571,17.53,1.28,0.13869373083887462,0.1075791452307484,0.14661920105447826,0.11300162104909857,0.2186619427671104,0.11089363445655004
320,17.612,17.59,1.32,0.13912870473309286,0.10760835154911885,0.14697935603921353,0.11316882956041177,0.22075603019260434,0.11090778785334189
321,17.673,17.64,1.16,0.13957434029408772,0.10764506468015216,0.14734985784803223,0.11334165107935334,0.2228708145756302,0.11092881000737673
322,17.776,17.7,1.18,0.14003012890578803,0.10768900961182419,0.14773030925291514,0.11351965391110247,0.22500479558506037,0.11095644155197928
323,17.795,17.75,1.28,0.1404955576965671,0.10773991063333678,0.14812030695240896,0.11370240696623901,0.2271564557981319,0.11099042286426505
324,17.835,17.81,1.21,0.1409701101253492,0.10779749165461289,0.148519442024248,0.11388948025410571,0.2293242623123723,0.11103049435848271
325,17.897,17.86,1.24,0.14145326656841453,0.10786147651933667,0.14892730038060478,0.11408044536972288,0.2315066683781357,0.11107639677304153
326,17.98,17.92,1.4,0.14194450490623056,0.10793158931135138,0.14934346322549685,0.11427487597389367,0.23370211504957075,0.11112787145105815
327,18.021,17.97,1.41,0.1424433011096134,0.10800755465423781,0.14976750751383472,0.11447234826614887,0.2359090328517666,0.111184660614261
328,18.061,18.03,1.33,0.1429491298245141,0.10808909800389487,0.150199006411565,0.11467244145016978,0.23812584346178192,0.1112465076300894
329,18.122,18.08,1.44,0.14346146495473286,0.10817594593393885,0.1506375297563458,0.11487473819130835,0.240350961401256,0.11131315727182577
330,18.183,18.14,1.48,0.14397978024188385,0.10826782641373349,0.15108264451819775,0.11507882506580293,0.2425827957383084,0.11138435597159796
331,18.225,18.19,1.33,0.14450354984196243,0.108364469078861,0.15153391525959628,0.11528429300127521,0.24481975179642543,0.11145985206609854
332,18.285,18.25,1.42,0.14503224889787236,0.10846560549385707,0.1519909045944874,0.11549073770809763,0.24706023286799525,0.11153939603487986
333,18.367,18.3,1.5,0.1455653541072539,0.10857096940705516,0.15245317364572855,0.11569776010123371,0.2493026419300978,0.11162274073110191
334,18.388,18.36,1.43,0.14610234428492205,0.10868029699741476,0.15292028250047532,0.11590496671216775,0.25154538336008037,0.11170964160462757
335,18.43,18.41,1.51,0.14664270091917106,0.10879332711323844,0.15339179066301645,0.11611197009056412,0.25378686464836464,0.11179985691737837
336,18.512,18.47,1.69,0.14718590872114162,0.10890980150271189,0.15386725750449967,0.1163183891953329,0.2560254981058669,0.11189314795087692
337,18.552,18.52,1.68,0.1477314561664025,0.10902946503621778,0.15434624270892394,0.11652384977480144,0.25825970256338293,0.1119892792059106
338,18.613,18.58,1.62,0.1482788360278938,0.10915206592037871,0.15482830671473855,0.11672798473568928,0.2604879050602936,0.11208801859425542
339,18.655,18.63,1.78,0.14882754589941313,0.10927735590377706,0.15531301115139706,0.11693043450055884,0.26270854251998926,0.1121891376224006
340,18.716,18.69,1.87,0.1493770887089055,0.10940509047428663,0.15579991927026796,0.11713084735337848,0.264920063409466,0.1122924115672182
341,18.777,18.74,1.77,0.1499269732209105,0.10953502904793704,0.15628859636938341,0.11732887977280236,0.2671209293805899,0.11239761964353256
342,18.861,18.8,1.9,0.15047671452758815,0.10966693514923061,0.15677861021156728,0.11752419675277094,0.26930961689055594,0.11250454516355948
343,18.881,18.85,1.99,0.15102583452778318,0.1098005765828437,0.1572695314355113,0.11771647211006633,0.27148461879911323,0.1126129756882016
344,18.942,18.91,1.93,0.15157386239360082,0.10993572559666522,0.15776093395937987,0.11790538877851292,0.2736444459401745,0.1127227031702021
345,18.982,18.96,1.96,0.15212033502395553,0.1100721590361536,0.1582523953764922,0.1180906390895865,0.2757876286654659,0.11283352408917396
346,19.065,19.02,2.15,0.15266479748453474,0.11020965849002058,0.15874349734256218,0.11827192503927988,0.27791271835791564,0.11294523957853349
347,19.127,19.07,2.14,0.15320680343361798,0.11034801042726669,0.1592338259538911,0.11844895854113766,0.2800182889125155,0.11305765554437215
348,19.147,19.13,2.14,0.1537459155332107,0.11048700632559376,0.15972297211582667,0.1186214616654066,0.2821029381824328,0.11317058277630346
349,19.229,19.18,2.3,0.15428170584499054,0.11062644279121285,0.160210531900743,0.11878916686424902,0.28416528938821833,0.11328383705031862
350,19.29,19.24,2.38,0.15481375621061602,0.11076612167005197,0.16069610689477357,0.11895181718295224,0.28620399248804873,0.11339723922368243
351,19.331,19.29,2.3,0.15534165861599974,0.11090585015036206,0.16117930453252866,0.11910916645705716,0.2882177255070421,0.11351061532190193
352,19.371,19.35,2.45,0.15586501553917306,0.11104544085672836,0.16165973841902645,0.1192609794953498,0.29020519582379134,0.11362379661780804
353,19.433,19.4,2.56,0.15638344028138496,0.11118471193551568,0.1621370286380859,0.1194070322487026,0.29216514141237626,0.11373661970280133
354,19.476,19.46,2.51,0.15689655728109703,0.11132348713180287,0.16261080204647946,0.11954711196480514,0.294096332038229,0.11384892655032686
355,19.537,19.51,2.52,0.15740400241055727,0.11146159585789019,0.163080692553206,0.11968101732888449,0.29599757040633556,0.11396056457165638
356,19.598,19.57,2.65,0.15790542325465062,0.11159887325349181,0.16354634138331514,0.11980855859057399,0.2978676932603755,0.11407138666406477
357,19.66,19.62,2.61,0.15840047937175084,0.11173516023774423,0.16400739732581124,0.11992955767712014,0.2997055724315087,0.11418125125148985
358,19.701,19.68,2.59,0.1588888425363248,0.1118703035531689,0.16446351696525316,0.12004384829311301,0.30151011583560694,0.11429002231776512
359,19.763,19.73,2.73,0.15937019696306645,0.11200415580172435,0.16491436489671868,0.12015127600690183,0.303280268417796,0.11439756943251364
360,19.827,19.79,2.78,0.1598442395123623,0.11213657547307268,0.16535961392381823,0.12025169832382583,0.3050150130432438,0.11450376776979136
361,19.887,19.84,2.69,0.1603106798769105,0.11226742696517676,0.16579894523943906,0.1203449847463662,0.30671337133319543,0.1146084981195726
362,19.97,19.9,2.82,0.16076924074932175,0.11239658059734413,0.16623204858888893,0.12043101682131822,0.3083744044453384,0.11471164689217869
363,19.991,19.95,2.92,0.16121965797053425,0.11252391261584695,0.16665862241513796,0.12050968817408454,0.3099972137976788,0.11481310611576391
364,20.032,20.01,2.83,0.16166168065888922,0.11264930519226608,0.16707837398597136,0.12058090453017789,0.3115809417352081,0.114912773426987
365,20.094,20.06,2.88,0.1620950713197313,0.11277264641473263,0.16749101950306786,0.120644583723985,0.3131247721387417,0.11501055205501182
366,20.154,20.12,3.02,0.16251960593542603,0.11289383027226253,0.167896284193267,0.1207006556947863,0.31462793097541386,0.11510635079899406
367,20.195,20.17,2.92,0.16293507403572824,0.11301275663239374,0.16829390238252764,0.12074906246996064,0.3160896867904223,0.11520008399921872
368,20.258,20.23,2.89,0.1633412787484835,0.11312933121233708,0.16868361755324413,0.12078975813524388,0.3175093511397066,0.11529167150205956
369,20.339,20.28,3.06,0.16373803683068355,0.1132434655438464,0.16906518238567442,0.12082270879186079,0.31888627896333427,0.1153810386189325
370,20.36,20.34,3.09,0.1641251786799303,0.11335507693200217,0.16943835878427865,0.12084789250030635,0.3202198688994467,0.11546811607941221
371,20.42,20.39,3.01,0.1645025483263844,0.11346408840809245,0.16980291788978114,0.12086529921052386,0.32150956353868254,0.11555283997868021
372,20.481,20.45,3.14,0.16487000340528474,0.11357042867677104,0.1701586400777643,0.12087493067821939,0.3227548496190803,0.1156351517194697
373,20.544,20.5,3.22,0.16522741511014252,0.11367403205767294,0.17050531494460064,0.1208768003670776,0.3239552581615711,0.11571499794867149
374,20.583,20.56,3.1,0.16557466812674632,0.11377483842167364,0.1708427412815089,0.12087093333671528,0.3251103645462924,0.11579233048876689
375,20.687,20.61,3.13,0.16591166054814946,0.11387279312198959,0.17117072703743716,0.1208573661163527,0.32621978853007016,0.11586710626425935
376,20.709,20.67,3.26,0.1662383037708469,0.11396784692033211,0.17148908927136133,0.12083614656435845,0.32728319420553414,0.11593928722328513
377,20.748,20.72,3.15,0.1665545223723813,0.11405995590834281,0.17179765409450756,0.12080733371396832,0.3283002899024234,0.11600884025459202
378,20.811,20.78,3.12,0.16686025397063148,0.11414908142455427,0.1720962566029675,0.12077099760556241,0.3292708280317156,0.11607573710008362
379,20.872,20.83,3.26,0.1671554490650386,0.11423518996713333,0.1723847408011357,0.12072721910592525,0.33019460487327956,0.11613995426313153
380,20.933,20.89,3.25,0.16744007086005339,0.11431825310265581,0.17266295951637403,0.12067608971491317,0.3310714603078073,0.11620147291285565
381,20.995,20.94,3.15,0.16771409507114107,0.11439824737113241,0.17293077430530482,0.12061771135991926,0.3319012774938413,0.1162602787845696
382,21.099,21.0,3.26,0.16797750971375394,0.11447515418746694,0.17318805535215,0.12055219617847687,0.33268398249077336,0.11631636207658058
383,21.12,21.05,3.3,0.16823031487574744,0.1145489597394942,0.173434681359586,0.12047966628929195,0.3334195438287725,0.11636971734352701
384,21.141,21.11,3.16,0.16847252247377176,0.11461965488272664,0.17367053943264765,0.12040025355195841,0.33410797202666703,0.11642034338643595
385,21.182,21.16,3.27,0.16870415599420038,0.11468723503194331,0.1738955249562737,0.12031409931560665,0.3347493190588703,0.1164682431396885
386,21.245,21.22,3.35,0.16892525021916033,0.11475170004977378,0.17410954146712374,0.12022135415675986,0.3353436777725017,0.11651342355509123
387,21.308,21.27,3.25,0.16913585093821468,0.11481305413246454,0.17431250052031366,0.12012217760671882,0.33589118125591383,0.11655589548326264
388,21.35,21.33,3.28,0.16933601464619838,0.11487130569305266,0.17450432155165368,0.12001673786888097,0.3363920021599031,0.11659567355255442
389,21.432,21.38,3.41,0.16952580822765054,0.11492646724221049,0.17468493173581873,0.11990521152652582,0.33684635197296237,0.11663277604573132
390,21.473,21.44,3.35,0.1697053086282452,0.11497855526704404,0.17485426584069985,0.11978778324172346,0.3372544802520199,0.11666722477463165
391,21.512,21.49,3.23,0.16987460251361491,0.1150275901081274,0.1750122660780501,0.11966464544608899,0.3376166738101951,0.11669904495302298
392,21.576,21.55,3.31,0.17003378591597734,0.11507359583503948,0.17515888195048096,0.11953599802411298,0.33793325586318596,0.1167282650678562
393,21.658,21.6,3.34,0.1701829638690151,0.11511660012064458,0.17529407009487627,0.11940204798976362,0.33820458513597523,0.1167549167491097
394,21.699,21.66,3.19,0.17032225003151694,0.11515663411433037,0.17541779412234618,0.11926300915701055,0.3384310549315821,0.11677903463841115
395,21.802,21.71,3.29,0.17045176630033956,0.11519373231439549,0.1755300244549058,0.11911910180488268,0.33861309216359686,0.11680065625662532
396,21.823,21.77,3.37,0.17057164241330114,0.11522793243976455,0.17563073815913494,0.11897055233763766,0.3387511563542552,0.11681982187060243
397,21.863,21.82,3.29,0.17068201554266055,0.11525927530120286,0.1757199187771515,0.1188175929405913,0.33884573859983463,0.11683657435928765
398,21.946,21.88,3.29,0.17078302987985855,0.1152878046722067,0.1757975561552713,0.11866046123214866,0.3388973605051996,0.11685095907940002
399,21.967,21.93,3.41,0.17087483621219896,0.1153135671597573,0.17586364627072673,0.11849939991259476,0.3389065730893899,0.11686302373088826
400,22.028,21.99,3.3,0.17095759149216058,0.11533661207513013,0.17591819105680573,0.11833465641021326,0.33887395566423,0.11687281822236724
401,22.091,22.04,3.19,0.17103145840006098,0.11535699130494065,0.17596119822676556,0.11816648252529101,0.3388001146880078,0.11688039453672652
402,22.174,22.1,3.25,0.1710966049008391,0.11537475918258394,0.17599268109687435,0.11799513407253617,0.33868568259632714,0.11688580659709147
403,22.195,22.15,3.23,0.17115320379578516,0.1153899723601951,0.17601265840893732,0.11782087052240058,0.3385313166122716,0.11688911013330723
404,22.235,22.21,3.11,0.17120143227009654,0.11540268968122791,0.17602115415268005,0.11764395464176207,0.3383376975380014,0.11689036254911082
405,22.341,22.26,3.19,0.17124147143715474,0.11541297205373587,0.17601819738836275,0.11746465213440602,0.3381055285298703,0.11688962279015923
406,22.361,22.32,3.27,0.17127350588040574,0.11542088232443745,0.1760038220699995,0.11728323128175064,0.3378355338591154,0.11688695121308199
407,22.402,22.37,3.16,0.1712977231937055,0.11542648515365224,0.17597806686955247,0.11709996258428071,0.3375284576601552,0.11688240945572889
408,22.443,22.43,3.19,0.17131431352097032,0.1154298468912017,0.175940975002455,0.11691511840418918,0.3371850626685384,0.11687606030878057
409,22.525,22.48,3.31,0.17132346909595977,0.11543103545337706,0.17589259405480048,0.11672897260976363,0.3368061289506263,0.11686796758888356
410,22.566,22.54,3.19,0.17132538378302517,0.11543012020107808,0.17583297581254628,0.1165418002220659,0.3363924526271441,0.1168581960134588
411,22.627,22.59,3.09,0.17132025261966483,0.1154271718192206,0.17576217609310463,0.1163538770644315,0.3359448445927983,0.11684681107731984
412,22.689,22.65,3.16,0.17130827136174293,0.11542226219749611,0.1756802545797069,0.11616547941527465,0.3354641292341971,0.11683387893122181
413,22.73,22.7,3.14,0.1712896360322477,0.11541546431254412,0.17558727465893942,0.11597688366463317,0.3349511431483437,0.11681946626245165
414,22.791,22.76,2.97,0.17126454247448056,0.11540685211157714,0.17548330326185171,0.11578836597484045,0.33440673386394704,0.11680364017756713
415,22.853,22.81,3.04,0.171233185910561,0.11539650039748674,0.17536841070902076,0.11560020194567645,0.3338317585677557,0.1167864680873945
416,22.895,22.87,3.1,0.17119576050610721,0.11538448471546114,0.17524267055992546,0.1154126662843333,0.33322708283806707,0.1167680175943993
417,22.996,22.92,2.97,0.17115245894192582,0.1153708812411527,0.17510615946695515,0.11522603248053007,0.33259357938751843,0.11674835638254674
418,23.016,22.98,2.98,0.17110347199350512,0.11535576667044888,0.1749589570343338,0.11504057248713594,0.33193212681722095,0.1167275521097676
419,23.057,23.03,3.08,0.17104898811905575,0.11533921811092264,0.17480114568220648,0.11485655640669142,0.3312436083842771,0.11670567230314065
420,23.119,23.09,2.96,0.17098919305678267,0.11532131297506404,0.1746328105161364,0.11467425218422428,0.3305289107847169,0.11668278425689306
421,23.182,23.14,2.89,0.17092426943201006,0.11530212887541816,0.1744540392022794,0.11449392530673334,0.32978892295388373,0.11665895493330979
422,23.265,23.2,2.95,0.170854396374735,0.11528174352176215,0.1742649218485145,0.11431583850966863,0.3290245348862908,0.11663425086663116
423,23.326,23.25,2.93,0.17077974914816296,0.11526023462044575,0.17406555089180908,0.11414025149068634,0.3282366364769534,0.11660873807000685
424,23.347,23.31,2.74,0.17070049878876095,0.1152376797760049,0.17385602099209124,0.11396742063090874,0.3274261163861617,0.11658248194556647
425,23.388,23.36,2.8,0.17061681175832136,0.11521415639515314,0.17363642893287073,0.11379759872389482,0.32659386092959897,0.116555547197666
426,23.449,23.42,2.79,0.17052884960848252,0.1151897415932606,0.1734068735288101,0.11363103471252044,0.3257407529956479,0.11652799774936792
427,23.511,23.47,2.68,0.1704367686581183,0.11516451210343695,0.1731674555404101,0.11346797343397572,0.3248676709916409,0.1164998966622178
428,23.551,23.53,2.7,0.17034071968398168,0.11513854418834184,0.17291827759593723,0.11330865537310288,0.3239754878207129,0.11647130605938127
429,23.674,23.58,2.78,0.1702408476249636,0.11511191355485122,0.17265944412070047,0.11315331642431505,0.323065069890826,0.1164422870522029
430,23.695,23.64,2.68,0.17013729130031469,0.11508469527170281,0.17239106127378911,0.1130021876623352,0.32213727615745735,0.11641289967023594
431,23.716,23.69,2.61,0.17003018314216642,0.11505696369023106,0.17211323689238467,0.1128554951219715,0.3211929572013838,0.11638320279477543
432,23.777,23.75,2.66,0.16991964894268244,0.11502879236828246,0.17182608044374684,0.11271345958710925,0.32023295434295324,0.11635325409590663
433,23.84,23.8,2.64,0.16980580761616884,0.11500025399737757,0.17152970298494674,0.11257629638905671,0.3192580987941902,0.11632310997306244
434,23.88,23.86,2.47,0.16968877097646687,0.11497142033316331,0.17122421713038777,0.11244421521434045,0.31826921085002224,0.11629282549907334
435,23.943,23.91,2.55,0.16956864352991838,0.11494236212918657,0.1709097370271002,0.11231741992202268,0.31726709911983253,0.11626245436768896
436,24.006,23.97,2.57,0.16944552228415757,0.11491314907401663,0.1705863783377388,0.11219610837060816,0.3162525598004599,0.11623204884455086
437,24.069,24.02,2.38,0.1693194965729427,0.11488384973174787,0.17025425823115986,0.11208047225461838,0.31522637599167125,0.11620165972159995
438,24.111,24.08,2.35,0.16919064789720495,0.11485453148592048,0.1699134953803895,0.11197069695094006,0.31418931705502734,0.11617133627490497
439,24.174,24.13,2.4,0.16905904978246278,0.11482526048690284,0.16956420996773716,0.11186696137508637,0.31314213801696217,0.11614112622590049
440,24.276,24.19,2.28,0.16892476765274148,0.11479610160277276,0.16920652369677067,0.11176943784751613,0.31208557901677103,0.1161110757060215
441,24.298,24.24,2.23,0.1687878587211421,0.11476711837371609,0.1688405598108624,0.11167829197012516,0.3110203648000516,0.11608122922472285
442,24.38,24.3,2.35,0.16864837189720774,0.11473837296993497,0.16846644311800765,0.1115936825129713,0.3099472042579889,0.11605162964086864
443,24.401,24.35,2.34,0.16850634771123962,0.11470992615302629,0.16808430002160654,0.1115157613112371,0.3088667900127385,0.11602231813747335
444,24.442,24.41,2.21,0.16836181825570976,0.11468183724076589,0.1676942585568752,0.111444673172387,0.30777979804904454,0.11599333419977192
445,24.504,24.46,2.31,0.16821480714390008,0.11465416407521734,0.16729644843252126,0.11138055579344898,0.30668688739215655,0.11596471559659166
446,24.544,24.52,2.35,0.16806532948588088,0.11462696299407847,0.16689100107730281,0.11132353968833564,0.30558869983205317,0.1159364983649932
447,24.626,24.57,2.19,0.16791339188192517,0.11460028880517945,0.1664780496910943,0.1112737481251234,0.3044858596939374,0.1159087167981448
448,24.646,24.63,2.18,0.16775899243343095,0.11457419476405374,0.16605772930007023,0.11123129707323129,0.30337897365490324,0.11588140343639194
449,24.729,24.68,2.21,0.16760212077139436,0.114548732554515,0.16563017681559822,0.111196295160475,0.3022686306066097,0.11585458906148359
450,24.769,24.74,2.11,0.16744275810245565,0.11452395227217659,0.16519553109643068,0.11116884363998493,0.30115540156370657,0.11582830269391305
451,24.83,24.79,2.07,0.1672808772725209,0.11449990241084654,0.1647539330137927,0.11114903636695458,0.30003983961764147,0.11580257159333392
452,24.891,24.85,2.23,0.16711644284794058,0.11447662985171748,0.16430552551896271,0.11113695978514274,0.2989224799353392,0.11577742126200959
453,24.953,24.9,2.23,0.16694941121420787,0.11445417985525079,0.16385045371292858,0.1111326929229994,0.29780383980212344,0.11575287545125372
454,25.015,24.96,2.09,0.1667797306921189,0.11443259605563239,0.1633888649176853,0.11113630739923414,0.29668441870814766,0.11572895617081273
455,25.036,25.01,2.22,0.16660734167130956,0.11441192045766314,0.16292090874872975,0.11114786743760581,0.29556469847754846,0.11570568370113365
456,25.118,25.07,2.28,0.16643217676105937,0.11439219343594109,0.16244673718832023,0.11116742989068798,0.29444514343951284,0.11568307660845342
457,25.159,25.12,2.11,0.16625416095823672,0.11437345373619467,0.16196650465909396,0.11119504427235415,0.29332620064042836,0.11566115176264224
458,25.221,25.18,2.13,0.16607321183224244,0.11435573847863566,0.1614803680976422,0.11123075279873865,0.2922083000962598,0.11563992435773571
459,25.284,25.23,2.19,0.165889239726789,0.11433908316321349,0.16098848702763352,0.11127459043744649,0.29109185508426233,0.1156194079350916
460,25.325,25.29,2.07,0.1657021479783309,0.11432352167666383,0.1604910236320738,0.11132658496479367,0.28997726247309186,0.11559961440911272
461,25.386,25.34,2.03,0.1655118331509163,0.11430908630125211,0.15998814282430612,0.11138675703084536,0.28886490309028723,0.11558055409548008
462,25.428,25.4,2.16,0.16531818528717773,0.11429580772511579,0.15948001231742934,0.11145512023198537,0.2877551421259973,0.11556223574184543
463,25.469,25.45,2.17,0.16512108817514723,0.1142837150540982,0.1589668026920005,0.11153168119068332,0.2866483295717277,0.11554466656092663
464,25.53,25.51,2.08,0.16492041963057644,0.11427283582494578,0.15844868746213361,0.11161643964204575,0.2855448006927911,0.11552785226594471
465,25.591,25.56,2.21,0.16471605179445023,0.11426319601971975,0.15792584314029834,0.1117093885266769,0.2844448765330885,0.11551179710833193
466,25.654,25.62,2.28,0.16450785144539365,0.11425482008125853,0.15739844930121336,0.11181051408934944,0.28334886445083113,0.11549650391763266
467,25.694,25.67,2.1,0.16429568032668715,0.1142477309295217,0.15686668864524925,0.1119197959829917,0.282257058683812,0.1154819741435135
468,25.757,25.73,2.16,0.16407939548760103,0.11424194997865396,0.15633074706174646,0.11203720737753058,0.28116974094284714,0.11546820789979899
469,25.84,25.78,2.26,0.16385884963874034,0.11423749715462528,0.1557908136926486,0.11216271507317299,0.2800871810320094,0.11545520401045152
470,25.861,25.84,2.14,0.16363389152105845,0.1142343909133246,0.15524708099686493,0.11229627961774158,0.2790096374942633,0.11544296005741911
471,25.923,25.89,2.1,0.1634043662881469,0.11423264825900761,0.15469974481577464,0.11243785542770288,0.2779373582810663,0.1154314724302808
472,25.985,25.95,2.23,0.16317011590134892,0.11423228476301908,0.15414900444024424,0.11258739091254094,0.2768705814444619,0.11542073637762168
473,26.048,26.0,2.21,0.1629309795371954,0.1142333145827182,0.15359506267947776,0.11274482860212531,0.2758095358501467,0.11541074606006585
474,26.11,26.06,2.15,0.16268679400662647,0.11423575048053121,0.15303812593197924,0.11291010527669698,0.27475444190994924,0.11540149460488934
475,26.213,26.11,2.27,0.1624373941854289,0.11423960384305114,0.15247840425889464,0.11308315209906177,0.2737055123321243,0.1153929741621257
476,26.236,26.17,2.32,0.16218261345529988,0.1142448847000991,0.15191611146001935,0.11326389474855116,0.27266295288786074,0.11538517596206804
477,26.275,26.22,2.16,0.16192228415494134,0.11425160174366197,0.1513514651527838,0.11345225355629947,0.2716269631924096,0.11537809037406321
478,26.337,26.28,2.22,0.1616562380405812,0.11425976234662746,0.1507846868544984,0.11364814364141029,0.27059773749926025,0.11537170696649242
479,26.379,26.33,2.34,0.16138430675530588,0.11426937258125097,0.15021600206803082,0.11385147504764032,0.26957546550581185,0.11536601456783267
480,26.421,26.39,2.23,0.16110632230657196,0.11428043723730534,0.14964564037092776,0.11406215288030287,0.2685603331689885,0.1153610013286994
481,26.483,26.44,2.21,0.16082211755123346,0.11429295983988476,0.14907383550780873,0.11428007744318355,0.26755252352923337,0.115356654784776
482,26.586,26.5,2.34,0.16053152668737178,0.11430694266685443,0.14850082548568685,0.11450514437535013,0.2665522175413085,0.11535296192053587
483,26.607,26.55,2.33,0.16023438575218052,0.1143223867659464,0.14792685267175065,0.11473724478778806,0.2655595949103295,0.11534990923365807
484,26.627,26.61,2.22,0.15993053312513958,0.11433929197149491,0.14735216389308486,0.11497626539978857,0.2645748349314693,0.11534748280002703
485,26.69,26.66,2.33,0.159619810035704,0.1143576569207923,0.14677701053779993,0.11522208867497664,0.26359811733177124,0.11534566833919883
486,26.751,26.72,2.37,0.1593020610747354,0.11437747907003339,0.14620164865707494,0.11547459295682187,0.2626296231125343,0.11534445128020508
487,26.812,26.77,2.21,0.15897713470890515,0.11439875470980929,0.1456263390676709,0.11573365260344726,0.2616695353907519,0.11534381682756117
488,26.876,26.83,2.29,0.1586448837972921,0.1144214789801189,0.1450513474545078,0.11599913812155703,0.26071804023809136,0.11534375002734792
489,26.939,26.88,2.38,0.15830516610938633,0.11444564588488126,0.1444769444729142,0.1162709162993403,0.2597753275159104,0.11534423583324152
490,26.96,26.94,2.31,0.15795784484369935,0.11447124830595233,0.14390340585015704,0.11654885033825699,0.25884159170480014,0.11534525917237715
491,27.023,26.99,2.31,0.15760278914615855,0.11449827801667214,0.14333101248581576,0.116832799983675,0.25791703272714034,0.11534680501094213
492,27.065,27.05,2.45,0.15723987462742206,0.11452672569499078,0.14276005055048413,0.11712262165438915,0.25700185676116577,0.11534885841939801
493,27.128,27.1,2.42,0.15686898387822099,0.11455658093623282,0.14219081158221356,0.1174181685710831,0.25609627704508214,0.11535140463722678
494,27.19,27.16,2.33,0.15649000698182208,0.11458783226555504,0.14162359258008475,0.11771929088378512,0.25520051466982097,0.11535442913708568
495,27.233,27.21,2.42,0.15610284202270572,0.11462046715013859,0.1410586960942949,0.11802583579833241,0.25431479935908147,0.11535791768824162
496,27.317,27.27,2.44,0.15570739559057126,0.1146544720111389,0.14049643031217426,0.11833764770181945,0.25343937023536856,0.11536185641914229
497,27.379,27.32,2.26,0.15530358327880583,0.11468983223540209,0.13993710913958896,0.11865456828696799,0.2525744765707728,0.1153662318789748
498,27.4,27.38,2.34,0.15489133017655968,0.1147265321869552,0.1393810522772303,0.11897643667533578,0.2517203785212555,0.1153710310980621
499,27.462,27.43,2.45,0.15447057135356515,0.11476455521828692,0.138828585291336,0.11930308953927435,0.25087734784320304,0.1153762416469537
500,27.524,27.49,2.34,0.15404125233682453,0.11480388368145429,0.1382800396784278,0.1196343612225546,0.25004566859100186,0.11538185169407913
501,27.566,27.54,2.35,0.15360332957826728,0.11484449893907211,0.13773575292365295,0.11997008385960402,0.2492256377943707,0.1153878500618459
502,27.69,27.6,2.48,0.15315677091244817,0.1148863813752664,0.13719606855228186,0.12031008749333484,0.2484175661142036,0.11539422628107374
503,27.711,27.65,2.49,0.1527015560033428,0.11492951040668375,0.1366613361738852,0.1206542001915556,0.24762177847571595,0.11540097064365985
504,27.732,27.71,2.4,0.15223767677930714,0.11497386449364705,0.1361319115187037,0.12100224816194631,0.2468386146777415,0.1154080742533714
505,27.793,27.76,2.48,0.151765137855294,0.11501942115153417,0.13560815646573585,0.1213540558655439,0.24606842997709413,0.11541552907465823
506,27.855,27.82,2.5,0.15128395694146926,0.11506615696243858,0.13509043906212154,0.12170944612864347,0.2453115956469911,0.11542332797937524
507,27.917,27.87,2.33,0.15079416523742395,0.11511404758715396,0.1345791335334858,0.12206824025297683,0.24456849950860715,0.1154314647913013
508,27.957,27.93,2.42,0.1502958078111998,0.11516306777752226,0.13407462028499506,0.12243025812399728,0.2438395464348728,0.11543993432834371
509,28.038,27.98,2.5,0.14978894396234577,0.11521319138919534,0.13357728589294968,0.1227953183170869,0.2431251588256545,0.11544873244232341
510,28.08,28.04,2.41,0.14927364756820924,0.11526439139487446,0.1330875230867852,0.12316323820150282,0.24242577705346083,0.11545785605624581
511,28.123,28.09,2.32,0.14875000741266536,0.11531663989810155,0.13260573072136106,0.12353383404190042,0.24174185987882316,0.11546730319897382
512,28.185,28.15,2.51,0.14821812749651336,0.11536990814767085,0.13213231373939732,0.12390692109730102,0.24107388483452521,0.11547707303722907
513,28.268,28.2,2.48,0.14767812732883429,0.11542416655270703,0.13166768312391425,0.12428231371737959,0.24042234857788616,0.11548716590485271
514,28.288,28.26,2.4,0.14713014219868645,0.11547938469842381,0.13121225584055057,0.12465982543593128,0.23978776721032752,0.11549758332926008
515,28.349,28.31,2.48,0.146574323426585,0.11553553136254976,0.13076645476966647,0.1250392690613384,0.23917067656349073,0.1155083280550242
516,28.41,28.37,2.48,0.14601083859527633,0.1155925745323872,0.1303307086281869,0.1254204567638216,0.23857163245123567,0.11551940406452121
517,28.452,28.42,2.16,0.145439871759372,0.11565048142246,0.12990545188120395,0.12580320015922755,0.2379912108869143,0.11553081659557442
518,28.514,28.48,2.26,0.1448616236334321,0.11570921849271068,0.1294911246434175,0.1261873103891031,0.23743000826534552,0.11554257215604434
519,28.556,28.53,2.35,0.1442763117580912,0.11576875146722429,0.12908817257053828,0.12657259819684136,0.23688864150889763,0.11555467853533402
520,28.62,28.59,2.36,0.14368417064380806,0.11582904535347699,0.12869704674076712,0.1269588739997658,0.23636774817700665,0.11556714481281097
521,28.682,28.64,2.39,0.14308545189179322,0.11589006446213004,0.12831820352634982,0.1273459479571678,0.2358679865383721,0.11557998136318058
522,28.723,28.7,2.54,0.14248042429164368,0.11595177242740767,0.12795210445501784,0.12773363003448532,0.2353900356050519,0.11559319985886625
523,28.784,28.75,2.53,0.1418693738952198,0.11601413222810042,0.12759921606097166,0.1281217300639395,0.23493459512775533,0.11560681326944865
524,28.845,28.81,2.43,0.14125260406634432,0.11607710620922079,0.12726000972500273,0.12851005780198516,0.234502385551769,0.11562083585820285
525,28.887,28.86,2.56,0.14063043550597712,0.11614065610431289,0.12693496150336278,0.12889842298391274,0.2340941479331052,0.11563528317575557
526,28.95,28.92,2.61,0.1400032062526165,0.11620474305838771,0.12662455194505126,0.12928663537589727,0.23371064381460435,0.11565017205087458
527,29.03,28.97,2.42,0.13937127165778068,0.11626932765142996,0.12632926589727633,0.1296745048247546,0.23335265506183178,0.11566552057840244
528,29.051,29.03,2.53,0.13873500433650732,0.11633436992240939,0.12604959229891569,0.13006184130565462,0.23302098365869617,0.115681348104353
529,29.153,29.08,2.58,0.13809479409286918,0.11639982939372925,0.1257860239618704,0.1304484549680572,0.2327164514627925,0.11569767520819656
530,29.174,29.14,2.45,0.1374510478205377,0.1164656650960525,0.12553905734026344,0.13083415618015407,0.23243989992053038,0.11571452368236905
531,29.216,29.19,2.46,0.13680418937841599,0.11653183559346593,0.12530919228745896,0.13121875557212476,0.2321921897421475,0.11573191650904675
532,29.278,29.25,2.62,0.1361546594413249,0.1165982990089654,0.12509693180085785,0.13160206407853775,0.23197420053674864,0.11574987783423137
533,29.319,29.3,2.57,0.13550291532570025,0.11666501305025795,0.12490278175440304,0.1319838929802281,0.23178683040755177,0.11576843293918868
534,29.382,29.36,2.46,0.13484943079027184,0.11673193503587322,0.12472725061874268,0.13236405394594705,0.23163099550757787,0.11578760820928105
535,29.463,29.41,2.57,0.13419469581174087,0.11679902192156055,0.12457084916904329,0.13274235907401963,0.23150762955609305,0.11580743110022887
536,29.524,29.47,2.6,0.13353921633555216,0.11686623032692678,0.12443409018052938,0.13311862093417434,0.2314176833162041,0.11582793010183252
537,29.566,29.52,2.45,0.13288351400195705,0.11693351656224635,0.12431748811191608,0.13349265260964938,0.23136212403407966,0.11584913469918948
538,29.605,29.58,2.53,0.1322281258476485,0.11700083665536375,0.12422155877697737,0.13386426773964857,0.23134193484032387,0.11587107533145169
539,29.667,29.63,2.6,0.13157360398331655,0.1170681463786068,0.12414681900455306,0.13423328056222153,0.23135811411408413,0.11589378334817933
540,29.707,29.69,2.5,0.1309205152475091,0.11713540127563933,0.12409378628734787,0.13459950595765222,0.23141167481052322,0.11591729096335822
541,29.769,29.74,2.5,0.13026944083717892,0.11720255668820076,0.12406297841988555,0.13496275949246575,0.23150364375233365,0.11594163120715448
542,29.892,29.8,2.64,0.12962097591526583,0.1172695677827027,0.12405491312594721,0.1353228574641879,0.23163506088602998,0.11596683787548005
543,29.912,29.85,2.58,0.12897572919564942,0.11733638957666032,0.12407010767578698,0.13567961694699898,0.23180697850382073,0.11599294547743194
544,29.932,29.91,2.47,0.12833432250582344,0.11740297696492656,0.1241090784934075,0.13603285583839705,0.23202046043192928,0.11601998918065476
545,30.015,29.96,2.57,0.127697390327689,0.11746928474567546,0.12417234075419577,0.13638239290693638,0.23227658118630948,0.1160480047546607
546,30.055,30.02,2.56,0.12706557931693252,0.11753526764605468,0.12426040797327147,0.1367280478410477,0.23257642509677728,0.11607702851213247
547,30.117,30.07,2.41,0.12643954780152647,0.11760088034740665,0.12437379158497204,0.13706964129889246,0.23292108540063022,0.11610709724823476
548,30.158,30.13,2.48,0.12581996525994257,0.11766607750995153,0.1245130005139638,0.13740699495917819,0.23331166330685565,0.11613824817797198
549,30.261,30.18,2.53,0.1252075117796898,0.11773081379683656,0.12467854073852706,0.1377399315728588,0.233749267032047,0.11617051887164519
550,30.282,30.24,2.41,0.12460287749680048,0.11779504389747722,0.12487091484660989,0.13806827501565666,0.23423501080915415,0.1162039471884813
551,30.344,30.29,2.39,0.12400676201686303,0.11785872255014607,0.1250906215852557,0.13839185034136212,0.23477001387020122,0.11623857120852361
552,30.384,30.35,2.49,0.12341987381815951,0.11792180456379794,0.12533815540398757,0.13871048383588927,0.2353553994041179,0.11627442916288314
553,30.445,30.4,2.41,0.12284292963742972,0.11798424483914181,0.12561400599271888,0.1390240030720621,0.23599229349085055,0.11631155936245251
554,30.507,30.46,2.3,0.12227665383876472,0.1180459983889748,0.1259186578147707,0.13933223696507063,0.236681824012926,0.11635000012518185
555,30.548,30.51,2.42,0.12172177776612743,0.11810702035778786,0.12625258963561228,0.13963501582847965,0.23742511954564705,0.11638978970201272
556,30.63,30.57,2.44,0.12117903908002554,0.1181672660406368,0.12661627404800463,0.139932171430608,0.23822330822710597,0.11643096620156465
557,30.65,30.62,2.29,0.12064918107891401,0.11822669090125716,0.12701017699432804,0.14022353705103383,0.2390775166092002,0.11647356751367528
558,30.711,30.68,2.39,0.12013295200595478,0.11828525058939707,0.12743475728697368,0.1405089475369408,0.23998886849083795,0.11651763123190464
559,30.793,30.73,2.46,0.11963110434180146,0.11834290095735195,0.12789046612774757,0.14078823935902388,0.2409584837345421,0.11656319457512793
560,30.815,30.79,2.33,0.1191443940840971,0.11839959807570405,0.12837774662721496,0.1410612506667475,0.24198747706768675,0.11661029430835086
561,30.877,30.84,2.33,0.11867358001437074,0.118455298248295,0.12889703332474559,0.14132782134291486,0.2430769568696291,0.11665896666289285
562,30.918,30.9,2.44,0.11821942295299866,0.11850995802648559,0.12944875170976836,0.141587793057718,0.2442280239460311,0.11670924725608627
563,30.981,30.95,2.35,0.11778268500288962,0.11856353422277002,0.13003331774454172,0.14184100932258495,0.24544177029169115,0.11676117101063958
564,31.043,31.01,2.23,0.11736412878256254,0.11861598392381276,0.1306511373886552,0.14208731554417928,0.2467192778432191,0.11681477207380749
565,31.104,31.06,2.38,0.11696451664930602,0.118667264502965,0.13130260612546735,0.14232655907887107,0.24806161722289646,0.1168700837365032
566,31.166,31.12,2.38,0.1165846099131435,0.11871733363230204,0.13198810849070958,0.1425585892879414,0.24946984647506362,0.11692713835248095
567,31.227,31.17,2.19,0.11622516804236667,0.11876614929420663,0.13270801760351103,0.1427832575937295,0.2509450097963623,0.11698596725771135
568,31.288,31.23,2.25,0.11588694786142012,0.11881366979252218,0.13346269470010788,0.1430004175369075,0.25248813626114225,0.11704660069007122
569,31.35,31.28,2.31,0.11557070274192163,0.11885985376331143,0.13425248867051623,0.1432099248350593,0.25410023854333275,0.11710906770946758
570,31.37,31.34,2.2,0.11527718178759083,0.11890466018527865,0.13507773559848185,0.14341163744273494,0.25578231163605225,0.11717339611852079
571,31.411,31.39,2.18,0.11500712901382681,0.11894804838993848,0.1359387583050316,0.14360541561315426,0.25753533157018416,0.11723961238394089
572,31.471,31.45,2.29,0.11476128252263071,0.11898997807163976,0.13683586589592542,0.1437911219617422,0.2593602541331071,0.11730774155873747
573,31.532,31.5,2.2,0.11454037367354584,0.11903040929756359,0.13776935331328144,0.14396862153166703,0.2612580135887392,0.11737780720540449
574,31.593,31.56,2.06,0.11434512625129764,0.11906930251780608,0.13873950089163944,0.1441377818615151,0.2632295214000244,0.11744983132021541
575,31.655,31.61,2.13,0.11417625563085215,0.1191066185756356,0.13974657391873213,0.14429847305517932,0.26527566495495675,0.11752383425875529
576,31.716,31.67,2.13,0.11403446794066396,0.11914231871798493,0.1407908222012588,0.14445056785397484,0.26739730629718617,0.11759983466280757
577,31.757,31.72,1.98,0.11392045922492881,0.1191763646062142,0.14187247963599464,0.14459394171093298,0.2695952808621705,0.11767784938870944
578,31.799,31.78,2.08,0.11383491460567145,0.11920871832716842,0.14299176378659828,0.14472847286717563,0.27187039621973014,0.1177578934372919
579,31.86,31.83,2.18,0.11377850744549539,0.11923934240455433,0.14414887546650082,0.14485404243023917,0.27422343082376616,0.1178399798855236
580,31.922,31.89,2.13,0.11375189851181426,0.11926819981066515,0.1453439983282692,0.1449705344541956,0.27665513276981496,0.11792411981998117
581,31.984,31.94,2.2,0.1137557351433778,0.1192952539784911,0.1465772984598092,0.14507783602141652,0.2791662185610667,0.11801032227226844
582,32.045,32.0,2.38,0.1137906504199157,0.11932046881425554,0.14784892398772212,0.14517583732583286,0.2817573718834704,0.11809859415649886
583,32.13,32.05,2.4,0.11385726233576665,0.11934380871040655,0.1491590046880978,0.1452644317575285,0.2844292423906051,0.11818894020894337
584,32.149,32.11,2.32,0.11395617297843698,0.11936523855906736,0.15050765160503723,0.1453435159884543,0.287182444499081,0.11828136292993015
585,32.191,32.16,2.47,0.1140879677131194,0.1193847237659165,0.1518949566772348,0.14541299005897948,0.29001755619535213,0.1183758625280709
586,32.253,32.22,2.52,0.11425321437430004,0.11940223026443221,0.15332099237300895,0.14547275746492827,0.29293511785494514,0.11847243686688073
587,32.294,32.27,2.39,0.11445246246566947,0.11941772453040751,0.15478581133423544,0.14552272524469997,0.2959356310752075,0.11857108141385753
588,32.354,32.33,2.52,0.11468624236960782,0.11943117359662946,0.15628944602969533,0.1455628040660587,0.2990195575227543,0.11867178919209005
589,32.458,32.38,2.64,0.11495506456753071,0.1194425450676216,0.15783190841840378,0.14559290831219712,0.3021873177968538,0.11877455073446698
590,32.48,32.44,2.56,0.11525941887236611,0.11945180713436662,0.1594131896235124,0.14561295616673375,0.30543929031004863,0.11887935404056167
591,32.54,32.49,2.59,0.11559977367438631,0.11945892858895371,0.1610332596173305,0.1456228696973983,0.30877581018736333,0.11898618453626797
592,32.581,32.55,2.74,0.11597657520155945,0.11946387883912452,0.16269206691791657,0.14562257493826955,0.31219716818552146,0.11909502503625842
593,32.623,32.6,2.69,0.11639024679555399,0.11946662792270556,0.16438953829763847,0.14561200197049337,0.31570360963367244,0.11920585570932646
594,32.685,32.66,2.6,0.11684118820452952,0.11946714652191176,0.1661255785041269,0.14559108500139628,0.3192953333972035,0.11931865404666256
595,32.746,32.71,2.71,0.1173297748938715,0.11946540597749042,0.16790006999411666,0.14555976244185825,0.32297249086627794,0.11943339483310234
596,32.829,32.77,2.74,0.11785635737606745,0.11946137830265509,0.16971287268077467,0.1455179769817344,0.3267351849707974,0.11955005012137544
597,32.849,32.82,2.58,0.11842126056095427,0.11945503619674223,0.17156382369522072,0.14546567566305002,0.33058346922351073,0.11966858920938063
598,32.91,32.88,2.67,0.11902478312755858,0.11944635305852093,0.17345273716303578,0.1454028099506461,0.334517346792988,0.11978897862051445
599,32.971,32.93,2.77,0.11966719691870616,0.11943530299909697,0.17537940399660729,0.14532933579993607,0.3385367696081711,0.11991118208708491
600,33.033,32.99,2.67,0.12034874635950893,0.11942186085437485,0.17734359170416947,0.1452452137214517,0.3426416374961885,0.1200351605368439
601,33.096,33.04,2.67,0.12106964790074858,0.1194060021970697,0.17934504421632821,0.14515040884191327,0.3468317973551023,0.12016087208267602
602,33.22,33.1,2.82,0.12183008948807897,0.11938770334829109,0.18138348173072982,0.14504489096163645,0.3511070423632484,0.12028827201548059
603,33.241,33.15,2.78,0.12263023005789003,0.11936694138873778,0.18345860057540625,0.14492863460814145,0.3554671112268341,0.12041731280027936
604,33.262,33.21,2.66,0.12347019906062781,0.11934369416954466,0.18557007309125287,0.1448016190858363,0.3599116874674629,0.12054794407557687
605,33.283,33.26,2.76,0.12435009601234753,0.11931794032281397,0.18771754753406705,0.14466382852161552,0.3644403987512594,0.1206801126559931
606,33.366,33.32,2.8,0.125269990075288,0.11928965927184619,0.18990064799660358,0.14451525190617182,0.36905281626127096,0.12081376253818234
607,33.406,33.37,2.61,0.12622991966828054,0.11925883124106874,0.19211897435115172,0.14435588313078035,0.37374845411479185,0.12094883491005175
608,33.448,33.43,2.69,0.12722989210781738,0.11922543726565103,0.194372102213176,0.14418572101930888,0.3785267688272046,0.12108526816329904
609,33.55,33.48,2.78,0.12826988328059652,0.11918945920079413,0.19665958292658314,0.14400476935522857,0.3833871588238659,0.12122299790929407
610,33.57,33.54,2.68,0.12934983734833688,0.11915087973068754,0.19898094357116788,0.14381303690345326,0.38832896400148514,0.12136195699833446
611,33.611,33.59,2.71,0.13046966648560263,0.11910968237713662,0.20133568699270638,0.14361053742691948,0.3933514653403613,0.12150207554230755
612,33.673,33.65,2.83,0.13162925065130693,0.11906585150787632,0.20372329185601115,0.14339728969792687,0.398453884568775,0.1216432809407857
613,33.735,33.7,2.82,0.13282843739450478,0.11901937234458775,0.20614321272111377,0.14317331750432719,0.40363538388078135,0.12178549791057253
614,33.797,33.76,2.7,0.13406704169504383,0.118970230970625,0.208594880142644,0.142938649650658,0.40889506570861583,0.12192864851870301
615,33.858,33.81,2.79,0.13534484583961034,0.11891841433844196,0.21107770079243382,0.14269331995428816,0.414231972550895,0.1220726522188886
616,33.92,33.87,2.8,0.13666159933370214,0.11886391027668783,0.21359105760538724,0.14243736723658976,0.41964508685776386,0.12221742589138958
617,33.941,33.92,2.64,0.13801701885006404,0.11880670749691749,0.21613430994869826,0.14217083530910724,0.4251333309740787,0.12236288388629538
618,34.003,33.98,2.72,0.13941078821411532,0.11874679559984883,0.21870679381453395,0.14189377295467318,0.43069556714162077,0.12250893807020145
619,34.064,34.03,2.81,0.14084255842685742,0.11868416508109887,0.22130782203629823,0.14160623390343485,0.4363305975612184,0.12265549787627844
620,34.125,34.09,2.71,0.14231194772567732,0.11861880733634177,0.22393668452855642,0.1413082768037943,0.44203716451552505,0.12280247035773649
621,34.167,34.14,2.73,0.14381854168335034,0.11855071466585276,0.2265926485506001,0.14099996518833394,0.4478139505530716,0.12294976024469
622,34.229,34.2,2.89,0.14536189334541738,0.1184798802784238,0.22927495899347639,0.1406813674348744,0.4536595787340986,0.12309727000441995
623,34.311,34.25,2.91,0.14694152340600303,0.11840629829464387,0.2319828386901642,0.14035255672285785,0.45957261293858537,0.12324489990501765
624,34.352,34.31,2.83,0.14855692042207044,0.11832996374952998,0.23471548874847808,0.14001361098525364,0.46555155823681704,0.12339254808237357
625,34.395,34.36,2.92,0.15020754106606116,0.11825087259447802,0.23747208890620655,0.13966461285615783,0.4715948613227831,0.12354011061045642
626,34.454,34.42,2.97,0.15189281041685052,0.11816902169848748,0.24025179790795875,0.13930564961423397,0.47770091101067047,0.1236874815748098
627,34.496,34.47,2.79,0.1536121222889345,0.1180844088485991,0.2430537539031781,0.1389368131221218,0.4838680387946661,0.12383455314918473
628,34.558,34.53,2.86,0.15536483959972872,0.11799703274948417,0.2458770748647685,0.13855819976194592,0.4900945194722069,0.1239812156752244
629,34.682,34.58,2.94,0.15715029477479747,0.11790689302213472,0.24872085902778837,0.1381699103670668,0.4963785718307022,0.1241273577451208
630,34.702,34.64,2.85,0.1589677901907421,0.11781399020162178,0.2515841853477318,0.1377720501502122,0.5027183593976132,0.12427286628716788
631,34.722,34.69,2.87,0.16081659865536582,0.1177183257339129,0.25446611397802804,0.13736472862809354,0.5091119912536036,0.12441762665413965
632,34.783,34.75,3.05,0.1626959639246057,0.11761990197175873,0.2573656867664892,0.13694805954256775,0.515557522908325,0.12456152271442096
633,34.846,34.8,3.08,0.16460510125561217,0.11751872216966582,0.26028192777047887,0.13652216077835475,0.5220529572382585,0.12470443694580807
634,34.888,34.86,3.02,0.1665431979952738,0.11741479047796455,0.26321384379054474,0.1360871542772732,0.5285962454859258,0.12484625053188345
635,34.949,34.91,3.16,0.16850941420341495,0.11730811193597031,0.2661604249221868,0.13564316594892395,0.5351852883197041,0.12498684346085423
636,35.032,34.97,3.25,0.17050288330985236,0.1171986924642259,0.26912064512538475,0.13519032557773003,0.5418179369534419,0.12512609462673113
637,35.052,35.02,3.12,0.17252271280447476,0.11708653885580536,0.27209346281146785,0.13472876672624942,0.5484919943250314,0.1252638819327187
638,35.135,35.08,3.19,0.17456798495949383,0.11697165876665827,0.2750778214468626,0.13425862663472848,0.5552052163330415,0.12540008239668962
639,35.156,35.13,3.32,0.17663775758299297,0.1168540607049797,0.2780726501731998,0.13378004611694208,0.5619553131304554,0.1255345722586191
640,35.239,35.19,3.25,0.17873106480286918,0.11673375401959929,0.28107686444322955,0.13329316945243325,0.5687399504744635,0.12566722708986156
641,35.3,35.24,3.26,0.1808469178802001,0.116610748887397,0.2840893666719567,0.13279814427530667,0.5755567511311586,0.12579792190415612
642,35.341,35.3,3.44,0.1829843060509782,0.116485056299766,0.2871090469023308,0.13229512145976344,0.5824032963338674,0.12592653127024564
643,35.403,35.35,3.47,0.1851421973950685,0.11635668804814664,0.2901347834847371,0.1317842550025744,0.5892771272937457,0.12605292942598434
644,35.445,35.41,3.42,0.18731953973117837,0.11622565670864433,0.2931654437694612,0.1312657019026805,0.5961757467611795,0.1261769903937985
645,35.507,35.46,3.62,0.18951526153657644,0.11609197562573116,0.29619988481126036,0.1307396220380843,0.6030966206364549,0.12629858809735203
646,35.568,35.52,3.74,0.1917282728902795,0.11595565889502016,0.29923695408519463,0.13020617804017384,0.6100371796281151,0.1264175964792609
647,35.63,35.57,3.63,0.19395746643843784,0.11581672134509684,0.3022754902129271,0.1296655351656103,0.6169948209573882,0.12653388961969908
648,35.65,35.63,3.72,0.19620171838066316,0.1156751785183999,0.3053143236987443,0.12911786116594015,0.6239669101070496,0.12664734185573864
649,35.772,35.68,3.86,0.19845988947604395,0.11553104665115901,0.3083522776745695,0.12856332615514854,0.63095078261307,0.1267578279012702
650,35.792,35.74,3.79,0.20073082606757142,0.11538434265241727,0.3113881686532557,0.12800210247543267,0.6379437458973772,0.12686522296735045
651,35.813,35.79,3.8,0.20301336112365367,0.11523508408218519,0.3144208072894181,0.12743436456152837,0.6449430811400056,0.12696940288282677
652,35.876,35.85,4.0,0.20530631529533405,0.11508328912879007,0.3174489991469779,0.1268602888039781,0.6519460451888351,0.12707024421508614
653,35.958,35.9,3.99,0.207608497987772,0.11492897658548877,0.32047154547248713,0.12628005341175225,0.6589498725050444,0.12716762439077112
654,35.979,35.96,3.92,0.20991870844450114,0.11477216582640637,0.3234872439732237,0.12569383827463093,0.6659517771423231,0.1272614218162984
655,36.04,36.01,4.13,0.21223573684294056,0.11461287678185605,0.3264948895989779,0.12510182482573576,0.67294895475781,0.12735151599801042
656,36.141,36.07,4.28,0.21455836539961215,0.11445112991309435,0.32949327532644346,0.12450419590457851,0.6799385846526662,0.12743778766178757
657,36.162,36.12,4.17,0.2168853694835163,0.11428694618656486,0.33248119294519585,0.12390113562094675,0.6869178318401304,0.12752011887195394
658,36.203,36.18,4.27,0.2192155187361388,0.11412034704768709,0.3354574338444148,0.12329282921987134,0.6938838491388701,0.127598393149317
659,36.263,36.23,4.44,0.22154757819659798,0.11395135439424697,0.33842078979977275,0.12267946294782164,0.7008337792894288,0.12767249558819346
660,36.324,36.29,4.41,0.22388030943048745,0.1137799905494472,0.34137005376017393,0.12206122392019138,0.707764757091572,0.1277423129722803
661,36.365,36.34,4.4,0.22621247166099473,0.1136062782346751,0.3443040206341731,0.12143829999010121,0.7146739115602946,0.12780773388924208
662,36.426,36.4,4.59,0.22854282290088365,0.11343024054204795,0.34722148807588704,0.12081087961855337,0.7215583680982285,0.12786864884388915
663,36.509,36.45,4.66,0.23087012108392607,0.11325190090678795,0.3501212572701316,0.12017915174598562,0.7284152506821479,0.12792495036982116
664,36.528,36.51,4.6,0.233193125194366,0.1130712830794694,0.3530021337164139,0.11954330566527445,0.7352416840612312,0.12797653313940485
665,36.589,36.56,4.8,0.23551059639298075,0.11288841109817531,0.35586292801133074,0.11890353089624853,0.7420347959647055,0.12802329407195231
666,36.651,36.62,4.93,0.23782129913828304,0.11270330926060654,0.35870245662887035,0.1182600170617951,0.7487917193164846,0.1280651324399608
667,36.711,36.67,4.82,0.24012400230139036,0.11251600209620295,0.36151954269811903,0.11761295376567568,0.7555095944544149,0.12810194997327645
668,36.752,36.73,4.92,0.2424174802730721,0.11232651433835987,0.3643130167778892,0.11696253047221547,0.7621855713517387,0.12813365096104912
669,36.813,36.78,5.13,0.2447005140614809,0.11213487089684832,0.3670817176278252,0.1163089363880795,0.7688168118384076,0.12816014235135434
670,36.874,36.84,5.09,0.2469718923791013,0.11194109683056022,0.36982449297561315,0.1156523603463725,0.7754004918198731,0.12818133384836883
671,36.98,36.89,5.09,0.24923041271749213,0.11174521732069893,0.37254020027997187,0.11499299069329083,0.7819338034909715,0.12819713800699584
672,37.001,36.95,5.24,0.25147488240845695,0.11154725764452329,0.3752277074891105,0.11433101517752962,0.7884139575425093,0.12820747032484076
673,37.042,37.0,5.33,0.2537041196703271,0.11134724314973538,0.37788589379432713,0.11366662084260756,0.7948381853581639,0.12821224933143618
674,37.103,37.06,5.24,0.2559169546380815,0.11114519922958498,0.38051365037840645,0.11299999392222401,0.8012037411992948,0.12821139667461384
675,37.163,37.11,5.44,0.2581122303760317,0.11094115129875853,0.3831098811584642,0.11233131973871918,0.8075079043752444,0.12820483720392176
676,37.266,37.17,5.6,0.2602888038717953,0.11073512477012486,0.3856735035228893,0.11166078260468298,0.8137479813966856,0.12819249905098803
677,37.286,37.22,5.54,0.2624455470102831,0.1105271450324216,0.3882034490620516,0.11098856572775952,0.8199213081095778,0.1281743137067364
678,37.308,37.28,5.65,0.2645813475264322,0.1103172374289826,0.39069866429244515,0.11031485111873424,0.826025251807296,0.12815021609536761
679,37.368,37.33,5.87,0.2666951099354501,0.11010542723762051,0.3931581113739307,0.10963981950304742,0.8320572133185479,0.12812014464502897
680,37.431,37.39,5.85,0.2687857564394015,0.10989173965178227,0.39558076881978194,0.10896365023591119,0.8380146290687417,0.12808404135510215
681,37.491,37.44,5.86,0.2708522278090553,0.10967619976308529,0.3979656321992737,0.10828652122120633,0.8438949731125438,0.12804185186004732
682,37.533,37.5,6.01,0.27289348424000504,0.10945883254532277,0.4003117148325643,0.10760860883431614,0.8496957591354217,0.1279935254897434
683,37.593,37.55,6.05,0.2749085061821736,0.10923966284000089,0.4026180484775907,0.10693008784902777,0.8554145424220486,0.12793901532626317
684,37.677,37.61,5.98,0.27689629514191694,0.10901871534344514,0.40488368400865105,0.10625113136861189,0.8610489217894857,0.12787827825702275
685,37.698,37.66,6.17,0.2788558744560194,0.1087960145954952,0.4071076920862998,0.10557191076118433,0.8665965414830833,0.1278112750242493
686,37.781,37.72,6.37,0.2807862900369279,0.108571584969802,0.40928916381819047,0.10489259559945117,0.8720550930330458,0.12773797027071898
687,37.823,37.77,6.32,0.282686611088607,0.10834545066573711,0.41142721141056754,0.1042133536049131,0.8774223170696229,0.1276583325817263
688,37.864,37.83,6.44,0.2845559307924245,0.10811763570192502,0.413520968810154,0.10353435059655712,0.8826960050949253,0.12757233452325326
689,37.904,37.88,6.68,0.2863933669625321,0.1078881639114005,0.41556959233612706,0.10285575044400457,0.8878740012094575,0.12747995267630993
690,37.966,37.94,6.65,0.28819806267029024,0.10765705893838025,0.4175722613017688,0.10217771502502006,0.8929542037915843,0.1273811676674165
691,38.027,37.99,6.63,0.28996918683737866,0.10742434423662071,0.4195281786252806,0.1015004041872315,0.8979345671282851,0.1272759641951919
692,38.089,38.05,6.79,0.29170593479731294,0.10719004306932108,0.42143657142920754,0.100823975713867,0.9028131029956763,0.12716433105300806
693,38.15,38.1,6.85,0.2934075288251581,0.10695417851051474,0.4232966916279217,0.10014858529328434,0.9075878821879116,0.12704626114766177
694,38.21,38.16,6.56,0.29507321863528574,0.10671677344787958,0.4251078165026166,0.09947438649204716,0.912257035993151,0.1269217515140172
695,38.251,38.21,6.72,0.2967022818470462,0.1064778505868899,0.4268692492632704,0.0988015307313038,0.91681875761532,0.12679080332558468
696,38.394,38.27,6.88,0.2982940244182411,0.1062374324562374,0.428580319597075,0.09813016726623423,0.9212713035403834,0.12665342190102574
697,38.415,38.32,6.85,0.29984778104627974,0.10599554141445997,0.43024038420286936,0.09746044316835482,0.9256129948457829,0.12650961670661032
698,38.435,38.38,6.92,0.30136291553689676,0.10575219965773744,0.4318488273110612,0.0967925033105212,0.9298422184516141,0.12635940135469204
699,38.456,38.43,7.11,0.30283882114031174,0.10550742922883574,0.4334050611883345,0.09612649035454386,0.9339574283120922,0.12620279359829362
700,38.517,38.49,7.07,0.30427492085475694,0.10526125202719086,0.4349085266262176,0.09546254474138259,0.9379571465458932,0.1260398153219013
701,38.558,38.54,7.08,0.30567066769737367,0.10501368982012066,0.43635869341244005,0.09480080468389261,0.9418399645040432,0.12587049252856697
702,38.621,38.6,7.25,0.30702554494257195,0.10476476425513795,0.43775506078397586,0.09414140616206657,0.9456045437741115,0.12569485532340996
703,38.702,38.65,7.32,0.3083390663280375,0.1045144968733157,0.4390971578607271,0.09348448292067067,0.9492496171195537,0.12551293789361076
704,38.742,38.71,7.21,0.30961077622864025,0.10426290912363688,0.4403845440588879,0.09283016646913564,0.9527739893531136,0.12532477848499118
705,38.782,38.76,7.37,0.31084024979851804,0.10401002237825678,0.44161680948317933,0.09217858608354315,0.9561765381432675,0.12513041937528158
706,38.843,38.82,7.49,0.31202709308160653,0.10375585794861202,0.442793575297412,0.09152986881052788,0.9594562147527603,0.12492990684418266
707,38.904,38.87,7.44,0.3131709430908721,0.10350043710232444,0.4439144940731748,0.09088413947288668,0.962612044708356,0.1247232911403346
708,38.965,38.93,7.68,0.3142714678564976,0.10324378108086317,0.4449792501166486,0.09024152067667104,0.9656431284009762,0.12451062644531327
709,39.027,38.98,7.87,0.31532836644327544,0.10298591111794037,0.44598755977351695,0.08960213281954851,0.9685486416154943,0.12429197083477231
710,39.089,39.04,7.84,0.3163413689375009,0.1027268484586203,0.4469391717117856,0.08896609410022917,0.9713278359895826,0.12406738623684481
711,39.15,39.09,7.79,0.31731023640371103,0.10246661437911393,0.4478338671821959,0.08833352052874603,0.9739800394012054,0.12383693838790687
712,39.17,39.15,8.04,0.3182347608116798,0.10220523020721849,0.44867146025588817,0.08770452593735376,0.9765046562845667,0.12360069678579322
713,39.232,39.2,8.11,0.3191147649341542,0.10194271734334082,0.4494517980390146,0.08707922199177645,0.9789011678745405,0.12335873464054319
714,39.292,39.26,7.94,0.31995010221588577,0.10167909728202497,0.45017476086403363,0.08645771820251034,0.9811691323797738,0.12311112882274798
715,39.353,39.31,8.06,0.32074065661455303,0.10141439163389666,0.45084026245732856,0.08584012193590168,0.9833081850847984,0.12285795980956446
716,39.435,39.37,8.15,0.3214863424141982,0.10114862214794229,0.4514482500825815,0.08522653842477784,0.9853180383816272,0.12259931162845344
717,39.456,39.42,8.06,0.32218710401181055,0.100881810734053,0.45199870465905573,0.08461707077850351,0.9871984817314167,0.12233527179869888
718,39.515,39.48,8.1,0.3228429156776935,0.10061397948578006,0.45249164085369736,0.08401181999245545,0.9889493815568494,0.12206593127076817
719,39.557,39.53,8.29,0.32345378129025393,0.10034515070326376,0.45292710714585876,0.08341088495702492,0.9905706810659389,0.12179138436357496
720,39.619,39.59,8.22,0.3240197340458709,0.10007534691630247,0.4533051858634825,0.08281436246631889,0.9920624000080317,0.12151172869970142
721,39.681,39.64,8.14,0.324540836144538,0.09980459090752175,0.4536259931896851,0.0822223472267299,0.9934246343628583,0.12122706513862967
722,39.741,39.7,8.26,0.3250171784520116,0.0995329057355896,0.45388967913879025,0.08163493186550254,0.9946575559635797,0.12093749770802247
723,39.803,39.75,8.3,0.3254488801392509,0.09926031475840194,0.4540964275010029,0.08105220693937006,0.9957614120548594,0.12064313353308834
724,39.865,39.81,8.17,0.3258360882999782,0.09898684165614682,0.45424645575506856,0.0804742609432898,0.9967365247870651,0.12034408276406966
725,39.906,39.86,8.28,0.3261789775472024,0.09871251045415415,0.45434001494841386,0.07990118031929254,0.9975832906477337,0.12004045850190156
726,39.967,39.92,8.36,0.3264777495895436,0.098437345545451,0.4543773895444357,0.07933304946546284,0.9983021798314835,0.11973237672210164
727,40.03,39.97,8.25,0.3267326327882008,0.09816137171295838,0.4543588972368181,0.0787699507450664,0.998893735549604,0.11941995619695803
728,40.072,40.03,8.24,0.32694388169539845,0.09788461415128182,0.4542848887309539,0.07821196449583948,0.9993585732805959,0.11910331841608852
729,40.176,40.08,8.37,0.3271117765751427,0.09760709848806004,0.45415574749269294,0.07765916903945748,0.999697379962987,0.11878258750544071
730,40.197,40.14,8.31,0.327236622907119,0.09732885080483789,0.4539718894647699,0.07711164069118742,0.9999109131317911,0.11845789014479444
731,40.239,40.19,8.24,0.32731875087457524,0.0970498976574189,0.45373376275135424,0.07656945376969557,1.0,0.11812935548381895
732,40.28,40.25,8.37,0.32735851483704353,0.09677026609564018,0.45344184727121384,0.07603268060694014,0.9999655364865412,0.11779711505672877
733,40.321,40.3,8.42,0.3273562927887855,0.09648998368249354,0.453096654380021,0.07550139155803666,0.9998084861921606,0.11746130269557847
734,40.402,40.36,8.28,0.32731248580387173,0.09620907851250156,0.45269872646235465,0.07497565501095647,0.9995298793247318,0.11712205444223876
735,40.465,40.41,8.39,0.3272275174688253,0.09592757922925381,0.45224863649396585,0.07445553739593005,0.9991308115755417,0.11677950845910445
736,40.527,40.47,8.45,0.32710183330375237,0.09564551504201572,0.4517469875748846,0.0739411031944746,0.9986124429481569,0.11643380493859369
737,40.547,40.52,8.26,0.32693590017286916,0.09536291574134166,0.4511944124339695,0.0734324149480374,0.9979759965415435,0.11608508601150799
738,40.608,40.58,8.25,0.32673020568529754,0.09507981171364678,0.4505915729054808,0.07292953326633364,0.9972227572891531,0.11573349565432972
739,40.67,40.63,8.37,0.3264852575869615,0.09479623395471616,0.44993915937821205,0.07243251683553946,0.9963540706557118,0.11537917959553838
740,40.712,40.69,8.28,0.32620158314437114,0.09451221408214966,0.44923789021768695,0.07194142242654115,0.995371341293455,0.11502228522102494
741,40.772,40.74,8.21,0.32587972852102126,0.09422778434675994,0.4484885111619209,0.0714563049034361,0.9942760316595155,0.11466296147867945
742,40.833,40.8,8.32,0.32552025814706514,0.09394297764295635,0.4476917946912358,0.07097721723245097,0.9930696605961516,0.11430135878222238
743,40.935,40.85,8.37,0.3251237540828871,0.0936578275181538,0.4468485393726116,0.07050421049140612,0.9917538018754968,0.11393762891434571
744,40.955,40.91,8.22,0.32469081537719185,0.09337236818124116,0.4459595691790801,0.07003733387982083,0.9903300827105227,0.11357192492923332
745,40.996,40.96,8.34,0.32422205742023436,0.09308663451014335,0.4450257327847169,0.06957663472973492,0.9888001822339172,0.11320440105453931
746,41.057,41.02,8.42,0.32371811129281114,0.09280066205851863,0.44404790283590134,0.06912215851731425,0.9871658299466252,0.11283521259291275
747,41.099,41.07,8.31,0.3231796231116325,0.0925144870616474,0.4430269751996542,0.06867394887530577,0.9854288041378454,0.11246451582316538
748,41.161,41.13,8.32,0.322607253371671,0.09222814644158742,0.4419638681899726,0.068232047606418,0.9835909302783337,0.11209246790118324
749,41.222,41.18,8.41,0.32200167628605186,0.09194167781168736,0.4408595217731159,0.06779649469771945,0.9816540793889281,0.11171922676067982
750,41.283,41.24,8.27,0.3213635791240308,0.09165511948055304,0.4397148967528133,0.06736732833614739,0.97962016638628,0.11134495101387591
751,41.36,41.29,8.18,0.32069366154759227,0.09136851045555,0.4385309739363544,0.06694458492519793,0.9774911484078211,0.11096979985217462
752,41.398,41.35,8.29,0.31999263494719565,0.09108189044590292,0.43730875328250457,0.06652829910283896,0.9752690231180225,0.1105939329468817
753,41.44,41.4,8.3,0.3192612217772154,0.09079529986542245,0.43604925303219505,0.06611850376064946,0.9729558269979919,0.11021751035000789
754,41.52,41.46,8.13,0.3185001548916635,0.09050877983485538,0.4347535088229982,0.0657152300641431,0.9705536336204318,0.10984069239518561
755,41.541,41.51,8.2,0.31771017688082887,0.09022237218382842,0.43342257278849955,0.06531850747419118,0.9680645519119535,0.1094636395987347
756,41.601,41.57,8.25,0.3168920394094896,0.08993611945234257,0.432057512643826,0.06492836376942542,0.9654907244047404,0.10908651256091766
757,41.642,41.62,8.12,0.3160465025573552,0.08965006489177546,0.43065941075874486,0.06454482506948135,0.9628343254795497,0.10870947186743346
758,41.723,41.68,8.08,0.31517433416235197,0.08936425246536005,0.4292293632198357,0.06416791585895308,0.9600975596020458,0.10833267799120964
759,41.785,41.73,8.16,0.31427630916730803,0.08907872684812387,0.427768478883225,0.06379765901196315,0.9572826595544395,0.10795629119455831
760,41.826,41.79,8.04,0.3133532089705414,0.08879353342627905,0.42627787841931286,0.06343407581728068,0.9543918846644144,0.10758047143176204
761,41.887,41.84,7.92,0.3124058207808218,0.08850871829604803,0.4247586933508458,0.0630771860039273,0.9514275190332853,0.10720537825214976
762,41.949,41.9,7.94,0.3114349369771645,0.08822432826189365,0.42321206508564807,0.06272700776719889,0.948391869765303,0.10683117070371448
763,42.01,41.95,7.95,0.3104413544739126,0.08794041083410067,0.42163914394531155,0.06238355779500551,0.9452872651999611,0.1064580072373167
764,42.03,42.01,7.75,0.3094258740915821,0.08765701422563495,0.4200410881911915,0.06204685129440436,0.9421160531490762,0.10608604561151719
765,42.092,42.06,7.8,0.3083892999339616,0.08737418734819602,0.41841906304911636,0.06171690201818481,0.9388805991403189,0.10571544279809059
766,42.174,42.12,7.86,0.307332438771976,0.08709197980738076,0.4167742397343076,0.06139372229136424,0.935583284668778,0.10534635488828534
767,42.194,42.17,7.71,0.3062560994348251,0.08681044189688852,0.41510779447808915,0.06107732303746418,0.9322265054580542,0.10497893699990933
768,42.256,42.23,7.68,0.30516109220886595,0.08652962459172223,0.4134209075579753,0.06076771380447115,0.9288126697322993,0.104613343185333
769,42.4,42.28,7.76,0.30404822824464045,0.0862495795403661,0.4117147623326428,0.06046490279043526,0.9253441965005668,0.1042497263405049
770,42.422,42.34,7.63,0.30291831897239235,0.08597035905593339,0.40999054428317744,0.06016889686869386,0.9218235138547901,0.1038882381150706
771,42.442,42.39,7.43,0.3017721755263813,0.08569201610627093,0.4082494400618745,0.05987970161271014,0.9182530572826522,0.1035290288236758
772,42.484,42.45,7.49,0.3006106081782869,0.08541460430298994,0.4064926365497757,0.05959732132049698,0.914635267996548,0.10317224735852354
773,42.526,42.5,7.47,0.299434425779995,0.08513817788936842,0.4047213199240761,0.059321759038561364,0.9109725912797421,0.1028180411032452
774,42.587,42.56,7.3,0.29824443521606725,0.08486279172705002,0.4029366747365206,0.059053016585267536,0.907267474850693,0.10246655584814286
775,42.648,42.61,7.35,0.297041440866184,0.08458850128145691,0.40113988300390413,0.0587910945734939,0.9035223672463545,0.10211793570686545
776,42.731,42.67,7.43,0.2958262440778263,0.084315362605841,0.39933212331177015,0.058535992432458404,0.899739716225132,0.10177232303458725
777,42.752,42.72,7.29,0.2945996426494209,0.08404343232391356,0.39751456993235224,0.05828770842861272,0.8959219671900586,0.10142985834776484
778,42.814,42.78,7.24,0.29336243032410547,0.08377276761101954,0.3956883919576922,0.05804623968556267,0.8920715616326695,0.10109068024555452
779,42.856,42.83,7.35,0.29211539629418815,0.08350342617384912,0.39385475244871754,0.057811582203045726,0.888190935597999,0.10075492533297231
780,42.918,42.89,7.29,0.29085932471630027,0.08323546622869621,0.3920148076009127,0.05758373087504434,0.8842825181710702,0.10042272814587402
781,42.979,42.94,7.14,0.28959499423719226,0.08296894647827338,0.39016970592711203,0.057362679507115835,0.8803487299852043,0.10009422107782255
782,43.041,43.0,7.22,0.2883231775300912,0.082703926087081,0.3883205874578557,0.05714842083299297,0.8763919817524236,0.0997695343088978
783,43.123,43.05,7.23,0.2870446408415334,0.08244046465531073,0.3864685829596912,0.056940946530468155,0.8724146728161769,0.0994487957364903
784,43.144,43.11,7.05,0.2857601435485857,0.08217862219124507,0.38461481317177576,0.056740247236531725,0.8684191897265648,0.09913213090810909
785,43.185,43.16,7.08,0.2844704377263612,0.0819184590821075,0.38276038806111196,0.05654631256170807,0.8644079048381684,0.09881966295622831
786,43.247,43.22,7.19,0.2831762677257153,0.08166003606332432,0.38090640609673493,0.056359131103522475,0.8603831749305197,0.09851151253519473
787,43.308,43.27,7.08,0.2818783697609806,0.08140341418617433,0.3790539535431378,0.056178690459039185,0.8563473398511846,0.09820779776021875
788,43.369,43.33,7.06,0.2805774715075626,0.08114865478382728,0.37720410377314617,0.05600497723644207,0.8523027211813674,0.09790863414847449
789,43.492,43.38,7.2,0.27927429170917156,0.08089581943579809,0.37535791660030476,0.05583797706567428,0.8482516209239198,0.09761413456233353
790,43.512,43.44,7.17,0.27796953979444017,0.08064496993085993,0.3735164376307053,0.05567767460818309,0.84419632021363,0.09732440915474926
791,43.532,43.49,7.01,0.27666391550268404,0.0803961682284588,0.3716806976340638,0.05552405356581673,0.8401390780496836,0.09703956531679785
792,43.573,43.55,7.06,0.2753581085185962,0.08014947641866271,0.3698517119337782,0.05537709668890906,0.8360821300502217,0.09675970762736742
793,43.635,43.6,7.08,0.2740527981157425,0.07990495668066239,0.36803047981565,0.05523678578357483,0.832027687228942,0.09648493780497407
794,43.695,43.66,6.91,0.2727486528088114,0.07966267123982494,0.3662179839549395,0.05510310171822737,0.8279779347936895,0.09621535466167772
795,43.758,43.71,6.95,0.27144633001463453,0.07942268232329683,0.36441518986142724,0.05497602442932472,0.8239350309669362,0.0959510540590738
796,43.84,43.77,7.09,0.2701464757220176,0.07918505211415922,0.3626230453421566,0.05485553292634829,0.8199011058280039,0.09569212886634258
797,43.86,43.82,6.95,0.26884972417041114,0.07894984270415295,0.36084247998154495,0.05474160529602114,0.8158782601768338,0.09543866892034614
798,43.902,43.88,6.93,0.2675566975374263,0.07871711604500994,0.35907440463852075,0.0546342187057915,0.8118685644190856,0.09519076098776853
799,43.963,43.93,7.07,0.2662680056351528,0.07848693389844719,0.35731971096029774,0.05453334940663422,0.807874057472356,0.09494848872929668
800,44.025,43.99,7.04,0.2649842456152141,0.07825935778488856,0.3555792709123724,0.05443897273523285,0.8038967456933398,0.09471193266583769
801,44.088,44.04,6.94,0.2637060016824942,0.0780344489309753,0.3538539363243365,0.05435106311558796,0.7999386018257896,0.09448117014676478
802,44.15,44.1,7.05,0.2624338448174881,0.0778122682159167,0.35214453845113086,0.054269594060064694,0.796001563969189,0.09425627532017869
803,44.21,44.15,7.07,0.26116833250726446,0.0775928761167209,0.35045188754942463,0.05419453816985805,0.7920875345681172,0.09403731910516423
804,44.23,44.21,6.9,0.25991000848507884,0.0773763326523324,0.3487767724688803,0.054125867134826464,0.7881983794223494,0.09382436916601533
805,44.292,44.26,6.91,0.2586594024787169,0.07716269732669644,0.34711996025811725,0.054063551732641366,0.7843359267177926,0.09361748988839723
806,44.376,44.32,7.03,0.2574170299676734,0.0769520290707698,0.34548219578521905,0.054007561827216485,0.7805019660784063,0.09341674235741303
807,44.396,44.37,6.91,0.25618339194929357,0.07674438618350386,0.34386420137265655,0.0539578663663977,0.7766982476392736,0.09322218433754324
808,44.459,44.43,6.89,0.25495897471399825,0.07653982627183747,0.3422666764465202,0.053914433378903934,0.772926481141009,0.0930338702544352
809,44.521,44.48,7.03,0.2537442496296968,0.07633840618975936,0.3406902971999648,0.05387722997051315,0.769188335045702,0.09285185117852301
810,44.585,44.54,7.0,0.2525396729354542,0.07614018197652435,0.3391357162707875,0.05384622231947531,0.7654854356746532,0.09267617481046178
811,44.646,44.59,6.88,0.2513456855444583,0.07594520879412638,0.3376035624330891,0.05382137567110942,0.7618193663682162,0.09250688546835771
812,44.729,44.65,6.97,0.2501627128563291,0.07575354086413719,0.33609444030299945,0.0538026543315157,0.7581916666681499,0.09234402407677274
813,44.75,44.7,6.98,0.24899116457886078,0.07556523140400664,0.33460893005850373,0.05379002166031294,0.7546038315229708,0.09218762815747612
814,44.791,44.76,6.77,0.2478314345593555,0.07538033256290051,0.3331475871734762,0.05378344006230259,0.7510573105168894,0.09203773182191163
815,44.832,44.81,6.78,0.24668390062574194,0.07519889535714643,0.33171094216609714,0.053782870977977126,0.7475535071229596,0.091894365765349
816,44.895,44.87,6.9,0.24554892443766277,0.07502096960537176,0.3302995003619029,0.05378827487281848,0.7440937779811212,0.0917575572626903
817,44.956,44.92,6.73,0.24442685134767614,0.0748466038634395,0.3289137416718068,0.05379961122535246,0.7406794322018065,0.09162733016590997
818,45.038,44.98,6.67,0.24331801027268277,0.07467584535930823,0.3275541203854702,0.053816838513934165,0.7373117306957867,0.09150370490311523
819,45.079,45.03,6.82,0.24222271357567524,0.0745087399279573,0.32622106498037845,0.053839914202248915,0.7339918855309258,0.09138669847922014
820,45.14,45.09,6.82,0.24114125695793004,0.0743453319465194,0.32491497794691543,0.05386879472351701,0.7307210593165393,0.0912763244782272
821,45.181,45.14,6.69,0.24007391936181452,0.07418566426975551,0.32363623562968047,0.05390343546339005,0.7275003646160805,0.09117259306710972
822,45.243,45.2,6.78,0.23902096288441751,0.07402977816599875,0.3223851880852494,0.05394379074153307,0.7243308633889295,0.09107551100128582
823,45.324,45.25,6.79,0.2379826327022412,0.07387771325368801,0.32116215895657463,0.053989813791900265,0.7212135664621582,0.09098508163166881
824,45.367,45.31,6.54,0.23695915700721631,0.07372950743860651,0.31996744536425165,0.05404145674173088,0.7181494330332315,0.09090130491327289
825,45.387,45.36,6.52,0.23595074695431398,0.07358519685194144,0.31880131781491555,0.05409867058932539,0.7151393702046783,0.09082417741534975
826,45.448,45.42,6.62,0.23495759662102836,0.07344481578928488,0.3176640201270835,0.05416140518069988,0.7121842325517985,0.09075369233303272
827,45.509,45.47,6.47,0.23397988297899805,0.07330839665070005,0.3165557693748198,0.054229609185243985,0.7092848217244563,0.09068983950047006
828,45.551,45.53,6.41,0.23301776587801912,0.07317596988197977,0.31547675584963036,0.05430323007052356,0.7064418860839656,0.09063260540543787
829,45.611,45.58,6.53,0.23207138804267757,0.07304756391722816,0.3144271430409636,0.0543822140763834,0.7036561203760316,0.09058197320543004
830,45.713,45.64,6.5,0.2311408750818148,0.07292320512289438,0.313407067635635,0.054466506188512426,0.7009281654407038,0.09053792274522228
831,45.734,45.69,6.32,0.23022633551102903,0.07280291774338259,0.31241663953643717,0.05455605011163083,0.6982586079603028,0.09050043057590713
832,45.775,45.75,6.37,0.22932786078841097,0.07268672384835705,0.311455941900146,0.054650788242455436,0.6956479802463131,0.09046946997539317
833,45.836,45.8,6.39,0.228445525363718,0.07257464328185788,0.3105250311951265,0.054750661642596406,0.6930967600662735,0.09044501097035736
834,45.898,45.86,6.15,0.22757938674120537,0.07246669361333916,0.3096239372787617,0.05485561001153708,0.6906053705117139,0.09042702035964044
835,45.94,45.91,6.1,0.22672948555633685,0.07236289009074319,0.3087526634949554,0.05496557165985731,0.6881741799081755,0.09041546173907854
836,46.042,45.97,6.18,0.22589584566658247,0.07226324559573245,0.30791118679197216,0.05508048348287451,0.6858035017683148,0.09041029552776893
837,46.062,46.02,6.03,0.22507847425648295,0.07216777060121198,0.3070994578609003,0.055200280934881135,0.6834935947890176,0.09041147899577104
838,46.102,46.08,5.97,0.22427736195710682,0.07207647313128623,0.3063174012950195,0.05532489800415016,0.681244662893361,0.09041896629324643
839,46.163,46.13,6.02,0.22349248297995078,0.07198935872380649,0.30556491577031025,0.055454267188870976,0.6790568553181696,0.09043270848103988
840,46.225,46.19,5.98,0.2227237952652708,0.07190643039566744,0.30484187424728515,0.05558831947416021,0.6769302667478475,0.09045265356269822
841,46.289,46.24,5.82,0.22197124064478055,0.07182768861100412,0.3041481241942608,0.055726984310264925,0.6748649374951088,0.09047874651791794
842,46.35,46.3,5.89,0.22123474501863438,0.07175313125242393,0.3034834878321426,0.055870189592045996,0.6728608537291876,0.09051092933740983
843,46.435,46.35,5.87,0.22051421854661737,0.07168275359538766,0.30284776240078004,0.056017861639801526,0.6709179477520654,0.09054914105916816
844,46.455,46.41,5.64,0.21980955585349132,0.07161654828582878,0.30224072044695993,0.05616992518146474,0.6690360983232082,0.0905933178061353
845,46.496,46.46,5.62,0.2191206362484662,0.07155450532108215,0.3016621101341251,0.05632630333619833,0.6672151310332419,0.09064339282525542
846,46.557,46.52,5.66,0.21844732395876534,0.07149661203418371,0.3011116555739194,0.05648691759940513,0.6654548187269244,0.09069929652791556
847,46.659,46.57,5.5,0.2177894683772265,0.07144285308160113,0.3005890571796692,0.05665168782917442,0.6637548819756564,0.09076095653177724
848,46.679,46.63,5.45,0.2171469043238274,0.07139321043445741,0.30009399204189413,0.05682053223418353,0.6621149895996392,0.09082829770400602
849,46.721,46.68,5.56,0.2165194523209542,0.071347663373312,0.29962611432587394,0.056993367363076086,0.6605347592396487,0.09090124220590642
850,46.785,46.74,5.53,0.21590691888217503,0.07130618848655491,0.29918505569123127,0.05717010809533038,0.659013757978275,0.0909797095389635
851,46.825,46.79,5.4,0.21530909681424554,0.07126875967245107,0.2987704257334089,0.05735066763361286,0.6575515030103849,0.09106361659228517
852,46.866,46.85,5.45,0.2147257655320544,0.07123534814485127,0.298381812446869,0.05753495749759274,0.656147462362499,0.09115287769143009
853,46.929,46.9,5.45,0.21415669138621093,0.07120592244256743,0.2980187827098071,0.057722887519176425,0.654801055660746,0.09124740464859808
854,47.012,46.96,5.22,0.213601628002983,0.07118044844239446,0.2976808827901739,0.05791436583911188,0.6535116549470135,0.0913471068141572
855,47.033,47.01,5.2,0.21306031663628752,0.07115888937575582,0.2973676388727867,0.058109298904925444,0.6522785855428562,0.09145189112948585
856,47.094,47.07,5.24,0.212532486531415,0.0711412058489538,0.29707855760730206,0.05830759147017879,0.6511011269606303,0.09156166218111525
857,47.156,47.12,5.08,0.21201785530014186,0.07112735586701287,0.29681312667681287,0.058509146595054226,0.6499785138611844,0.09167632225616777
858,47.217,47.18,5.04,0.2115161293068351,0.07111729486111193,0.2965708153867992,0.05871386564829419,0.6489099370572814,0.0917957713990958
859,47.279,47.23,5.17,0.21102700406508632,0.07111097571960866,0.296351075274066,0.058921648310540656,0.6478945445617504,0.09191990746973104
860,47.32,47.29,5.16,0.21055016464435267,0.07110834882265371,0.2961533407351984,0.059132392579127876,0.6469314426792292,0.09204862620265056
