,Time_Host,Time_Arduino,easingdata,CH1_Oxy,CH1_Deoxy,CH2_Oxy,CH2_Deoxy,CH3_Oxy,CH3_Deoxy
0,1.126,0.04,0.0,0.47137945216587074,0.8258721664933615,0.0,0.4847579651007038,0.8210176074530277,0.0
1,1.147,0.1,0.0,0.4766937327682072,0.8244717351224716,0.005352652426028579,0.4802582463109612,0.8169844330632849,0.004572652748257849
2,1.167,0.15,0.0,0.4820042848042792,0.8230821673344259,0.010693565389101068,0.4757933965790966,0.8129829338132478,0.009109381779442156
3,1.188,0.21,0.0,0.4873091712402824,0.8217041159531987,0.016020696101445745,0.4713650316475318,0.8090146092504716,0.01360848743307343
4,1.209,0.26,0.0,0.4926064657879,0.8203382277162256,0.021332016587903603,0.4669747331875219,0.8050809279238653,0.01806830522952039
5,1.23,1.06,0.0,0.4978942546963155,0.8189851427979211,0.02662551552681973,0.46262404761117404,0.8011833261759886,0.022487207239501594
6,1.25,1.11,0.0,0.5031706385161264,0.8176454943443223,0.031899200059846346,0.4583144849435454,0.7973232069876863,0.026863603394179713
7,1.311,1.17,0.0,0.5084337338322048,0.8163199080191337,0.037151097568018314,0.4540475177551708,0.7935019388758845,0.031195942734910765
8,1.394,1.22,0.0,0.5136816749626111,0.8150090015614005,0.04237925741152992,0.449824580155185,0.7897208548452245,0.035482714601878754
9,1.414,1.28,0.0,0.5189126156207299,0.8137133843549975,0.04758175263070536,0.4456470668450206,0.7859812513940639,0.03972244976100887
10,1.538,1.33,0.06,0.5241247305378458,0.8124336570100729,0.05275668160571126,0.4415163322324956,0.7822843875752405,0.04391372146871013
11,1.558,1.39,0.07,0.5293162170434261,0.8111704109565514,0.057902169672597995,0.43743368960596873,0.7786314841118683,0.0480551464741365
12,1.579,1.45,0.01,0.5344852966004604,0.8099242280497652,0.06301637069328019,0.4334004103682055,0.7750237225683557,0.05214538595874653
13,1.619,1.5,0.03,0.5396302162934135,0.8086956801882259,0.06809746857712586,0.4294177233296208,0.7714622445768139,0.05618314641297237
14,1.682,1.55,0.05,0.5447492502667336,0.8074853289434725,0.07314367875199253,0.425486814060559,0.7679481511190014,0.060167180449827475
15,1.723,1.61,-0.0,0.5498407011122816,0.8062937252018408,0.07815324958281412,0.42160882430218594,0.764482501863892,0.06409628755535512
16,1.786,1.66,-0.0,0.5549029012043463,0.8051214088179749,0.08312446373612095,0.41778485143549626,0.7610663145608295,0.06796931477596155
17,1.929,1.72,0.05,0.5599342139810782,0.8039689082799267,0.08805563948913606,0.4140159480079342,0.7577005644880783,0.07178515734284688
18,1.95,1.77,0.06,0.56493303517126,0.8028367403857404,0.0929451319823209,0.4103031213171489,0.754386183956439,0.07554275923391571
19,1.971,1.83,0.04,0.5698977939652986,0.8017254099314954,0.0977913344143879,0.40664733305146666,0.7511240618674628,0.07924111367369041
20,2.013,1.88,0.1,0.574826954129206,0.8006354094108491,0.1025926791788462,0.40304949898672326,0.7479150433257462,0.08287926357182329
21,2.055,1.94,0.1,0.5797190150603208,0.7995672187261258,0.10734763894117992,0.3995104887390664,0.7447599293047801,0.08645630190080107
22,2.118,2.0,0.05,0.5845725127836573,0.7985213049109334,0.11205472765581406,0.3960311255731783,0.7416594763658678,0.08997137201339876
23,2.186,2.05,0.06,0.5893860208880408,0.7974981218641772,0.11671250152210634,0.3926121862651693,0.738614396429653,0.09342366790040443
24,2.27,2.1,0.08,0.5941581514015497,0.7964981100952171,0.12131955987876354,0.3892544010191845,0.735625356599803,0.096812434389132
25,2.291,2.16,0.02,0.5988875556062154,0.795521696479812,0.12587454603632414,0.3859584534365805,0.7326929790383457,0.10013696728329566
26,2.332,2.21,0.02,0.6035729247922307,0.7945692940264525,0.13037614804759462,0.38272498053644133,0.7298178408920479,0.10339661344493668
27,2.395,2.27,0.07,0.6082129909520761,0.793641301652715,0.1348230994161413,0.3795545728262479,0.7270004742691032,0.10659077081923901
28,2.458,2.33,0.07,0.6128065274150098,0.7927381039713363,0.139214179743118,0.3764477744215949,0.7242413662652548,0.10971888840322501
29,2.521,2.38,0.05,0.6173523494222629,0.791860071085816,0.14354821531282136,0.3734050832139651,0.7215409590383671,0.1127804661594565
30,2.563,2.43,0.11,0.6218493146431147,0.791007558395442,0.1478240796174072,0.3704269510856662,0.7188996499303951,0.11577505487593513
31,2.626,2.49,0.12,0.6262963236319624,0.790180906409669,0.1520406938212492,0.3675137841710112,0.7163177916357095,0.11870225597338628
32,2.709,2.54,0.06,0.6306923202266175,0.7893804405717122,0.1561970271654805,0.3646659431626724,0.7137956924147814,0.12156172126106207
33,2.731,2.6,0.08,0.6350362918882807,0.7886064710911246,0.16029209731331528,0.3618837436619349,0.7113336163522811,0.12435315264213498
34,2.771,2.65,0.09,0.639327269983949,0.7878592927850042,0.1643249706368272,0.35916745657137233,0.7089317836586968,0.12707630176970183
35,2.834,2.71,0.03,0.6435643300123245,0.7871391849274016,0.16829476244598476,0.3565173085282751,0.7065903710145797,0.12973096965441508
36,2.896,2.77,0.02,0.6477465917744787,0.7864464111064609,0.17220063716084982,0.3539334823770744,0.704309511956468,0.13231700622482007
37,2.98,2.82,0.07,0.651873219490545,0.7857812190888788,0.176041808427939,0.35141611767903513,0.7020892973034518,0.13483430984158057
38,3.001,2.87,0.06,0.6559434218635843,0.7851438406913512,0.17981753918184307,0.3489653112575886,0.6999297756232229,0.13728282676690945
39,3.043,2.93,0.04,0.6599564520914997,0.784534491658812,0.18352714165325618,0.3465811177778187,0.6978309537363327,0.13966255059065555
40,3.106,2.98,0.09,0.66391160782758,0.7839533715493822,0.18716997732457624,0.3442635503587683,0.6957927972573063,0.1419735216145851
41,3.169,3.04,0.1,0.667808231090141,0.783400663625999,0.19074545683424704,0.3420125812172839,0.6938152311712442,0.1442158261964093
42,3.233,3.1,0.04,0.6716457081218217,0.7828765347546373,0.19425303983105313,0.339828142342026,0.691898140444572,0.14638959605508234
43,3.273,3.15,0.05,0.675423469199307,0.7823811353089422,0.1976922347796401,0.33771012619611435,0.6900413706686315,0.1484950075388473
44,3.356,3.2,0.07,0.6791409883945337,0.7819145990809818,0.20106259871865947,0.33565838644668955,0.6882447287348465,0.15053228085747322
45,3.376,3.26,0.01,0.6827977832887225,0.7814770431977333,0.20436373697309507,0.33367273871950487,0.6865079835401804,0.15250167928013872
46,3.439,3.31,0.01,0.6863934146407042,0.7810685680429058,0.20759530282242322,0.3317529613766418,0.6848308667215321,0.1544035083004965
47,3.501,3.37,0.07,0.6899274860109936,0.7806892571837526,0.21075699712627066,0.3298987963155922,0.6832130734176383,0.156238114770552
48,3.565,3.42,0.07,0.6933996433429497,0.7803391773026191,0.21384856790919832,0.3281099497881592,0.6816542630569434,0.1580058860050952
49,3.626,3.48,0.05,0.6968095745021453,0.7800183781331028,0.21686980990615726,0.3263860932378612,0.680154060169844,0.15970724885850113
50,3.73,3.54,0.11,0.7001570087747978,0.7797268924008292,0.21982056407004505,0.32472686415471125,0.6787120552236982,0.16134266877571607
51,3.751,3.59,0.11,0.7034417163259897,0.7794647357689072,0.2227007170427113,0.323131866946292,0.6773278054790707,0.16291264881916845
52,3.772,3.64,0.05,0.7066635076184702,0.7792319067881073,0.22551020059073046,0.3216006738239451,0.6760008358657743,0.16441772867323307
53,3.813,3.7,0.06,0.709822232792998,0.7790283868517193,0.22824899100727622,0.32013282570273355,0.6747306398773645,0.16585848362776962
54,3.874,3.75,0.08,0.7129177810114621,0.7788541401549651,0.23091710848151853,0.3187278331136491,0.6735166804828071,0.16723552354218665
55,3.936,3.81,0.01,0.715950079764287,0.778709113658754,0.23351461643710716,0.317385177126376,0.6723583910540438,0.16854949179147533
56,3.999,3.87,0.01,0.7189190941437533,0.7785932370575617,0.23604162084140992,0.31610431028089053,0.671255176308122,0.16980106419572258
57,4.081,3.92,0.06,0.7218248260848008,0.7785064227512799,0.2384982694872261,0.31488465752629796,0.6702064132624663,0.17099094793471686
58,4.1,3.98,0.06,0.7246673135747155,0.7784485658209936,0.24088475124871894,0.3137256171654998,0.6692114522017637,0.17211988044938137
59,4.161,4.03,0.04,0.7274466298328287,0.778419544008791,0.24320129531327725,0.31262656180451753,0.668269617654843,0.17318862833187165
60,4.222,4.08,0.1,0.7301628824610947,0.7784192177018595,0.2454481703909481,0.31158683930552167,0.6673802093799074,0.17419798620620477
61,4.284,4.14,0.11,0.7328162125663445,0.7784474299211795,0.24762568390302825,0.3106057737427106,0.6665425033565211,0.17514877560123412
62,4.325,4.2,0.07,0.7354067938551547,0.7785040063150966,0.249734181151367,0.30968266636014274,0.6657557527828487,0.17604184381768198
63,4.387,4.25,0.09,0.7379348317024993,0.7785887551579559,0.25177404446987806,0.30881679653053495,0.6650191890767434,0.1768780627908192
64,4.488,4.3,0.11,0.7404005621956672,0.7787014673538555,0.2537456923597155,0.3080074227139323,0.6643320228793979,0.17765832795026099
65,4.509,4.36,0.04,0.7428042511552573,0.778841916445451,0.25564957860953874,0.3072537834150548,0.6636934450603387,0.1783835570782612
66,4.55,4.41,0.04,0.7451461931353305,0.7790098586276538,0.25748619140224027,0.3065550981381094,0.6631026277225768,0.17905468916785894
67,4.613,4.47,0.08,0.7474267104049508,0.7792050327660347,0.25925605240945326,0.305910568337951,0.662558725206715,0.17967268328223715
68,4.654,4.53,0.07,0.7496461519133659,0.7794271604197794,0.26095971587512173,0.30531937836663803,0.6620608750927749,0.18023851741670632
69,4.696,4.58,0.05,0.7518048922408908,0.7796759458691427,0.262597767689375,0.3047806964146487,0.6616081991984409,0.18075318736479004
70,4.757,4.63,0.11,0.7539033305372681,0.7799510761474859,0.26417082445390694,0.30429367544625,0.6611998045723932,0.18121770558992512
71,4.839,4.69,0.11,0.7559418894491353,0.780252221078049,0.26567953254006266,0.3038574541285906,0.6608347844814241,0.18163310010425904
72,4.86,4.75,0.07,0.7579210140382747,0.7805790333155948,0.2671245671408856,0.30347115775399336,0.6605122193900952,0.18200041335595865
73,4.921,4.8,0.1,0.7598411706924669,0.7809311483929812,0.26850663131842645,0.30313389915474087,0.6602311779317792,0.18232070112634513
74,4.982,4.86,0.12,0.7617028460309714,0.7813081847726269,0.2698264550476843,0.3028447796094536,0.6599907178700198,0.18259503143806752
75,5.043,4.91,0.06,0.7635065458068186,0.7817097439027447,0.27108479425862364,0.3026028897400032,0.659789887049219,0.1828244834754449
76,5.084,4.96,0.06,0.7652527938081273,0.7821354102782083,0.2722824298777206,0.3024073103978901,0.6596277243336972,0.18301014651806488
77,5.188,5.02,0.11,0.7669421307605332,0.7825847515059551,0.27342016687044407,0.30225711353915435,0.6595032605341892,0.18315311888870628
78,5.208,5.08,0.12,0.7685751132325959,0.7830573183749373,0.27449883328600605,0.3021513630871011,0.659415519320836,0.18325450691665626
79,5.249,5.13,0.1,0.7701523125456914,0.7835526449307888,0.27551927930561043,0.30208911578237685,0.6593635181217314,0.18331542391749825
80,5.332,5.18,0.16,0.7716743136895191,0.7840702485555352,0.2764823762952909,0.3020694220201548,0.6593462690061273,0.1833369891903882
81,5.352,5.24,0.16,0.7731417142441505,0.7846096300527714,0.27738901586431625,0.3020913266742669,0.6593627795515219,0.18332032703370668
82,5.435,5.29,0.11,0.7745551233095754,0.7851702737387155,0.27824010893005674,0.3021538699080352,0.659412053694005,0.18326656577980302
83,5.477,5.35,0.12,0.7759151604438612,0.7857516475394721,0.2790365847901315,0.30225608797140485,0.6594930925613773,0.183176836849382
84,5.558,5.41,0.13,0.7772224546112715,0.7863532030947342,0.27977939020265474,0.30239701398380014,0.6596048952886873,0.1830522738259468
85,5.578,5.46,0.07,0.7784776431419003,0.7869743758680682,0.2804694884754351,0.3025756787019779,0.6597464598158825,0.18289401155064886
86,5.639,5.51,0.07,0.779681370704418,0.787614585263908,0.28110785856500287,0.3027911112721255,0.6599167836672676,0.1827031852379016
87,5.681,5.57,0.12,0.780834288293446,0.7882732347514392,0.2816954941863198,0.3030423399655853,0.6601148647124158,0.18248092961216533
88,5.742,5.62,0.11,0.7819370522329159,0.7889497119956422,0.2822334029339972,0.3033283928977942,0.6603397019081255,0.18222837806637673
89,5.803,5.68,0.1,0.7829903231965443,0.7896433889958835,0.2827226054157838,0.30364829873028604,0.6605902960209603,0.18194666184255048
90,5.864,5.74,0.15,0.7839947652463115,0.7903536222325568,0.28316413439900207,0.304001087355832,0.6608656503299238,0.1816369092350675
91,5.926,5.79,0.16,0.7849510448897509,0.791079752822304,0.28355903397056426,0.30438579056686516,0.6611647713088997,0.18130024481707552
92,5.989,5.84,0.11,0.7858598301569286,0.7918211066823024,0.2839083587111872,0.3048014427072382,0.6614866692885952,0.18093778869030186
93,6.01,5.9,0.13,0.7867217896981274,0.7925769947039939,0.2842131728843935,0.30524708130719086,0.6618303590978534,0.18055065575843599
94,6.072,5.95,0.14,0.787537591903413,0.7933467129365203,0.28447454964086966,0.3057217477012146,0.6621948606843105,0.18013995502411195
95,6.134,6.01,0.07,0.7883079040453956,0.7941295427800285,0.2846935702387305,0.30622448762834564,0.6625791997144479,0.17970678890944014
96,6.196,6.07,0.08,0.7890333914464728,0.794924751188982,0.2848713232801548,0.3067543518143858,0.6629824081531064,0.17925225260001432
97,6.299,6.12,0.12,0.789714716671671,0.7957315908856512,0.28500890396473844,0.30731039653565206,0.6634035248225106,0.17877743341234462
98,6.319,6.17,0.11,0.7903525387479857,0.7965493005840427,0.28510741335979195,0.30789168416400714,0.6638415959408046,0.17828341018471747
99,6.38,6.23,0.09,0.790947512410794,0.797377105224646,0.2851679576877103,0.3084972836930995,0.6642956756400478,0.17777125269154323
100,6.401,6.29,0.16,0.7915002873776246,0.7982142162204856,0.2851916476304636,0.3091262712458957,0.6647648264636185,0.1772420210812565
101,6.464,6.34,0.16,0.7920115076494365,0.7990598317150054,0.2851795976512479,0.3097777305636243,0.6652481198430226,0.17669676533777134
102,6.523,6.39,0.1,0.7924818108396311,0.7999131368522435,0.2851329253333602,0.3104507534761469,0.6657446365542041,0.1761365247653857
103,6.565,6.45,0.12,0.7929118275311955,0.8007733040596315,0.28505275073637654,0.31114444035364985,0.6662534671535624,0.17556232749690234
104,6.647,6.5,0.14,0.7933021806625979,0.8016394933436071,0.28494019576973334,0.3118579005394145,0.6667737123939967,0.17497519002460424
105,6.709,6.56,0.06,0.7936534849432654,0.8025108525981051,0.2847963835838516,0.31259025276332564,0.6673044836213546,0.1743761167536565
106,6.77,6.62,0.06,0.7939663462995031,0.803386517925937,0.2846224379789437,0.3133406255357788,0.6678449031516603,0.17376609957750824
107,6.811,6.67,0.1,0.7942413613516092,0.8042656139730875,0.2844194828316086,0.31410815752176074,0.6683941046294528,0.17314611747492314
108,6.852,6.72,0.1,0.7944791169227228,0.8051472542760231,0.2841886415392919,0.31489199789503064,0.6689512333674897,0.1725171361283461
109,6.915,6.78,0.09,0.7946801895796352,0.8060305416222108,0.2839310364826174,0.31569130667249934,0.6695154466680061,0.17188010756339703
110,6.977,6.83,0.15,0.7948451452054248,0.8069145684241497,0.2836477885054892,0.31650525502906596,0.6700859141256875,0.17123596980930492
111,7.058,6.89,0.15,0.7949745386035806,0.807798417107253,0.28334001641275813,0.31733302559320536,0.6706618179125733,0.1705856465800406
112,7.078,6.95,0.09,0.7950689131332853,0.8086811605118533,0.28300883648515984,0.31817381272349554,0.6712423530451921,0.1699300469757974
113,7.118,7.0,0.1,0.7951288003756808,0.8095618623094852,0.28265536201115443,0.3190268227660948,0.6718267276343534,0.16927006520433677
114,7.18,7.05,0.12,0.795154719831207,0.8104395774334425,0.2822807028352825,0.31989127429297515,0.6724141631181155,0.16860658032160242
115,7.241,7.11,0.05,0.7951471786483768,0.8113133525234817,0.28188596492270435,0.3207663983205529,0.6730038944784905,0.16794045599095936
116,7.303,7.16,0.05,0.7951066713844732,0.8121822263844697,0.2814722499396311,0.321651438508333,0.6735951704424147,0.16727254026045224
117,7.426,7.22,0.09,0.795033679798606,0.8130452304587904,0.2810406548493798,0.32254565133732405,0.674187253667438,0.1666036653575623
118,7.447,7.28,0.09,0.7949286726773873,0.813901389312377,0.2805922715237937,0.3234483062681926,0.6747794209124874,0.16593464750105186
119,7.468,7.33,0.06,0.7947921056931765,0.8147497211343404,0.2801281863697316,0.32435868587939776,0.6753709631939724,0.16526628672958385
120,7.509,7.38,0.12,0.7946244212944787,0.8155892382502582,0.27964947997024,0.3252760859858165,0.6759611859274692,0.1645993667468381
121,7.55,7.44,0.13,0.7944260486278737,0.8164189476492159,0.2791572267399639,0.32619981573849854,0.676549409055255,0.16393465478280825
122,7.612,7.5,0.06,0.7941974034907978,0.8172378515246482,0.2786524945943326,0.3271291977061358,0.6771349671600269,0.16327290147088336
123,7.673,7.55,0.08,0.793938888314559,0.8180449478289237,0.2781363446320695,0.32806356793869507,0.6777172095652214,0.16261484074023363
124,7.756,7.61,0.1,0.7936508921771125,0.81883923084151,0.2776098308306319,0.3290022760134829,0.6782955004224065,0.16196118972295157
125,7.776,7.66,0.04,0.7933337908453365,0.8196196917504549,0.2770739997542841,0.32994468506376246,0.6788692187862295,0.16131264867538772
126,7.837,7.71,0.05,0.7929879468466573,0.8203853192468601,0.2765298902745578,0.3308901717900122,0.6794377586773659,0.1606699009131657
127,7.898,7.77,0.09,0.7926137095698413,0.8211351001320386,0.2759785333028327,0.3318381264540462,0.6800005291338505,0.16003361275942915
128,7.96,7.83,0.09,0.7922114153946099,0.8218680199370998,0.27542095153469903,0.33278795285639295,0.6805569542511131,0.1594044335059436
129,8.02,7.88,0.06,0.7917813878494129,0.8225830635548007,0.2748581592056378,0.33373906829752703,0.6811064732109949,0.1587829953867257
130,8.142,7.93,0.11,0.7913239377963253,0.8232792158836009,0.27429116185739355,0.3346909035237049,0.6816485403000202,0.15816991356387164
131,8.163,7.99,0.12,0.7908393636418224,0.8239554624838822,0.27372095611431696,0.33564290265817237,0.6821826249172578,0.15756578612519714
132,8.183,8.05,0.07,0.7903279515722196,0.8246107902462263,0.27314852946892737,0.33659452311839544,0.6827082115721607,0.1569711940932296
133,8.225,8.1,0.07,0.7897899758127388,0.8252441880715163,0.27257486007597853,0.3375452355198059,0.6832247998728442,0.15638670144502254
134,8.286,8.16,0.09,0.7892256989094532,0.825854647562497,0.2720009165544178,0.338494523566385,0.6837319045053026,0.15581285514221116
135,8.348,8.21,0.02,0.7886353720336733,0.826441163726309,0.27142765779680683,0.33944188392825997,0.6842290552040713,0.1552501851707209
136,8.408,8.27,0.02,0.788019235308518,0.8270027356874625,0.27085603278592707,0.34038682610645055,0.6847157967147934,0.1546992045895975
137,8.429,8.32,0.07,0.7873775181574436,0.8275383674107198,0.270286980418402,0.3413288722849982,0.6851916887490638,0.1541604095885205
138,8.49,8.38,0.07,0.7867104396744363,0.828047068433402,0.2697214293352421,0.34226755717086915,0.6856563059318213,0.15363427955368203
139,8.552,8.43,0.05,0.7860182090153432,0.8285278546067033,0.2691602977592218,0.34320242782220467,0.6861092377414617,0.15312127714182017
140,8.612,8.49,0.11,0.7853010258094857,0.8289797488456881,0.26860449333892167,0.3441330434656629,0.6865500884428046,0.15262184836224424
141,8.696,8.54,0.12,0.7845590805904776,0.8294017818876623,0.26805491299919465,0.34505897530362684,0.6869784770130778,0.15213642266665164
142,8.715,8.6,0.07,0.7837925552451253,0.8297929930585558,0.267512442797752,0.3459798063119315,0.6873940370611578,0.15166541304645165
143,8.777,8.65,0.08,0.7830016234793911,0.8301524310468432,0.2669779577875114,0.3468951310285839,0.6877964167403977,0.15120921613720995
144,8.861,8.71,0.1,0.7821864513006404,0.8304791546844014,0.26645232188433365,0.34780455533377125,0.6881852786554511,0.1507682123297369
145,8.881,8.76,0.04,0.7813471975156858,0.8307722337335769,0.2659363877398022,0.3487076962212923,0.6885602997635308,0.1503427658873082
146,8.944,8.82,0.04,0.7804840142443369,0.8310307496796803,0.26543099661873526,0.3496041815615115,0.6889211712705257,0.14993322506853426
147,9.005,8.87,0.09,0.7795970474482314,0.8312537965281139,0.2649369782811457,0.3504936498560159,0.6892675985223277,0.14953992225546214
148,9.047,8.93,0.08,0.7786864374746458,0.8314404816054006,0.2644551508683954,0.3513757499842878,0.6895993008916582,0.14916317408657986
149,9.11,8.98,0.05,0.7777523196147158,0.8315899263634777,0.2639863207932861,0.3522501409428807,0.6899160116606079,0.14880328159447304
150,9.172,9.04,0.11,0.7767948246750959,0.8317012671867408,0.2635312826337662,0.35311649157775943,0.6902174778990738,0.14846053034791357
151,9.234,9.09,0.12,0.7758140795618133,0.8317736562013682,0.26309081902988884,0.353974480310538,0.6905034603393121,0.148135190598131
152,9.255,9.15,0.06,0.7748102078749753,0.8318062620864164,0.2626657005836549,0.35482379485929566,0.6907737332468665,0.14782751742895964
153,9.337,9.2,0.07,0.7737833305130934,0.8317982708860656,0.2622566857613928,0.355664131954538,0.691028084288192,0.14753775091049512
154,9.379,9.26,0.1,0.7727335662860262,0.8317488868222748,0.2618645207984233,0.3564951970507379,0.6912663143953325,0.1472661162558479
155,9.439,9.31,0.04,0.7716610325358954,0.8316573331069843,0.26148993960590505,0.3573167040337636,0.6914882376280126,0.14701282398058416
156,9.481,9.37,0.04,0.7705658457655717,0.8315228527529511,0.26113366367988394,0.3581283749244759,0.6916936810334533,0.1467780700644981
157,9.606,9.42,0.09,0.7694481222744513,0.8313447093822965,0.26079640201263765,0.3589299395788516,0.691882484504161,0.14656203611543336
158,9.627,9.48,0.09,0.7683079788012194,0.8311221880318977,0.260478851006425,0.35972113538510087,0.6920545006338712,0.14636488953494273
159,9.647,9.53,0.07,0.7671455331731099,0.8308545959548193,0.2601816943896804,0.36050170695837713,0.6922095945717802,0.14618678368563726
160,9.708,9.59,0.12,0.765960904960861,0.830541263417065,0.2599056031355215,0.3612714058338248,0.6923476438751862,0.14602785806008184
161,9.771,9.64,0.12,0.7647542161383372,0.8301815444889453,0.25965123538225826,0.36202999015876725,0.6924685383607129,0.14588823845104246
162,9.832,9.7,0.06,0.7635255917456469,0.8297748178303282,0.2594192363554609,0.3627772243847729,0.6925721799543543,0.14576803712281208
163,9.874,9.75,0.07,0.7622751605545233,0.8293204874689972,0.2592102382910823,0.3635128789602071,0.6926584825406522,0.1456673529832686
164,9.998,9.81,0.09,0.7610030557347889,0.8288179835712759,0.25902486035917777,0.36423673002373785,0.6927273718113421,0.14558627175628244
165,10.019,9.86,0.03,0.7597094155209242,0.8282667632040128,0.2588637085879067,0.36494855909912355,0.6927787851137879,0.1455248661541192
166,10.039,9.91,0.03,0.7583943838779013,0.8276663110869877,0.2587273757876467,0.3656481527915846,0.6928126712994382,0.14548319604957377
167,10.081,9.97,0.08,0.7570581111654934,0.8270161403348246,0.2586164414751503,0.3663353024861415,0.6928289905724541,0.14546130864767787
168,10.142,10.03,0.08,0.7557007548001989,0.8263157931875441,0.2585314717977312,0.3670098040484488,0.6928277143385585,0.14545923865692403
169,10.204,10.08,0.06,0.754322479913703,0.8255648417289698,0.2584730194574328,0.36767145752882807,0.6928088250541022,0.14547700846002629
170,10.265,10.14,0.11,0.7529234600064857,0.8247628885922709,0.2584416236350062,0.368320066870385,0.6927723160753135,0.14551462828425885
171,10.328,10.19,0.13,0.7515038775950053,0.8239095676519282,0.25843780991341386,0.3689554396221554,0.6927181915077405,0.1455720963713737
172,10.367,10.25,0.07,0.7500639248508643,0.8230045447013392,0.25846209020049626,0.36957738665814327,0.6926464660559554,0.1456493991470247
173,10.429,10.3,0.08,0.7486038042304726,0.8220475181151693,0.2585149626504017,0.37018572190295734,0.6925571648736671,0.14574651138954364
174,10.47,10.36,0.1,0.7471237290939192,0.8210382194954474,0.258596911583391,0.37078026206457376,0.6924503234144485,0.14586339639783633
175,10.532,10.41,0.04,0.7456239243120013,0.8199764143003146,0.2587084074037018,0.37136082637459356,0.6923259872833162,0.14600000615814127
176,10.592,10.47,0.03,0.7441046268605163,0.818861902454307,0.25884990651522677,0.37192723633629554,0.6921842120893632,0.14615628150942606
177,10.695,10.52,0.08,0.7425660864009589,0.8176945189390867,0.25902185123481053,0.37247931548084184,0.6920250632995798,0.1463321523072732
178,10.716,10.58,0.08,0.7410085658467422,0.8164741343635901,0.25922466970303165,0.37301688913208025,0.6918486160939107,0.14652753758620732
179,10.757,10.63,0.05,0.7394323419138972,0.8152006555126479,0.2594587757923508,0.3735397841804898,0.6916549552215034,0.14674234572051498
180,10.86,10.69,0.11,0.7378377056549765,0.8138740258731966,0.259724569012477,0.3740478288669076,0.6914441748580659,0.1469764745836542
181,10.88,10.74,0.11,0.7362249629747539,0.8124942261372203,0.2600224344127742,0.37454085257667935,0.6912163784642615,0.1472298117063329
182,10.921,10.8,0.05,0.7345944351263514,0.8110612746804952,0.2603527424815248,0.37501868564478075,0.6909716786451219,0.14750223443328211
183,10.982,10.85,0.06,0.732946459186543,0.809575228016122,0.26071584904187106,0.37548115917235114,0.6907101970104976,0.14779361007869657
184,11.062,10.91,0.08,0.7312813885091751,0.8080361812217556,0.26111209514431366,0.3759281048549814,0.6904320640366033,0.14810379608027804
185,11.083,10.96,0.02,0.7295995931558493,0.8064442683393657,0.26154180695576357,0.37635935482300265,0.6901374189286918,0.1484326401518402
186,11.145,11.02,0.03,0.7279014603031417,0.8047996627463735,0.2620052956452465,0.37677474149401197,0.6898264094848249,0.14877998043450985
187,11.185,11.07,0.08,0.7261873946256628,0.8031025774970454,0.26250285726642525,0.3771740974379452,0.6894991919606143,0.14914564564665753
188,11.266,11.13,0.09,0.7244578186542118,0.8013532656331144,0.26303477263713565,0.37755725525511946,0.6891559309347403,0.14952945523278108
189,11.307,11.18,0.06,0.7227131731081007,0.7995520204626968,0.2636013072160872,0.37792404746778147,0.6887967991749854,0.14993121951162722
190,11.369,11.24,0.12,0.7209539172004532,0.7976991758066772,0.264202710976748,0.3782743064258181,0.6884219775045402,0.15035073982382688
191,11.43,11.29,0.12,0.719180528915101,0.7957951062117619,0.2648392182782922,0.3786078642272973,0.6880316546684078,0.15078780867923988
192,11.493,11.35,0.06,0.717393505253709,0.7938402271293715,0.2655110477333763,0.37892455265442765,0.6876260271998259,0.15124220990409717
193,11.513,11.4,0.07,0.7155933624518827,0.7918349950594509,0.2662184020724355,0.3792242031254117,0.687205299286709,0.15171371878794018
194,11.577,11.46,0.09,0.7137806361632633,0.7897799076581885,0.2669614680042262,0.3795066466625495,0.6867696826381589,0.15220210223030287
195,11.637,11.51,0.03,0.7119558816109253,0.7876755038085616,0.2677404160724873,0.37977171387681846,0.6863193963510787,0.1527071188870965
196,11.699,11.57,0.03,0.7101196737055946,0.7855223636526216,0.2685554005087948,0.38001923496909196,0.6858546667768599,0.1532285193167336
197,11.739,11.62,0.07,0.7082726071303027,0.7833211085844959,0.2694065590818839,0.38024903974817015,0.6853757273880186,0.15376604612612918
198,11.801,11.68,0.07,0.706415296391091,0.7810724012031836,0.27029401294390926,0.38046095766581794,0.6848828186445648,0.1543194341168246
199,11.861,11.73,0.05,0.7045483758332476,0.7787769452243499,0.27121786647424156,0.3806548178690152,0.6843761878598082,0.15488841043157156
200,11.965,11.79,0.1,0.7026724996223517,0.776435485350448,0.2721782071214321,0.38083044926961596,0.6838560890652666,0.15547269470174627
201,11.986,11.84,0.12,0.7007883416893002,0.7740488070985586,0.2731751052439768,0.38098768063152666,0.6833227828743843,0.15607199919592943
202,12.006,11.9,0.06,0.698896595638527,0.7716177365853327,0.27420861395049456,0.38112634067534873,0.6827765363448226,0.156686028969915
203,12.068,11.95,0.07,0.6969979746187422,0.7691431402683966,0.27527876893990716,0.3812462582002766,0.6822176228391639,0.15731448201832868
204,12.171,12.01,0.1,0.6950932111556924,0.7666259246435464,0.2763855883422238,0.38134726222289306,0.681646321883933,0.15795704942796251
205,12.192,12.06,0.05,0.6931830569466793,0.7640670358970607,0.27752907256061193,0.38142918213236426,0.6810629190268697,0.15861341553289934
206,12.232,12.12,0.05,0.6912682826167366,0.7614674595125023,0.2787092041155013,0.3814918478614784,0.6804677056923674,0.15928325807152302
207,12.314,12.17,0.09,0.6893496774364607,0.7588282198314864,0.27992594749148175,0.3815350900730219,0.6798609790349531,0.15996624834555184
208,12.354,12.23,0.09,0.6874280490015442,0.7561503795680112,0.28117924898771723,0.3815587403610787,0.6792430417906432,0.160662051381282
209,12.416,12.28,0.06,0.6855042228739907,0.7534350392760788,0.2824690365725011,0.3815626314669507,0.6786142021259688,0.16137032609326823
210,12.479,12.34,0.11,0.6835790421848331,0.7506833367704732,0.2837952197424318,0.3815465975094938,0.677974773484469,0.1620907254506682
211,12.562,12.39,0.12,0.6816533671980963,0.7478964465006415,0.28515768938659647,0.381510474229654,0.6773250744304935,0.1628228966464278
212,12.582,12.45,0.06,0.6797280748357851,0.7450755788776615,0.2865563176561273,0.38145409924885115,0.6766654284902156,0.16356648126941775
213,12.643,12.5,0.07,0.6778040581638092,0.742221979554273,0.2879909578395181,0.38137731234070044,0.6759961639898143,0.1643211154795694
214,12.664,12.56,0.09,0.6758822258389688,0.7393369286579584,0.2894614442441796,0.38127995571540324,0.675317613890829,0.16508643018600974
215,12.725,12.61,0.04,0.6739635015173903,0.7364217399770666,0.2909675920848656,0.3811618743160151,0.6746301156226805,0.16586205122820336
216,12.787,12.66,0.03,0.672048823224971,0.7334777601000536,0.2925091973797396,0.3810229161257649,0.6739340109123109,0.16664759956016206
217,12.849,12.72,0.08,0.6701391426904746,0.7305063675080348,0.2940860368549494,0.3808629324856692,0.6732296456108248,0.16744269143786036
218,12.911,12.78,0.09,0.6682354246419375,0.7275089716210039,0.29569786785863106,0.3806817784217828,0.6725173695169531,0.16824693861006274
219,12.975,12.83,0.06,0.6663386460669718,0.7244870117982376,0.29734442828522384,0.3804793129815404,0.6717975361971164,0.16905994851282347
220,13.016,12.89,0.12,0.6644497954373838,0.7214419562935733,0.2990254365108307,0.38025539957875654,0.671070502801866,0.1698813244679136
221,13.057,12.94,0.13,0.6625698718984512,0.7183753011663575,0.30074059134018916,0.3800099063468644,0.6703366298785497,0.17071066588535816
222,13.118,13.0,0.08,0.6606998844232412,0.715288569148908,0.30248957196566134,0.37974270649987474,0.6695962811801361,0.17154756847016148
223,13.18,13.05,0.08,0.6588408509324704,0.7121833084713589,0.30427203793851637,0.37945367870040225,0.6688498234702432,0.17239162443318395
224,13.281,13.11,0.1,0.6569937973805977,0.7090610916447729,0.3060876291527078,0.37914270743395856,0.6680976263245006,0.17324242270603224
225,13.302,13.16,0.04,0.6551597568091297,0.7059235142034347,0.3079359658413674,0.3788096833885763,0.6673400619284219,0.1740995491597747
226,13.403,13.22,0.04,0.6533397683683472,0.7027721934073146,0.309816648586285,0.37845450383877555,0.6665775048719492,0.17496258682731747
227,13.424,13.27,0.09,0.6515348763088358,0.6996087669058227,0.3117292583407081,0.3780770730329388,0.6658103319407709,0.17583111612933575
228,13.445,13.33,0.09,0.6497461289443153,0.6964348913641338,0.3136733564658605,0.3776773025832554,0.6650389219044543,0.17670471510373018
229,13.508,13.38,0.05,0.647974577587231,0.6932522410535571,0.3156484847815906,0.37725511185751115,0.664263655301382,0.17758295963863646
230,13.569,13.44,0.11,0.6462212754584638,0.6900625064076236,0.3176541656314931,0.376810428372122,0.6634849142204717,0.17846542370901797
231,13.652,13.49,0.11,0.6444872765724775,0.6868673925457008,0.3196899019627716,0.3763431881858309,0.6627030820797164,0.17935167961681744
232,13.673,13.55,0.05,0.6427736345993438,0.6836686177660221,0.32175517742105414,0.37585333629339157,0.6619185434016324,0.18024129823457158
233,13.734,13.6,0.07,0.641081401705316,0.6804679120100677,0.3238494564603392,0.3753408270184402,0.661131683585775,0.18113384925231987
234,13.775,13.66,0.09,0.6394116273739843,0.6772670153002825,0.32597218446825166,0.37480562440462867,0.6603428886785255,0.18202890142758402
235,13.858,13.71,0.04,0.6377653572104673,0.6740676761531806,0.32812278790684923,0.3742477026039886,0.6595525451403638,0.18292602283818116
236,13.877,13.77,0.04,0.6361436317314538,0.6708716499700194,0.3303006744692581,0.3736670462614604,0.6587610396108132,0.1838247811376683
237,13.941,13.82,0.09,0.634547485144143,0.6676806974074005,0.33250523325242237,0.3730636508945852,0.6579687586712066,0.1847247438132568
238,14.002,13.88,0.09,0.6329779441172846,0.6644965827303714,0.3347358349462289,0.37243752326742807,0.6571760886053836,0.18562547844607463
239,14.043,13.93,0.05,0.6314360265474965,0.6613210721508108,0.33699183203917904,0.37178868175788815,0.6563834151584214,0.1865265529736676
240,14.104,13.99,0.1,0.6299227403238883,0.6581559321540957,0.3392725590406227,0.37111715671763607,0.6555911232935266,0.1874275359545987
241,14.166,14.04,0.11,0.6284390820938912,0.655002927817168,0.3415773327194303,0.3704229908239166,0.6547995969472842,0.188327996834928
242,14.227,14.1,0.05,0.6269860360331362,0.6518638211211348,0.3439054523588928,0.3697062394223515,0.6540092187835298,0.18922750621627402
243,14.288,14.15,0.06,0.6255645726221356,0.6487403692614533,0.3462562000275945,0.36896697085977415,0.6532203699461776,0.19012563612509037
244,14.37,14.21,0.08,0.6241756474324127,0.645634322958593,0.3486288408660302,0.36820526680605237,0.6524334298113715,0.19102196028274462
245,14.39,14.26,0.02,0.6228201999246377,0.6425474247718949,0.3510226233888496,0.36742122256379683,0.6516487757393389,0.1919160543759822
246,14.452,14.32,0.01,0.6214991522612356,0.6394814074192144,0.35343677980274285,0.3666149473648584,0.6508667828262833,0.19280749632740182
247,14.514,14.37,0.07,0.6202134081358739,0.6364379921048764,0.3558705263400917,0.3657865646525964,0.6500878236565991,0.19369586656563653
248,14.555,14.43,0.06,0.6189638516221628,0.6334188868584621,0.35832306360857985,0.3649362123490269,0.649312268055626,0.1945807482950026
249,14.679,14.48,0.03,0.6177513460437509,0.6304257848869659,0.36079357695692355,0.36406404310610146,0.6485404828431177,0.19546172776443504
250,14.74,14.54,0.09,0.6165767328677276,0.6274603629428606,0.3632812368567465,0.3631702245405328,0.6477728315876018,0.19633839453552077
251,14.761,14.59,0.1,0.6154408306230406,0.6245242797105696,0.3657851993004745,0.3622549394516289,0.6470096743618694,0.19721034174937419
252,14.801,14.65,0.04,0.6143444338454935,0.6216191742137422,0.36830460621499744,0.3613183860215354,0.6462513674999143,0.19807716639200645
253,14.821,14.7,0.04,0.6132883120508271,0.6187466642456058,0.37083858589075025,0.3603607779971871,0.6454982633557278,0.1989384695577415
254,14.883,14.76,0.06,0.6122732087373803,0.6159083448245438,0.3733862534258295,0.35938234485316123,0.6447507100644274,0.1997938567101522
255,14.924,14.81,-0.01,0.6112998404199049,0.6131057866769222,0.3759467111848258,0.35838333193452526,0.6440090513062177,0.20064293793996682
256,14.986,14.87,-0.02,0.6103688956961455,0.6103405347490959,0.37851904927213365,0.357364000578754,0.6432736260736356,0.20148532821944734
257,15.048,14.92,0.03,0.6094810343477967,0.6076141067504652,0.38110234601959103,0.35632462821588534,0.6425447684424503,0.202320647652838
258,15.13,14.98,0.02,0.6086368864774085,0.6049279917294111,0.38369566848839093,0.3552655084462133,0.641822807346487,0.2031485217225923
259,15.151,15.03,-0.01,0.6078370516826621,0.6022836486839162,0.38629807298522617,0.3541869510949752,0.6411080663565544,0.20396858153118755
260,15.213,15.09,0.04,0.607082098269211,0.5996825052086608,0.3889086055925621,0.353089282243651,0.6404008634636192,0.20478046403838024
261,15.273,15.14,0.05,0.6063725625030961,0.5971259561803223,0.39152630271284244,0.3519728442375603,0.639701510866385,0.2055838122937367
262,15.335,15.2,-0.01,0.6057089479036529,0.5946153624826856,0.39415019162634796,0.35083799566941476,0.6390103147634714,0.2063782756642265
263,15.378,15.25,0.0,0.6050917245778126,0.5921520497730333,0.3967792910623445,0.3496851113384333,0.6383275751504487,0.20716351005660583
264,15.48,15.31,0.03,0.6045213285967697,0.5897373072911255,0.3994126117831161,0.348514582184593,0.6376535856220232,0.20793917813426852
265,15.501,15.36,-0.03,0.6039981614160911,0.5873723867119445,0.40204915718049195,0.34732681519754244,0.636988633179682,0.20870494952822716
266,15.541,15.41,-0.04,0.6035225893403655,0.5850585010432816,0.40468792388449526,0.3461222332997379,0.636332998045076,0.20946050104192315
267,15.603,15.47,0.0,0.6030949430334366,0.5827968235691907,0.4073279023837403,0.3449012752034825,0.635686953479371,0.2102055168496229
268,15.664,15.53,-0.0,0.6027155170751455,0.5805884868402965,0.4099680776571893,0.3436643952417146,0.635050765608734,0.21093968868822546
269,15.727,15.58,-0.04,0.6023845695652921,0.5784345817119341,0.4126074298168079,0.34241206317260875,0.6344246932560679,0.21166271604237646
270,15.748,15.64,0.01,0.6021023217752549,0.5763361564310835,0.4152449347605365,0.34114476395827986,0.6338089877790729,0.21237430632281631
271,15.85,15.69,0.02,0.601868957847517,0.574294215773031,0.4178795648348987,0.3398629975179976,0.6332038929147306,0.2130741750378775
272,15.871,15.75,-0.04,0.6016846245432927,0.5723097202286025,0.4205102895065177,0.33856727845629264,0.6326096446303335,0.21376204595801096
273,15.913,15.8,-0.02,0.6015494310384893,0.5703835852427327,0.42313607604179165,0.33725813576625807,0.6320264709812192,0.21443765127318135
274,15.976,15.86,-0.01,0.6014634487683953,0.5685166805050373,0.4257558901940362,0.33593611250825667,0.6314545919754024,0.2151007317429302
275,16.037,15.91,-0.07,0.6014267113216669,0.5667098292929872,0.42836869689753376,0.3346017654641429,0.6308942194452953,0.21575103683890812
276,16.121,15.97,-0.07,0.6014392143843068,0.5649638078682622,0.4309734609680581,0.3332556647670909,0.6303455569266647,0.2163883248797264
277,16.142,16.02,-0.02,0.6015009157343337,0.5632793449268901,0.4335691478095231,0.3318983935072065,0.6298087995449033,0.21701236315805847
278,16.204,16.07,-0.02,0.6016117352877788,0.5616571211038313,0.4361547241264353,0.3305305473132459,0.6292841339086204,0.21762292806000394
279,16.265,16.13,-0.05,0.6017715551964534,0.5600977685327614,0.4387291586417645,0.32915273391094946,0.6287717380104975,0.21821980517679385
280,16.305,16.18,0.0,0.6019802199976763,0.5586018704618851,0.44129142281969186,0.327765572658702,0.6282717811353551,0.21880278940891748
281,16.368,16.24,0.0,0.6022375368159639,0.5571699609266504,0.44384049159253985,0.3263696940613323,0.6277844237754191,0.21937168506269855
282,16.43,16.3,-0.06,0.6025432756166134,0.5558025244801802,0.4463753440910692,0.32496573926287353,0.6273098175528398,0.2199263059392766
283,16.472,16.35,-0.05,0.6028971695110935,0.5544999959821443,0.44889496437725235,0.32355435951910566,0.626848105149564,0.22046647541589107
284,16.596,16.41,-0.03,0.603298915114216,0.5532627604466428,0.45139834217862174,0.3221362156507129,0.6263994202446933,0.22099202651933167
285,16.616,16.46,-0.11,0.6037481729531046,0.5520911529495148,0.45388447362335965,0.320711977477879,0.6259638874594358,0.22150280199144362
286,16.638,16.51,-0.1,0.604244567927963,0.5509854585953446,0.4563523619753599,0.31928232323718847,0.6255416223096862,0.22199865434666
287,16.699,16.57,-0.05,0.604787689824486,0.5499459125443258,0.458801018368516,0.317847938981843,0.6251327311661724,0.2224794459216464
288,16.74,16.62,-0.06,0.6053770938775335,0.548972700099048,0.46122946253949576,0.3164095179663995,0.6247373112219888,0.22294504891727096
289,16.803,16.68,-0.07,0.606012301385351,0.5480659568511965,0.46363672355821334,0.31496776001748,0.6243554504672509,0.22339534543321807
290,16.864,16.73,-0.01,0.6066928003732741,0.547225768888065,0.46602184055511986,0.31352337089213206,0.6239872276705674,0.22383022749559797
291,16.947,16.79,-0.0,0.6074180463055855,0.5464521730586526,0.4683838634443639,0.31207706162559823,0.6236327123670745,0.2242495970778558
292,16.968,16.84,-0.06,0.6081874628440518,0.5457451572989406,0.47072185364185004,0.3106295478701316,0.623291964852859,0.22465336611518483
293,17.031,16.9,-0.05,0.609000442651573,0.5451046610157336,0.4730348847772309,0.30918154922624547,0.6229650361856979,0.22504145651252852
294,17.072,16.95,-0.03,0.6098563482393513,0.5445305755282438,0.47532204339893086,0.3077337885674554,0.6226519681921429,0.22541380014615056
295,17.135,17.01,-0.1,0.6107545128559553,0.5440227445663975,0.4775824296714037,0.30628699135925486,0.6223527934810124,0.22577033885870157
296,17.196,17.07,-0.09,0.6116942414165627,0.5435809648246848,0.4798151580638871,0.30484188497291215,0.6220675354633327,0.22611102444774211
297,17.258,17.12,-0.06,0.6126748114704637,0.543204986570266,0.48201935802994894,0.30339919799471743,0.6217962083787022,0.22643581864775836
298,17.319,17.17,-0.07,0.6136954742046715,0.5428945143039848,0.48419417467715564,0.30195965953144893,0.6215388173279563,0.2267446931058113
299,17.36,17.23,-0.09,0.6147554554811955,0.5426492074728889,0.4863387694262126,0.3005239985130213,0.6212953583119273,0.22703762935106267
300,17.441,17.28,-0.03,0.6158539569052683,0.5424686812328309,0.48845232065894245,0.2990929429934468,0.6210658182760385,0.2273146187584763
301,17.462,17.34,-0.02,0.6169901569217194,0.5423525072596378,0.49053402435452875,0.29766721945124563,0.6208501751604796,0.22757566250698816
302,17.502,17.39,-0.07,0.6181632119367093,0.5423002146072098,0.4925830947135356,0.29624755209028103,0.6206483979557523,0.22782077153238564
303,17.565,17.45,-0.05,0.6193722574621467,0.5423112906107584,0.4945987647692603,0.29483466214176934,0.6204604467634468,0.2280499664750583
304,17.626,17.5,-0.03,0.6206164092802339,0.5423851818332561,0.4965802869860125,0.29342926716799755,0.6202862728621852,0.2282632776226898
305,17.709,17.56,-0.09,0.6218947646256838,0.5425212950530375,0.49852693384392377,0.29203208036811457,0.6201258187787184,0.22846074484791107
306,17.729,17.61,-0.08,0.6232064033831336,0.5427189982904334,0.500437998409847,0.2906438098863489,0.6199790183641551,0.2286424175409336
307,17.792,17.67,-0.04,0.6245503892971739,0.5429776218713014,0.5023127948938492,0.28926515812310816,0.6198457968752744,0.2288083545372191
308,17.854,17.73,-0.05,0.6259257711923121,0.5432964595253382,0.5041506591907708,0.2878968210495669,0.6197260710608254,0.22895862404029435
309,17.895,17.78,-0.07,0.627331584200025,0.5436747695171209,0.5059509494063075,0.2865394875265159,0.619619749252669,0.22909330353987306
310,17.955,17.83,-0.02,0.6287668509899473,0.5441117758078787,0.5077130463670597,0.28519383862838854,0.619526731461606,0.22921247972545702
311,18.059,17.89,-0.02,0.6302305830022636,0.5446066692460156,0.5094363541140599,0.2838605469733826,0.6194469094777699,0.2293162483955523
312,18.079,17.94,-0.07,0.6317217816785493,0.5451586087843411,0.5111203003793591,0.28254027606044874,0.6193801669755173,0.22940471436257145
313,18.121,18.0,-0.05,0.6332394396885371,0.5457667227218963,0.5127643370453223,0.2812336796137037,0.6193263796228065,0.22947799135342167
314,18.182,18.05,-0.03,0.634782542150579,0.5464301099681658,0.5143679405863513,0.27994140093459385,0.6192854151951216,0.22953620190570972
315,18.244,18.11,-0.1,0.6363500678438484,0.5471478413274007,0.5159306124928205,0.2786640722619395,0.61925713369402,0.22957947725946656
316,18.307,18.16,-0.09,0.6379409904105048,0.547918960800767,0.5174518796770495,0.2774023141399375,0.619241387470357,0.22960795724431876
317,18.348,18.22,-0.05,0.6395542795461494,0.5487424869040868,0.518931294861138,0.27615673479428954,0.6192380213521995,0.22962179016208303
318,18.41,18.27,-0.06,0.6411889021769321,0.5496174139990395,0.5203684369465152,0.27492792951678935,0.6192468727773784,0.22962113266483006
319,18.472,18.33,-0.07,0.6428438236216388,0.5505427136358313,0.52176291136506,0.27371648005890487,0.6192677719305725,0.22960614962852552
320,18.534,18.39,-0.01,0.6445180087370328,0.5515173359054878,0.5231143504116132,0.2725229540351033,0.6193005418848005,0.22957701402237402
321,18.554,18.44,-0.01,0.6462104230447877,0.552540210800015,0.524422413557696,0.2713479043367524,0.6193449987472412,0.22953390677394744
322,18.615,18.5,-0.06,0.6479200338385027,0.5536102495786901,0.5256867877462079,0.2701918685573767,0.6194009518093644,0.2294770166300982
323,18.698,18.55,-0.05,0.6496458112694453,0.5547263461387171,0.5269071876668466,0.2690553684298971,0.6194682037014525,0.2294065400135561
324,18.719,18.6,-0.04,0.6513867294098192,0.5558873783884359,0.5280833560119852,0.2679389092762669,0.6195465505516667,0.2293226808750196
325,18.802,18.66,-0.1,0.6531417672924856,0.5570922096212281,0.5292150637127746,0.26684297946970276,0.6196357821498363,0.22922565054052113
326,18.843,18.71,-0.1,0.6549099099261135,0.5583396898882624,0.5303021101552695,0.2657680499096076,0.6197356821161171,0.22911566755388663
327,18.883,18.77,-0.07,0.6566901492847588,0.5596286573682636,0.5313443233764081,0.26471457350932004,0.6198460280745913,0.22899295751418836
328,18.944,18.82,-0.1,0.6584814852708701,0.5609579397325603,0.5323415602397376,0.26368298469694273,0.6199665918317898,0.22885775290819096
329,19.006,18.88,-0.11,0.6602829266506779,0.562326355503782,0.5332937065908363,0.2626736989296865,0.6200971395600217,0.22871029293789868
330,19.048,18.93,-0.06,0.6620934919609057,0.5637327154066749,0.5342006773924367,0.26168711222236163,0.6202374319853187,0.22855082334339988
331,19.173,18.99,-0.05,0.663912210385885,0.5651758237095436,0.53506241683932,0.260723600690737,0.6203872245797497,0.22837959622125814
332,19.193,19.05,-0.09,0.6657381226043873,0.5666544795547952,0.535878898453106,0.25978352011044864,0.6205462677578469,0.22819686983871845
333,19.214,19.1,-0.05,0.6675702816057328,0.5681674782769908,0.5366501251570442,0.2588672054920293,0.6207143070769073,0.22800290844396615
334,19.276,19.16,-0.03,0.6694077534749366,0.5697136127067318,0.5373761293308589,0.25797497067246766,0.6208910834409977,0.22779798207260435
335,19.339,19.21,-0.1,0.6712496181467856,0.5712916744586465,0.5380569728456199,0.2571071079235517,0.621076333308553,0.22758236635044368
336,19.401,19.26,-0.09,0.6730949701287761,0.5729004552017257,0.538692747078493,0.25626388757720875,0.6212697889035073,0.22735634229264579
337,19.463,19.32,-0.06,0.6749429191928221,0.5745387479102978,0.5392835729071084,0.25544555766813537,0.6214711784299105,0.22712019609923495
338,19.525,19.37,-0.11,0.676792591035635,0.5762053480939939,0.5398296006832463,0.25465234359414407,0.6216802262899739,0.22687421894701518
339,19.546,19.43,-0.11,0.6786431279076334,0.5778990550051641,0.5403310101855453,0.25388444779483005,0.6218966533054198,0.22661870677799373
340,19.607,19.48,-0.06,0.6804936892102256,0.5796186728223018,0.5407880105509985,0.25314204944931784,0.622120176941944,0.2263539600844914
341,19.668,19.54,-0.06,0.6823434520613632,0.5813630118081011,0.5412008401851204,0.2524253041939142,0.6223505115365424,0.22608028369118388
342,19.73,19.59,-0.09,0.684191611829349,0.5831308894407917,0.5415697666507587,0.2517343438604645,0.6225873685274108,0.22579798653435793
343,19.812,19.65,-0.04,0.686037382634964,0.5849211315173775,0.5418950865355275,0.25106927623615394,0.6228304566861432,0.2255073814386545
344,19.832,19.7,-0.03,0.6878799978220638,0.5867325732273512,0.5421771252978078,0.2504301848453963,0.6230794823520035,0.22520878489150795
345,19.894,19.76,-0.09,0.6897187103968891,0.5885640601954062,0.542416237091197,0.24981712875433748,0.6233341496681151,0.22490251681541348
346,19.935,19.82,-0.07,0.6915527934363629,0.5904144494916354,0.5426128045672216,0.24923014239843017,0.6235941608194707,0.22458890033808884
347,20.016,19.87,-0.05,0.6933815404657062,0.5922826106077085,0.5427672386560702,0.24866923543350547,0.6238592162727085,0.22426826156054444
348,20.037,19.92,-0.1,0.6952042658058004,0.5941674263975361,0.5428799783251286,0.24813439261074052,0.6241290150176074,0.22394092932307227
349,20.099,19.98,-0.1,0.6970203048908192,0.5960677939809862,0.542951490315119,0.2476255736759387,0.6244032548102101,0.22360723496920842
350,20.161,20.03,-0.05,0.6988290145567196,0.5979826256093109,0.5429822688536856,0.2471427132936142,0.6246816324174325,0.2232675121077858
351,20.263,20.09,-0.06,0.7006297733012147,0.5999108494910672,0.5429728353462715,0.24668572099646377,0.6249638438629566,0.22292209637325855
352,20.303,20.14,-0.09,0.702421981515765,0.6018514105774758,0.5429237380440908,0.24625448116092027,0.6252495846741619,0.22257132518452852
353,20.324,20.2,-0.03,0.7042050616899447,0.6038032713063292,0.5428355516888704,0.24584885300958986,0.6255385501298425,0.22221553750251316
354,20.386,20.25,-0.03,0.7059784585884299,0.6057654123036932,0.542708877133939,0.24546867064138342,0.6258304355084897,0.22185507358665316
355,20.446,20.31,-0.08,0.7077416394008641,0.6077368330427253,0.5425443409411796,0.24511374309005193,0.6261249363369722,0.22149027475050337
356,20.488,20.36,-0.07,0.7094940938649165,0.6097165524589894,0.5423425949533527,0.24478385441170594,0.6264217486394974,0.22112148311648985
357,20.53,20.42,-0.04,0.7112353343629905,0.6117036095217003,0.542104315841369,0.24447876380173286,0.6267205691867801,0.22074904136986506
358,20.613,20.48,-0.11,0.7129648959932438,0.6136970637603918,0.5418302046262787,0.2441982057413352,0.6270210957453559,0.22037329251188323
359,20.655,20.53,-0.11,0.7146823366157347,0.6156959957465914,0.5415209861759293,0.24394189017379445,0.6273230273269356,0.21999457961226068
360,20.716,20.58,-0.06,0.7163872368745994,0.6176995075302263,0.5411774086763924,0.24370950271057829,0.6276260644376354,0.21961324556105483
361,20.778,20.64,-0.06,0.7180792001971967,0.6197067230306257,0.54080024307836,0.24350070486749767,0.6279299093268386,0.2192296328201805
362,20.818,20.69,-0.08,0.7197578527710832,0.6217167883821502,0.5403902825187077,0.24331513433124985,0.6282342662353844,0.21884408317485696
363,20.88,20.75,-0.01,0.7214228434995321,0.6237288722346316,0.5399483417173521,0.24315240525681137,0.6285388416427441,0.21845693748530665
364,20.981,20.8,-0.0,0.7230738439361918,0.6257421660089132,0.5394752563494455,0.2430121085961477,0.6288433445129011,0.21806853543897903
365,21.001,20.86,-0.06,0.724710548199376,0.6277558841078512,0.538971882392894,0.24289381245855088,0.6291474865387232,0.2176792153034769
366,21.063,20.91,-0.05,0.7263326728663171,0.6297692640832275,0.5384390954511808,0.2427970625026607,0.6294509823847368,0.21728931368023865
367,21.085,20.97,-0.03,0.7279399568475635,0.6317815667591199,0.5378777900515552,0.2427213823598981,0.6297535499283046,0.2168991652589169
368,21.145,21.02,-0.1,0.7295321612416616,0.6337920763123588,0.5372888789188233,0.24266627408871982,0.630054910499245,0.21650910257235162
369,21.207,21.08,-0.1,0.7311090691702476,0.6358001003107928,0.5366732922251445,0.2426312186589409,0.6303547891178993,0.21611945575207922
370,21.269,21.14,-0.05,0.7326704855936219,0.6378049697102098,0.5360319768163597,0.2426156764654037,0.6306529147315576,0.2157305522844114
371,21.351,21.19,-0.06,0.7342162371067446,0.639806038810907,0.5353658954154846,0.24261908787039008,0.6309490204490628,0.21534271676723413
372,21.392,21.25,-0.08,0.7357461717153325,0.6418026851750943,0.5346760258040516,0.24264087377432383,0.6312428437733116,0.21495627066778336
373,21.432,21.3,-0.02,0.7372601585914521,0.6437943095064952,0.5339633599820136,0.24268043621443997,0.6315341268313361,0.21457153208169827
374,21.473,21.35,-0.01,0.7387580878078682,0.6457803354936111,0.5332289033069566,0.242737158991106,0.6318226166016734,0.214188815493624
375,21.535,21.41,-0.07,0.7402398700504972,0.6477602096181241,0.5324736736134315,0.24281040832133138,0.6321080651388006,0.213808431539565
376,21.617,21.46,-0.05,0.7417054363085056,0.6497334009298504,0.5316987003132806,0.24289953351877702,0.6323902297944897,0.21343068677109614
377,21.637,21.52,-0.02,0.7431547375418665,0.6516994007895857,0.5309050234779178,0.2430038676993207,0.6326688734360147,0.2130558834214591
378,21.761,21.57,-0.09,0.7445877443264048,0.6536577225811177,0.5300936929035893,0.24312272851102304,0.6329437646611717,0.21268431917353828
379,21.782,21.63,-0.08,0.7460044464764226,0.6556079013936895,0.5292657671606297,0.2432554188872939,0.6332146780100425,0.21231628692974075
380,21.823,21.68,-0.04,0.7474048526449357,0.6575494936762604,0.5284223126276414,0.24340122782217657,0.6334813941733893,0.21195207458386395
381,21.884,21.74,-0.06,0.7487889899014325,0.6594820768650106,0.5275644025114562,0.2435594311668473,0.6337437001974994,0.21159196479510434
382,21.944,21.8,-0.07,0.750156903286865,0.6614052489856781,0.5266931158536835,0.24372929244660965,0.6340013896852368,0.21123623476443365
383,21.964,21.85,-0.01,0.7515086553453958,0.6633186282324512,0.525809536524644,0.2439100636977876,0.6342542629930319,0.21088515601360516
384,22.027,21.91,-0.01,0.7528443256324044,0.6652218525252045,0.5249147522055866,0.24410098632387817,0.6345021274235438,0.21053899416703797
385,22.089,21.96,-0.06,0.7541640101984389,0.6671145790468355,0.5240098533602117,0.24430129197012546,0.63474479741378,0.21019800873678263
386,22.15,22.01,-0.04,0.7554678210490549,0.668996483762375,0.5230959321966467,0.24451020341542254,0.6349820947185139,0.20986245291069874
387,22.211,22.07,-0.03,0.756755885580781,0.6708672609214368,0.5221740816211368,0.2447269354801718,0.6352138485889115,0.20953257334390765
388,22.252,22.12,-0.09,0.7580283459936606,0.672726622545489,0.5212453941848219,0.24495069594848776,0.6354398959462919,0.2092086099535587
389,22.313,22.18,-0.08,0.7592853586808587,0.6745742979014087,0.520310961025027,0.2451806865030105,0.6356600815509217,0.20889079571698313
390,22.374,22.23,-0.04,0.7605270935957984,0.6764100329628052,0.5193718708024945,0.2454161036706312,0.6358742581656871,0.20857935647337522
391,22.455,22.29,-0.05,0.761753733597323,0.678233589860628,0.5184292086359932,0.2456561397775545,0.636082286714414,0.20827451072922115
392,22.476,22.34,-0.06,0.7629654737735178,0.6800447463245984,0.5174840550357018,0.24589998391231874,0.6362840364345465,0.20797646946777296
393,22.517,22.4,-0.0,0.7641625207450923,0.681843295117,0.5165374848367157,0.24614682289559275,0.6364793850238571,0.2076854359628997
394,22.578,22.45,-0.0,0.7653450919495798,0.6836290434603252,0.5155905661340022,0.24639584225563216,0.6366682187808926,0.2074016055976267
395,22.641,22.51,-0.05,0.7665134149079413,0.685401812460199,0.5146443592201222,0.24664622720818735,0.6368504327389091,0.20712516568760816
396,22.702,22.57,-0.03,0.7676677264753885,0.6871614365249094,0.5136999155269962,0.24689716363948397,0.637025930793136,0.20685629530969116
397,22.743,22.62,-0.02,0.7688082720783898,0.6889077627827619,0.5127582765729917,0.24714783909068283,0.6371946258212846,0.20659516513564175
398,22.825,22.67,-0.08,0.7699353049399266,0.6906406504983725,0.5118204729166097,0.24739744374202563,0.6373564397972459,0.20634193727107403
399,22.846,22.73,-0.07,0.7710490852950409,0.6923599704889586,0.5108875231180597,0.24764517139479114,0.6375113038979023,0.20609676509964597
400,22.909,22.78,-0.03,0.7721498795986516,0.6940656045416744,0.509960432710004,0.24789022044923786,0.637659158602934,0.2058597931326428
401,22.97,22.84,-0.06,0.7732379597275543,0.6957574448330637,0.5090401931787906,0.2481317948768393,0.6377999537874328,0.20563115686414282
402,23.011,22.89,-0.07,0.7743136021784405,0.6974353933517509,0.5081277809575099,0.2483691051853153,0.6379336488070693,0.20541098263204086
403,23.072,22.95,-0.01,0.7753770872637101,0.6990993613255515,0.5072241564322173,0.2486013693751785,0.6380602125755133,0.2051993874852599
404,23.132,23.0,-0.0,0.7764286983068861,0.7007492686541965,0.5063302629626946,0.24882781388661857,0.6381796236337882,0.2049964790575005
405,23.193,23.06,-0.04,0.7774687208394926,0.702385043348833,0.5054470259191267,0.24904767453551288,0.6382918702112582,0.20480235544786596
406,23.255,23.11,0.01,0.7784974418012983,0.7040066209794009,0.5045753517360229,0.2492601974372439,0.6383969502779925,0.20461710510864234
407,23.297,23.17,0.02,0.7795151487458716,0.7056139441308792,0.5037161269846292,0.24946463991685575,0.6384948715883456,0.20444080674041895
408,23.359,23.23,-0.05,0.7805221290534131,0.7072069618692965,0.502870217464976,0.24966027140394897,0.6385856517156719,0.20427352919463815
409,23.421,23.28,-0.04,0.7815186691527537,0.7087856292183387,0.5020384673185717,0.2498463743106878,0.6386693180781597,0.20411533138359442
410,23.461,23.33,-0.01,0.7825050537542945,0.7103499066473575,0.5012216981626535,0.25002224489137526,0.6387459079558064,0.2039662621978648
411,23.502,23.39,-0.06,0.7834815650955805,0.7118997595716067,0.5004207082468626,0.25018719408219303,0.6388154684985442,0.20382636043116734
412,23.563,23.44,-0.07,0.7844484822011231,0.7134351578655452,0.49963627163323393,0.2503405483198924,0.6388780567254624,0.2036956547127176
413,23.646,23.5,-0.02,0.7854060801580466,0.714956075390097,0.498869137400427,0.2504816503384407,0.6389337395150003,0.20357416344723736
414,23.667,23.55,-0.02,0.7863546294091392,0.7164624895347532,0.49812002887318646,0.25060985994279783,0.6389825935859094,0.2034618947628586
415,23.728,23.61,-0.06,0.7872943950648238,0.7179543807754022,0.49738964287804655,0.25072455475910554,0.639024705468722,0.2033588464672314
416,23.79,23.66,-0.01,0.7882256362354471,0.719431732248734,0.4966786490262262,0.2508251309606482,0.6390601714674561,0.203265006012163
417,23.851,23.72,0.01,0.7891486053851721,0.7208945293440059,0.4959876890245779,0.25091100396893073,0.6390890976113097,0.20318035046708352
418,23.934,23.77,-0.04,0.7900635477086853,0.7223427593128651,0.49531737601536385,0.25098160912915557,0.6391115995961552,0.2031048465015789
419,23.955,23.83,-0.02,0.7909707005318615,0.7237764108978486,0.4946682939455256,0.2510364023593421,0.6391278027156875,0.2030384503771756
420,24.019,23.89,0.01,0.7918702927375088,0.7251954739801014,0.4940409969660215,0.2510748607723461,0.63913784178214,0.20298110794850796
421,24.08,23.94,-0.04,0.7927625442173625,0.7265999392467988,0.49343600886175887,0.2510964832700783,0.639141861036501,0.202932754673966
422,24.122,24.0,-0.04,0.7936476653515196,0.727989797878729,0.4928538225126127,0.25110079110931627,0.6391400140481734,0.20289331563592616
423,24.184,24.05,0.01,0.7945258565164639,0.7293650412585115,0.49229489938597343,0.2510873284386611,0.6391324636040069,0.20286270557067704
424,24.225,24.1,0.01,0.7953973076227201,0.73072566069996,0.49175966906123353,0.25105566280633207,0.6391193815866186,0.2028408289081725
425,24.326,24.16,-0.03,0.7962621976829207,0.7320716471991743,0.49124852878656516,0.2510053856386324,0.6391009488419136,0.2028275798217589
426,24.347,24.21,0.02,0.7971206944107113,0.7334029912080071,0.4907618430682372,0.2509361126890297,0.6390773550357314,0.20282284228799968
427,24.389,24.27,0.02,0.7979729538506863,0.7347196824305589,0.49029994329265225,0.2508474844578171,0.6390487984996117,0.20282649015665855
428,24.452,24.32,-0.03,0.7988191200394784,0.7360217096432782,0.48986312738122856,0.2507391665822428,0.639015486065727,0.20283838723083425
429,24.513,24.38,-0.02,0.7996593246981782,0.7373090605391279,0.4894516594782365,0.2506108501969014,0.6389776328910789,0.20285838735719117
430,24.555,24.43,0.0,0.8004936869563837,0.7385817215961569,0.48906576967174525,0.25046225226408614,0.638935462271088,0.2028863345261985
431,24.658,24.49,-0.06,0.801322313108348,0.7398396779706992,0.4887056537479558,0.2502931158737015,0.6388892054426925,0.202922062982302
432,24.679,24.55,-0.06,0.8021452964017687,0.7410829134153724,0.48837147297932115,0.25010321051231027,0.6388391013770334,0.20296539734400834
433,24.72,24.6,0.0,0.80296271685973,0.7423114102220313,0.4880633539469275,0.24989233230096575,0.638785396561735,0.20301615273393922
434,24.781,24.66,0.0,0.8037746411361717,0.743525149189874,0.48778138839762636,0.2496603042016247,0.6387283447727208,0.20307413491899273
435,24.845,24.71,-0.01,0.804581122404981,0.7447241096189567,0.4875256331362998,0.24940697619218002,0.6386682068354628,0.2031391404608043
436,24.928,24.76,0.05,0.8053822002824529,0.7459082693294352,0.48729610995341016,0.24913222541045787,0.6386052503755782,0.2032109568766816
437,24.949,24.82,0.06,0.8061779007826537,0.7470776047068393,0.4870928055877438,0.24883595626771848,0.6385397495587767,0.20328936281108664
438,25.033,24.87,0.0,0.8069682363051992,0.748232090773585,0.48691567172406164,0.2485181005322122,0.6384719848202877,0.20337412821759937
439,25.054,24.93,0.02,0.8077532056550705,0.74937170128678,0.4867646250252386,0.2481786173832337,0.6384022425840321,0.2034650145511478
440,25.116,24.98,0.04,0.8085327940942926,0.7504964088622028,0.4866395471984294,0.24781749343594636,0.6383308149719077,0.20356177497017175
441,25.158,25.04,-0.03,0.8093069734254732,0.7516061851241982,0.4865402850948477,0.24743474273708396,0.6382579995036133,0.20366415454832767
442,25.221,25.09,-0.03,0.8100757021072404,0.7527010008811545,0.4864666508427909,0.24703040673159082,0.6381840987874275,0.2037718904953582
443,25.302,25.15,0.01,0.8108389254015239,0.7537808263262178,0.48641842201358587,0.24660455420034888,0.6381094202023074,0.20388471238680628
444,25.446,25.2,0.0,0.811596575552473,0.7548456312629189,0.48639534182018257,0.2461572811692839,0.6380342755716061,0.20400234240233356
445,25.467,25.26,-0.02,0.8123485719965945,0.7558953853554438,0.486397119348145,0.24568871079031052,0.637958980828643,0.20412449557248316
446,25.487,25.32,0.04,0.8130948216034612,0.7569300584033101,0.48642342981879716,0.24519899319473065,0.6378838556743245,0.20425088003376576
447,25.527,25.37,0.04,0.8138352189462681,0.7579496206401813,0.48647391488430913,0.24468830531972927,0.6378092232270406,0.20438119729192802
448,25.569,25.42,-0.01,0.8145696466015728,0.758954043056432,0.48654818295455365,0.24415685070850573,0.6377354096651092,0.20451514249320857
449,25.589,25.48,0.01,0.8152979754776921,0.7599432977449078,0.48664580955557907,0.24360485928441705,0.6376627438621144,0.20465240470330867
450,25.651,25.53,0.03,0.8160200651713901,0.7609173582691311,0.48676633771956,0.24303258709931844,0.6375915570155618,0.20479266719372105
451,25.712,25.59,-0.03,0.8167357643526407,0.7618762000530269,0.4869092784060983,0.24244031605611574,0.6375221822693209,0.20493560773501313
452,25.773,25.64,-0.02,0.8174449111772549,0.7628198007911181,0.48707411095470027,0.2418283536054985,0.6374549543303245,0.20508089889665945
453,25.813,25.7,0.01,0.8181473337270575,0.7637481408780877,0.48726028356816026,0.24119703241693338,0.6373902090799791,0.20522820835304717
454,25.875,25.75,-0.0,0.818842850477114,0.7646612038566033,0.4874672138264658,0.24054671002422853,0.637328283180698,0.20537719919532313
455,25.937,25.81,-0.02,0.8195312707892348,0.7655589768823363,0.48769428923069974,0.23987776844629508,0.637269513677929,0.20552753024880444
456,25.997,25.86,0.04,0.8202123954307121,0.7664414512051574,0.48794086777629925,0.2391906137840551,0.6372142375980268,0.20567885639569883
457,26.058,25.92,0.04,0.8208860171171225,0.7673086226654753,0.48820627855499776,0.23848567579459345,0.6371627915423428,0.2058308289028606
458,26.139,25.98,-0.01,0.8215519210780633,0.7681604922045886,0.4884898223848073,0.23776340744359808,0.6371155112779523,0.20598309575425303
459,26.16,26.03,0.0,0.8222098856448092,0.7689970663877737,0.488790772467417,0.2370242844369732,0.637072731325515,0.20613530198770805
460,26.202,26.08,0.01,0.8228596828590371,0.7698183579386503,0.489108375072399,0.23626880473230766,0.6370347845448282,0.20628709003550055
461,26.263,26.14,-0.05,0.8235010791018759,0.770624386283207,0.4894418502476148,0.23549748803069454,0.637002001718659,0.20643810006822705
462,26.344,26.19,-0.02,0.8241338357425415,0.7714151781017595,0.48979039255517326,0.23471087524933046,0.6369747111354129,0.20658797034151222
463,26.364,26.25,0.0,0.8247577098057126,0.7721907678870659,0.4901531718322472,0.2339095279753842,0.6369532381711426,0.20673633754513432
464,26.427,26.3,-0.03,0.8253724546566954,0.7729511985068043,0.49052933397602355,0.23309402790176637,0.6369379048713278,0.20688283715423328
465,26.509,26.36,-0.04,0.825977820703249,0.7736965217686468,0.4909180017520269,0.23226497624563666,0.6369290295328177,0.20702710378232986
466,26.53,26.41,0.02,0.8265735561127838,0.7744267989861935,0.4913182756250307,0.23142299315067186,0.6369269262862911,0.20716877153590915
467,26.592,26.47,0.02,0.8271594075436081,0.7751421015440393,0.49172923461178064,0.23056871707415663,0.6369319046796037,0.20730747437032102
468,26.654,26.52,-0.03,0.827735120888939,0.7758425114601993,0.4921499371547659,0.22970280415983985,0.6369442692624052,0.20744284644673006
469,26.715,26.58,0.01,0.8283004420324792,0.7765281219440391,0.49257942201622423,0.22882592759732032,0.6369643191724561,0.2075745224897981
470,26.756,26.64,0.02,0.8288551176144502,0.777199037947747,0.4930167091914853,0.22793877696852305,0.636992347724145,0.20770213814570349
471,26.838,26.69,-0.03,0.8293988958070633,0.7778553767092881,0.4934608008406776,0.22704205758165177,0.6370286419997584,0.20782533034004533
472,26.918,26.75,-0.02,0.8299315270983751,0.7784972682847334,0.4939106822377402,0.2261364897929282,0.637073482444077,0.20794373763515464
473,26.938,26.8,-0.01,0.8304527650834039,0.7791248560678765,0.494365322735641,0.22522280831646568,0.6371271424628737,0.20805700058633664
474,26.979,26.85,-0.06,0.830962367261343,0.7797382972951062,0.4948236767467255,0.22430176152270537,0.63718988802586,0.20816476209659837
475,27.041,26.91,-0.06,0.8314600958376358,0.7803377635336058,0.4952846847371887,0.22337411072595176,0.6372619772745712,0.20826666776948
476,27.104,26.96,-0.02,0.8319457185296172,0.7809234411510709,0.49574727423475295,0.2224406294616517,0.6373436601356155,0.2083623662596914
477,27.144,27.02,-0.02,0.8324190093743657,0.7814955317652643,0.4962103608487452,0.2215021027541114,0.6374351779396292,0.20845150962133574
478,27.228,27.07,-0.04,0.832879749537346,0.7820542526718356,0.4966728493018149,0.22055932637537418,0.6375367630462375,0.20853375365356985
479,27.248,27.13,0.01,0.8333277281202969,0.7825998372489241,0.49713363447248576,0.21961310609600623,0.6376486384753001,0.20860875824355754
480,27.311,27.18,0.02,0.8337627429667719,0.7831325353371124,0.4975916024476417,0.2186642569285082,0.6377710175447732,0.20867618770652438
481,27.373,27.24,-0.04,0.8341846014637354,0.7836526135933053,0.49804563158394166,0.21771360236398501,0.637904103515582,0.20873571112264203
482,27.436,27.3,-0.02,0.8345931213376215,0.784160355817131,0.4984945935770367,0.2167619736026358,0.6380480892439724,0.20878700267039393
483,27.498,27.35,-0.01,0.8349881314433313,0.78465606324848,0.49893735453736393,0.21581020877859425,0.6382031568418629,0.20882974195600543
484,27.519,27.41,-0.06,0.8353694725447911,0.7851400548348371,0.4993727760712605,0.21485915217963777,0.6383694773457383,0.20886361433850453
485,27.601,27.46,-0.07,0.8357369980858019,0.7856126674671304,0.49979971636613857,0.21390965346233448,0.6385472103945863,0.2088883112500171
486,27.642,27.51,-0.03,0.8360905749499472,0.7860742561829464,0.500217031278501,0.21296256686330498,0.6387365039173148,0.20890353051097377
487,27.684,27.57,-0.04,0.8364300842082728,0.7865251943361231,0.500623575423641,0.21201875040738688,0.6389374938300095,0.20890897663999736
488,27.746,27.62,-0.06,0.836755421853269,0.7869658737319333,0.5010182032659146,0.2110790651135988,0.6391503037433051,0.20890436115832842
489,27.809,27.68,-0.01,0.8370664995174053,0.7873967047272756,0.5013997702084593,0.2101443741998985,0.6393750446801132,0.2088894028886894
490,27.869,27.73,-0.0,0.8373632451743315,0.7878181162954325,0.5017671336812055,0.20921554228774136,0.6396118148039566,0.2088638282484773
491,27.911,27.79,-0.05,0.8376456038209092,0.7882305560549867,0.5021191542260247,0.20829343460734678,0.639860699158193,0.20882737153713227
492,27.994,27.84,-0.03,0.8379135381384335,0.788634490262477,0.5024546965778559,0.20737891620443585,0.6401217694164669,0.2087797752174742
493,28.014,27.9,-0.02,0.8381670291317265,0.7890304037683252,0.5027726307407167,0.20647285114903785,0.6403950836447613,0.2087207901907526
494,28.095,27.95,-0.07,0.8384060767451859,0.7894187999355251,0.5030718330575918,0.20557610174681074,0.6406806860754312,0.2086501760651446
495,28.157,28.01,-0.06,0.8386307004551523,0.7898002005206086,0.5033511872732643,0.20468952775328875,0.6409786068935699,0.208567701417472
496,28.177,28.07,-0.02,0.838840939838081,0.7901751455164975,0.5036095855891679,0.2038139855915655,0.6412888620360075,0.20847314404795883
497,28.24,28.12,-0.02,0.8390368551139743,0.7905441929569959,0.5038459297093112,0.20295032757409043,0.6416114530031873,0.2083662912279123
498,28.343,28.17,-0.04,0.8392185276643224,0.7909079186828785,0.5040591318762396,0.20209940112944824,0.6419463666841265,0.2082469399402512
499,28.364,28.23,0.01,0.8393860605234891,0.7912669160697373,0.5042481158959051,0.2012620480351455,0.6422935751946697,0.208114897112802
500,28.406,28.28,0.01,0.8395395788422452,0.7916217957179124,0.5044118181502759,0.2004391036574381,0.6426530357292922,0.20796997984422022
501,28.468,28.34,-0.04,0.839679230322075,0.7919731851048979,0.5045491885965565,0.19963139619908815,0.6430246904267851,0.20781201562231366
502,28.529,28.39,-0.02,0.8398051856189618,0.7923217282006095,0.504659191751942,0.19883974595572373,0.6434084662502143,0.20764084253446233
503,28.571,28.45,-0.01,0.8399176387155909,0.792668085045838,0.5047408076629403,0.1980649645812456,0.6438042748816007,0.2074563094697696
504,28.632,28.5,-0.07,0.8400168072611638,0.7930129312941653,0.5047930328584066,0.1973078543625357,0.6442120126317709,0.2072582763125678
505,28.714,28.56,-0.06,0.8401029328781165,0.7933569577176298,0.5048148812855052,0.19656920750367457,0.6446315603657873,0.2070466141269415
506,28.734,28.61,-0.04,0.8401762814349825,0.7937008696765169,0.5048053852278407,0.19584980541995703,0.6450627834442952,0.2068212053320062
507,28.794,28.67,-0.05,0.8402371432844759,0.7940453865537966,0.5047635962050294,0.19515041804213817,0.6455055316810393,0.2065819438677734
508,28.835,28.73,-0.05,0.8402858334655707,0.7943912411549341,0.504688585852999,0.1944718031315002,0.6459596393167082,0.20632873535152674
509,28.896,28.78,-0.0,0.8403226918680226,0.7947391790740046,0.5045794467843489,0.19381470560644254,0.6464249250092173,0.20606149722468953
510,28.958,28.83,-0.0,0.8403480833576659,0.7950899580271616,0.504435293428219,0.19317985688124711,0.6469011918405329,0.20578015889016157
511,29.02,28.89,-0.04,0.8403623978609602,0.7954443471545065,0.504255262849259,0.19256797421746205,0.647388227340172,0.20548466184005884
512,29.081,28.94,-0.03,0.8403660504075233,0.7958031262913295,0.5040385155453693,0.19197976008808973,0.6478858035255786,0.20517495977371047
513,29.142,29.0,-0.02,0.8403594811297049,0.7961670852095953,0.5037842362239313,0.1914159015545214,0.6483936769596375,0.20485101870568878
514,29.205,29.05,-0.07,0.840343155218529,0.7965370228304556,0.5034916345562617,0.19087706965597073,0.6489115888256085,0.20451281706361368
515,29.225,29.11,-0.06,0.8403175628354618,0.7969137464085573,0.5031599459100083,0.19036391881109163,0.6494392650197356,0.20416034577549924
516,29.307,29.16,-0.04,0.840283218979494,0.797298070688959,0.5027884320592241,0.18987708623152236,0.6499764162617196,0.20379360834647278
517,29.347,29.22,-0.06,0.8402406633089861,0.7976908170375792,0.5023763818718877,0.18941719134723306,0.650522738223162,0.2034126209247872
518,29.493,29.27,-0.07,0.8401904599176166,0.798092812546256,0.5019231119746862,0.188984835243756,0.6510779116739928,0.2030174123571371
519,29.514,29.33,-0.03,0.8401331970637008,0.7985048891136646,0.5014279673949251,0.18858060011157501,0.6516416026468373,0.20260802423335944
520,29.535,29.39,-0.03,0.8400694868522889,0.7989278825034273,0.5008903221795384,0.18820504870802726,0.6522134626192282,0.20218451092063344
521,29.556,29.44,-0.06,0.8399999648697254,0.7993626313807451,0.500309579991279,0.1878587238320027,0.6527931287135518,0.20174693958731188
522,29.619,29.5,-0.02,0.8399252897706345,0.7998099763288209,0.49968517468223284,0.1875421478115864,0.6533802239146268,0.20129539021649848
523,29.682,29.55,-0.01,0.839846142817549,0.8002707588462527,0.49901657084481366,0.18725582200461977,0.6539743573048299,0.20082995560944936
524,29.725,29.6,-0.05,0.8397632273735981,0.8007458203265041,0.4983032643403507,0.1870002263120241,0.6545751243167148,0.20035074137883643
525,29.806,29.66,-0.04,0.8396772683487579,0.80123600102052,0.4975447828052662,0.18677581870373458,0.6551821070030899,0.19985786593187843
526,29.827,29.71,-0.02,0.8395890116002168,0.8017421389835828,0.4967406861347187,0.18658303475721114,0.6557948743245304,0.1993514604433162
527,29.888,29.77,-0.07,0.8394992232874771,0.8022650690075449,0.4958905669435108,0.18642228720864779,0.6564129824543021,0.1988316688182031
528,29.95,29.82,-0.08,0.8394086891828484,0.8028056215396531,0.494994051004033,0.1862939655171639,0.65703597510063,0.19829864764451535
529,30.012,29.88,-0.04,0.839318213938037,0.8033646215892695,0.4940507976610319,0.18619843544240564,0.65766338384618,0.19775256613564557
530,30.054,29.93,-0.04,0.8392286203075888,0.8039428876238707,0.49306050022304165,0.18613603863607556,0.658294728504545,0.1971936060629261
531,30.116,29.99,-0.06,0.8391407483299694,0.8045412304557572,0.4920228863303485,0.18610709224795785,0.6589295174934352,0.19662196167841473
532,30.178,30.05,-0.01,0.8390554544669956,0.8051604521209452,0.4909377182993321,0.18611188854702523,0.6595672482242227,0.19603783962822086
533,30.24,30.1,-0.0,0.8389736107023352,0.8058013447516871,0.48980479344300054,0.18615069455817343,0.6602074075074935,0.19544145885664146
534,30.303,30.16,-0.06,0.8388961035998593,0.8064646894440248,0.4886239443675176,0.1862237517150335,0.6608494719742829,0.1948330505013307
535,30.324,30.21,-0.05,0.8388238333227228,0.8071512551217135,0.48739503924449445,0.18633127552923592,0.6614929085127116,0.19421285777967337
536,30.384,30.26,-0.03,0.8387577126142104,0.807861797397809,0.4861179820588353,0.1864734552764357,0.662137174719762,0.19358113586649472
537,30.445,30.32,-0.08,0.8386986657415919,0.8085970574351637,0.484792712831995,0.18665045369934924,0.6627817193679044,0.1929381517632542
538,30.549,30.37,-0.07,0.8386476274043925,0.8093577608070759,0.48341920782059833,0.18686240672805085,0.6634259828862138,0.19228418415894538
539,30.57,30.43,-0.03,0.8386055416085585,0.8101446163593655,0.48199747969044765,0.18710942321786161,0.6640693978555234,0.1916195232830114
540,30.61,30.48,-0.02,0.838573360508006,0.8109583150752268,0.4805275776660028,0.18739158470528094,0.6647113895170842,0.19094447075066795
541,30.712,30.54,-0.04,0.8385520432149459,0.811799528944274,0.47900958765539053,0.18770894518256326,0.6653513762941395,0.19025933940107465
542,30.733,30.59,0.02,0.8385425545802557,0.812668909837259,0.4774436323508869,0.188061530891677,0.6659887703258236,0.18956445312879106
543,30.795,30.65,0.03,0.8385458639451704,0.8135670883879085,0.47582987130468934,0.18844934013841577,0.666622978012841,0.18886014670888238
544,30.815,30.7,-0.02,0.8385629438656979,0.8144946728832475,0.47416850097968216,0.18887234312733556,0.6672534005744607,0.1881467656159367
545,30.918,30.76,-0.0,0.8385947688113609,0.8154522481636581,0.47245975477481683,0.18933048181803983,0.6678794346164498,0.18742466583714587
546,30.94,30.82,0.01,0.8386423138401243,0.8164403745338151,0.4707039030247104,0.1898236698031651,0.6685004727096361,0.1866942136795071
547,31.0,30.87,-0.05,0.838706553251666,0.8174595866855503,0.46890125297313817,0.1903517922082632,0.6691159039788148,0.185955785571164
548,31.041,30.92,-0.04,0.8387884592213062,0.818510392633676,0.4670521487201948,0.1909147056137141,0.6697251147016811,0.18520976785693144
549,31.101,30.98,-0.0,0.8388890004169445,0.8195932726658327,0.4651569711430081,0.1915122379988478,0.6703274889174007,0.18445655658811194
550,31.162,31.03,-0.0,0.8390091406012694,0.82070867830751,0.46321613778999693,0.19214418870854277,0.6709224090443501,0.18369655730679657
551,31.224,31.09,-0.02,0.8391498372213041,0.8218570313034902,0.46123010274873716,0.19281032844268067,0.6715092565064668,0.18293018482492884
552,31.284,31.14,0.04,0.8393120399871312,0.8230387226170653,0.45919935648752697,0.19351039926894006,0.672087412367616,0.1821578629984435
553,31.326,31.2,0.05,0.8394966894415781,0.8242541114484063,0.45712442567077755,0.19424411465939956,0.672656257973394,0.18138002449675986
554,31.387,31.25,0.01,0.8397047155227957,0.8255035242733865,0.45500587294839906,0.19501115955127926,0.6732151755998528,0.18059711056782504
555,31.449,31.31,0.03,0.8399370361219127,0.8267872539040421,0.45284429671938875,0.19581119043194084,0.6737635491087142,0.17980957079879792
556,31.51,31.36,0.04,0.8401945556382462,0.828105558571709,0.4506403308698803,0.1966438354480368,0.6743007646087155,0.1790178628723621
557,31.552,31.42,-0.01,0.8404781635347867,0.8294586610337533,0.44839464448595573,0.1975086945385088,0.6748262111227701,0.17822245231860145
558,31.593,31.48,-0.0,0.8407887328967479,0.8308467477047677,0.4461079415415156,0.19840533959106654,0.675339281260611,0.17742381226237083
559,31.654,31.53,0.03,0.8411271189959011,0.8322699678131205,0.4437809605614575,0.19933331462184217,0.6758393718965514,0.17662242316612417
560,31.715,31.58,0.02,0.8414941578632625,0.8337284325838198,0.44141447426036207,0.20029213597805212,0.6763258848519373,0.17581877256821446
561,31.756,31.64,0.01,0.8418906648724369,0.8352222144487677,0.4390092891568221,0.20128129256368396,0.6767982275818154,0.17501335481673122
562,31.818,31.7,0.06,0.8423174333356528,0.8367513462856015,0.4365662451634964,0.20230024608839942,0.6772558138653064,0.1742066707989586
563,31.901,31.75,0.06,0.8427752331144426,0.838315820686354,0.4340862151529941,0.20334843133987315,0.6776980644991958,0.17339922766651195
564,31.922,31.8,0.01,0.8432648092469659,0.8399155892571283,0.43157010449976535,0.20442525647965662,0.6781244079942806,0.1725915385561581
565,32.047,31.86,0.03,0.8437868805939703,0.8415505619499171,0.42901885059824785,0.20553010336244984,0.6785342812740653,0.17178412230626236
566,32.067,31.92,0.04,0.8443421385053302,0.8432206064276421,0.42643342235759496,0.20666232787843217,0.6789271303754296,0.17097750316875154
567,32.149,31.97,-0.03,0.8449312455090522,0.8449255474634231,0.42381481967337764,0.20782126031809428,0.6793024111508909,0.17017221051647935
568,32.17,32.03,-0.02,0.8455548340245654,0.8466651663750404,0.4211640728766954,0.2090062057589231,0.6796595899720217,0.1693687785459375
569,32.211,32.08,0.01,0.8462135051020374,0.8484392004955349,0.418482242161167,0.21021644447331372,0.6799981444334932,0.16856774597535032
570,32.273,32.14,-0.01,0.8469078271893439,0.8502473426809058,0.41577041698833717,0.2114512323571671,0.6803175640571015,0.16776965573830818
571,32.313,32.19,-0.01,0.8476383349281139,0.8520892408559347,0.4130297154721009,0.21270980137876566,0.680617350995028,0.1669750546732096
572,32.375,32.25,0.04,0.8484055279800412,0.8539644975992404,0.41026128374278964,0.21399136004766517,0.6808970207315103,0.16618449320885711
573,32.414,32.3,0.05,0.8492098698845298,0.8558726697686915,0.4074662952916241,0.21529509390339693,0.6811561027820747,0.16539852504657057
574,32.476,32.35,0.02,0.8500517869487417,0.857813268168244,0.40464595029627065,0.21662016602371284,0.6813941413895012,0.16461770683915752
575,32.537,32.41,0.06,0.8509316671711382,0.8597857572571564,0.40180147492822166,0.2179657175519733,0.6816106962157416,0.16384259786701194
576,32.62,32.47,0.07,0.8518498591996683,0.8617895549023779,0.3989341206426681,0.2193308682430994,0.6818053430290968,0.16307375971151358
577,32.64,32.52,0.01,0.852806671325762,0.8638240321747569,0.396045163451459,0.22071471702734471,0.6819776743860357,0.1623117559258087
578,32.703,32.58,0.03,0.853802370515196,0.8658885131896117,0.3931359031796391,0.2221163425910806,0.6821273003070831,0.1615571517029895
579,32.744,32.63,0.04,0.8548371814767601,0.8679822749921371,0.39020766270598134,0.22353480397383832,0.6822538489462283,0.16081051354166653
580,32.805,32.69,-0.01,0.8559112857695756,0.8701045474880944,0.3872617871879376,0.22496914118095046,0.6823569672532673,0.16007240890895805
581,32.865,32.74,-0.01,0.8570248209498313,0.8722545134202107,0.3842996432714948,0.22641837581126192,0.6824363216284202,0.15934340590100446
582,32.928,32.8,0.03,0.8581778797576729,0.8744313083907059,0.3813226182865406,0.22788151169949,0.6824915985684635,0.15862407290122005
583,32.97,32.85,0.03,0.8593705093450045,0.8766340209303284,0.3783321194284835,0.22935753557285127,0.6825225053035262,0.1579149782366025
584,33.031,32.91,-0.0,0.860602710544943,0.8788616926142113,0.3753295729269651,0.23084541772156816,0.6825287704236045,0.15721668983251663
585,33.111,32.96,0.05,0.8618744371835863,0.8811133182247793,0.37231642320250957,0.23234411268286004,0.6825101444938073,0.15652977486642075
586,33.132,33.02,0.06,0.8631855954346774,0.8833878459618059,0.3692941320119183,0.23385255993798126,0.6824664006573418,0.15585479942100325
587,33.194,33.07,0.01,0.8645360432177192,0.8856841776995762,0.3662641775831802,0.23536968462179209,0.6823973352252662,0.15519232813717537
588,33.256,33.13,0.03,0.8659255896400845,0.888001169290952,0.3632280537406018,0.23689439824429176,0.6823027682520654,0.15454292386733443
589,33.318,33.18,0.05,0.8673539944837246,0.8903376309179841,0.36018726902081993,0.23842559942350292,0.6821825440961307,0.15390714732928082
590,33.379,33.24,-0.0,0.8688209677371681,0.8926923274886062,0.35714334578036144,0.23996217462905015,0.6820365319642319,0.15328555676116754
591,33.482,33.29,0.01,0.8703261691735094,0.8950639790788724,0.35409781929542056,0.24150299893576951,0.6818646264390397,0.15267870757789376
592,33.503,33.35,0.06,0.871869207975,0.8974512614202065,0.3510522368545251,0.243046936786731,0.6816667479887171,0.15208715202940365
593,33.524,33.4,0.06,0.8734496424046978,0.8998528064311554,0.3480081568447455,0.24459284276511803,0.6814428434575482,0.15151143886140803
594,33.586,33.46,0.05,0.8750669795253742,0.9022672027931816,0.34496714783202087,0.24613956237449883,0.6811928865365465,0.15095211297908076
595,33.627,33.51,0.1,0.8767206749655586,0.9046929965700736,0.3419307876360346,0.24768593282712045,0.6809168782130083,0.15040971511425885
596,33.689,33.57,0.1,0.8784101327324062,0.9071286918705205,0.3389006623999508,0.24923078383986855,0.680614847198059,0.14988478149659026
597,33.751,33.62,0.05,0.8801347050710477,0.9095727515533122,0.3358783656552613,0.2507729384374384,0.6802868503313413,0.14937784352896225
598,33.852,33.67,0.06,0.8818936923701307,0.9120235979745036,0.33286549738198923,0.25231121376212384,0.6799329729620918,0.1488894274674402
599,33.892,33.73,0.08,0.88368634311341,0.9144796137757538,0.32986366306457204,0.25384442188947254,0.6795533293059186,0.14842005410588127
600,33.912,33.78,0.02,0.8855118538774445,0.9169391427129402,0.3268744727438927,0.25537137064891385,0.679148062776592,0.14797023846539473
601,33.973,33.84,0.02,0.8873693693755861,0.9194004905240902,0.3238995400660751,0.25689086444841197,0.6787173462921029,0.14754048948889326
602,34.014,33.9,0.07,0.8892579825484768,0.9218619258356712,0.3209404813287618,0.2584017051022817,0.678261382554172,0.14713130974107771
603,34.076,33.95,0.06,0.8911767347011699,0.9243216811063365,0.31799891452565054,0.2599026926614714,0.6777804043003086,0.14674319511429676
604,34.139,34.01,0.05,0.8931246156867163,0.9267779536073314,0.31507645839004383,0.26139262624585324,0.6772746745274585,0.14637663454080738
605,34.223,34.06,0.11,0.8951005641356923,0.9292289064388892,0.31217473143808533,0.2628703048782848,0.6767444866862647,0.14603210971199165
606,34.244,34.12,0.11,0.8971034677309384,0.931672669581987,0.3092953510123025,0.2643345283202831,0.6761901648450017,0.14571009480505545
607,34.305,34.17,0.08,0.8991321635268332,0.9341073409847782,0.3064399323260583,0.26578409790904994,0.6756120638223226,0.14541105621766198
608,34.346,34.23,0.1,0.9011854383126642,0.9365309876828999,0.3036100875095231,0.2672178173953982,0.6750105692880582,0.14513545231085828
609,34.408,34.28,0.12,0.9032620290200213,0.9389416469527214,0.30080742465779536,0.2686344937819258,0.6743860978314108,0.14488373316054973
610,34.47,34.34,0.06,0.9053606231744732,0.9413373274965047,0.2980335468818256,0.270032938160626,0.6737390969959658,0.14465634031770697
611,34.613,34.39,0.08,0.9074798593918826,0.9437160106584334,0.2952900513627582,0.2714119665490932,0.6730700452809857,0.14445370657746578
612,34.634,34.45,0.11,0.9096183279196015,0.9460756516705506,0.2925785284102369,0.272770400724587,0.672379452108456,0.14427625575728384
613,34.654,34.5,0.1,0.9117745712225395,0.9484141809277702,0.28990056052514285,0.27410706905537685,0.6716678577553498,0.14412440248435
614,34.695,34.56,0.09,0.9139470846137545,0.9507295052913028,0.2872577214671671,0.2754208073289728,0.670935833250562,0.14399855199247458
615,34.775,34.61,0.13,0.9161343169289248,0.9530195094199975,0.28465157532759205,0.2767104595769885,0.6701839802359797,0.14389909992869515
616,34.816,34.67,0.13,0.9183346712440418,0.9552820571291487,0.28208367560770753,0.27797487889638806,0.669412930791209,0.14382643216979007
617,34.836,34.72,0.08,0.9205465056359036,0.957514992776252,0.27955556430338874,0.2792129282667417,0.6686233472215541,0.1437809246488367
618,34.898,34.78,0.1,0.9227681339853203,0.9597161426730465,0.27706877099644345,0.2804234813629402,0.6678159218089147,0.14376294319189023
619,34.961,34.83,0.12,0.9249978268232847,0.961883316523023,0.2746248119534126,0.28160542336264044,0.6669913765253261,0.14377284336482035
620,35.023,34.89,0.07,0.9272338122206263,0.9640143088834365,0.27222518923256833,0.28275765174757117,0.6661504627088936,0.1438109703303418
621,35.084,34.94,0.08,0.9294742767217264,0.966106900650816,0.2698713897998678,0.2838790770978085,0.6652939607018564,0.14387765871531413
622,35.125,35.0,0.11,0.9317173663228001,0.9681588605689596,0.26756488465461514,0.284968623878232,0.6644226794505046,0.14397323248843946
623,35.165,35.05,0.11,0.933961187495081,0.970167946758487,0.26530712796558203,0.2860252312165407,0.6635374560666395,0.14409800484853924
624,35.227,35.1,0.1,0.9362038082529588,0.9721319082671369,0.26309955621831893,0.28704785367241925,0.6626391553502687,0.1442522781236347
625,35.328,35.16,0.16,0.9384432592668147,0.9740484866401561,0.2609435873743681,0.2880354619976474,0.6617286692732557,0.1444363436810448
626,35.348,35.22,0.17,0.9406775350202421,0.9759154175101704,0.2588406200431056,0.28898704388700974,0.6608069164237287,0.14465048184865584
627,35.39,35.27,0.14,0.9429045950115283,0.9777304322058659,0.2567920326669621,0.2899016047197653,0.6598748414111785,0.1448949618474065
628,35.452,35.33,0.16,0.9451223649995315,0.9794912593786669,0.25479918272075525,0.2907781682912572,0.658933414232332,0.1451700417348887
629,35.513,35.38,0.17,0.9473287382943435,0.9811956266464196,0.2528634059258194,0.2916157775340293,0.6579836295980507,0.14547596835981258
630,35.576,35.44,0.12,0.949521577093281,0.9828412622529533,0.25098601547954685,0.29241349522763194,0.6570265062216374,0.1458129773269685
631,35.618,35.49,0.13,0.9516987138627674,0.9844258967423105,0.24916830130084452,0.29317040469623196,0.6560630860690136,0.14618129297226737
632,35.7,35.55,0.15,0.953857952766571,0.9859472646464367,0.24741152929191448,0.29388561049319056,0.6550944335712655,0.14658112834743406
633,35.721,35.6,0.11,0.9559970711407347,0.9874031061851921,0.24571694061673033,0.29455823907187517,0.6541216348000648,0.14701268521396077
634,35.782,35.66,0.11,0.9581138210152264,0.9887911689776914,0.24408575099658922,0.2951874394421107,0.6531457966064582,0.14747615404597714
635,35.823,35.71,0.16,0.960205930682043,0.9901092097641284,0.24251915002315572,0.2957723838118071,0.6521680457235199,0.14797171404173598
636,35.908,35.77,0.16,0.9622711063093717,0.9913549961373295,0.24101830048948134,0.29631226821334894,0.6511895278333742,0.14849953314343486
637,35.928,35.82,0.11,0.9643070336015107,0.9925263082832305,0.23958433773952603,0.2968063131142857,0.650211406599141,0.14905976806508836
638,35.99,35.88,0.15,0.9663113795043793,0.9936209407293732,0.23821836903669058,0.2972537640117828,0.6492348626624238,0.14965256432812185
639,36.053,35.93,0.17,0.9682817939566033,0.9946367041003861,0.23692147295182292,0.297653892010175,0.648261092607068,0.15027805630428387
640,36.135,35.99,0.11,0.9702159116861886,0.9955714268793077,0.23569469877108756,0.29800599438086783,0.6472913078899958,0.15093636726541831
641,36.155,36.04,0.12,0.9721113540526375,0.9964229571735838,0.2345390659239767,0.29830939510383253,0.6463267337399937,0.15162760943960338
642,36.215,36.1,0.15,0.9739657309340418,0.9971891644846047,0.2334555634316301,0.2985634453900488,0.6453686080253822,0.15235188407314654
643,36.278,36.15,0.11,0.9757766426583563,0.9978679414797348,0.23244514937556707,0.29876752418437813,0.6444181800915295,0.15310928149792702
644,36.341,36.21,0.11,0.9775416819776603,0.9984572057659026,0.23150875038689625,0.29892103864849373,0.6434767095691936,0.1538998812036025
645,36.446,36.26,0.15,0.9792584360839373,0.9989549016639419,0.23064726115604497,0.2990234246236179,0.6425454651546922,0.15472375191421506
646,36.468,36.32,0.15,0.9809244886647772,0.9993590019829283,0.22986154396303993,0.299074147072864,0.6416257233629521,0.15558095166872915
647,36.488,36.37,0.11,0.9825374219974398,0.9996675097937117,0.22915242822832463,0.2990727005029555,0.6407187672545328,0.15647152790501626
648,36.55,36.42,0.15,0.9840948190797552,0.9998784602007483,0.22852071008399816,0.29901860936503244,0.6398258851378164,0.15739551754675213
649,36.611,36.48,0.15,0.985594265796413,0.9999899221111832,0.22796715196527564,0.2989114284341431,0.6389483692476415,0.15835294709262865
650,36.651,36.53,0.1,0.9870333531191879,1.0,0.22749248222191193,0.2987507431669018,0.6380875144017456,0.1593438327072369
651,36.713,36.59,0.1,0.9884096793395349,0.9999068356699771,0.2270973947492871,0.29853617003675714,0.6372446166364403,0.16036818031295372
652,36.795,36.65,0.12,0.9897208523318214,0.9997086100051618,0.22678254863884897,0.2982673568463589,0.6364209718229867,0.16142598568216263
653,36.815,36.7,0.06,0.9909644918453271,0.9994035447165887,0.2265485678476688,0.29794398301659414,0.6356178742661476,0.16251723452917138
654,36.877,36.76,0.06,0.992138231823013,0.9989899040790002,0.22639604088695386,0.2975657598519818,0.6348366152863716,0.16364190260126252
655,36.939,36.81,0.1,0.993239722744937,0.998465996657386,0.22632552052945465,0.29713243078224394,0.6340784817870229,0.16479995576840165
656,36.981,36.87,0.1,0.9942666339941134,0.9978301770221852,0.22633752353578923,0.296643771579966,0.6333447548080339,0.16599135011121927
657,37.042,36.92,0.06,0.9952166562424644,0.9970808474520184,0.22643253039970998,0.29609959055432494,0.6326367080673337,0.1672160320069536
658,37.084,36.98,0.12,0.9960875038543051,0.9962164596227838,0.22661098511224093,0.29549972872092867,0.6319556064914242,0.16847393821306633
659,37.167,37.03,0.13,0.9968769173046789,0.9952355162818858,0.2268732949444842,0.2948440599478277,0.6313027047365446,0.16976499594821026
660,37.228,37.09,0.07,0.9975826656098223,0.9941365729062334,0.22721983024876394,0.2941324910777326,0.6306792457019575,0.17108912297016896
661,37.248,37.14,0.09,0.9982025487670042,0.9929182393425267,0.2276509242776444,0.29336496202646384,0.6300864590369906,0.17244622765032092
662,37.311,37.2,0.11,0.9987344002009263,0.9915791814282717,0.22816687302026414,0.29254144585767866,0.6295255596435607,0.17383620904411498
663,37.373,37.25,0.05,0.9991760892138807,0.9901181225918804,0.2287679350553948,0.29166194883392044,0.6289977461759816,0.17525895695701305
664,37.456,37.31,0.04,0.9995255234368264,0.988533845430194,0.22945433142063643,0.2907265104440689,0.6285041995398711,0.17671435200537322
665,37.517,37.36,0.08,0.9997806512785242,0.986825193261771,0.2302262454971813,0.28973520340734116,0.6280460813919828,0.17820226567179062
666,37.537,37.42,0.07,0.9999394643698226,0.9849910716543128,0.23108382290962165,0.2886881336540712,0.6276245326427533,0.17972256035447928
667,37.6,37.47,0.03,1.0,0.9830304499246558,0.23202717144028295,0.28758544028358707,0.627240671963342,0.18127508941035334
668,37.661,37.53,0.08,0.9999603435417969,0.9809423626098138,0.23305636095751722,0.28642729549960577,0.6268955942989184,0.18285969719151116
669,37.723,37.58,0.07,0.9998186308616329,0.9787259109075376,0.2341714233573451,0.2852139045235965,0.6265903693899963,0.18447621907483103
670,37.763,37.64,0.01,0.9995730507115406,0.9763802640847821,0.23537235251781446,0.28394550548653025,0.626326040303647,0.1861244814843754
671,37.804,37.69,0.02,0.9992218470994717,0.9739046608523726,0.23665910426544418,0.28262236929939705,0.6261036219764683,0.18780430190629027
672,37.905,37.75,0.03,0.9987633216348335,0.9712984107040772,0.23803159635318338,0.2812447995028311,0.6259240997712086,0.18951548889589687
673,37.926,37.8,-0.03,0.9981958358463642,0.9685608952182311,0.23948970844945044,0.27981313209611725,0.6257884280489218,0.1912578420767297
674,37.968,37.85,-0.03,0.9975178134696374,0.9656915693200616,0.24103328213796066,0.27832773534583005,0.6256975287584627,0.19303115213138156
675,38.03,37.91,0.02,0.9967277427015575,0.9626899625029096,0.24266212092817244,0.2767890095743983,0.6256522900450593,0.19483520078413988
676,38.092,37.97,0.02,0.9958241784192128,0.9595556800066232,0.24437599027626966,0.2751973869289639,0.6256535648796108,0.19666976077551446
677,38.153,38.02,-0.01,0.9948057443602799,0.9562884039514811,0.2461746176166141,0.27355333113099256,0.6257021697103213,0.19853459582884225
678,38.236,38.08,0.05,0.9936711352618813,0.9528878944260821,0.24805769240353706,0.271857337207166,0.6257988831382815,0.20042946060917213
679,38.257,38.13,0.05,0.992419118954601,0.9493539905276404,0.2500248661632528,0.27010993120207466,0.6259444446186779,0.20235410067458162
680,38.32,38.19,-0.02,0.9910485384083698,0.9456866113530344,0.25207575255558734,0.26831166987312777,0.6261395531894064,0.204308252419998
681,38.361,38.24,-0.02,0.9895583137270372,0.941885756938854,0.25420992744512333,0.26646314036798296,0.6263848662289443,0.20629164301352318
682,38.421,38.3,-0.01,0.9879474440886493,0.9379515091485503,0.2564269289813237,0.2645649598846998,0.6266809982453986,0.20830399032521632
683,38.506,38.35,-0.07,0.9862150096287104,0.9338840325047195,0.2587262576872284,0.2626177753147418,0.6270285196986273,0.21034500284832724
684,38.548,38.41,-0.08,0.9843601732638526,0.9296835749645176,0.2611073765563901,0.2606222628689628,0.6274279558572514,0.212414379613084
685,38.631,38.46,-0.04,0.9823821824533975,0.925350468636253,0.26356971115780675,0.25857912768680563,0.6278797856922452,0.21451181009329442
686,38.652,38.52,-0.05,0.9802803708962557,0.9208851304352874,0.26611264974872784,0.2564891034290444,0.628384440808668,0.21663697410618085
687,38.693,38.57,-0.08,0.9780541601603964,0.9162880626774808,0.26873554339528316,0.2543529518545077,0.628942304416975,0.21878954170601467
688,38.776,38.63,-0.03,0.9757030612418104,0.9115598536085449,0.2714377061008936,0.25217146238131105,0.6295537103452744,0.22096917307220573
689,38.798,38.68,-0.03,0.9732266760497178,0.9067011778676951,0.27421841494242705,0.2499454516331146,0.6302189420938783,0.22317551839252694
690,38.86,38.74,-0.08,0.9706246988148184,0.9017127968839497,0.2770769102141024,0.24767576297077737,0.6309382319335085,0.22540821774214026
691,38.922,38.79,-0.07,0.9678969174175739,0.8965955592033251,0.28001239557920804,0.24536326600959618,0.6317117600485451,0.2276669009590625
692,39.024,38.85,-0.05,0.9650432146337656,0.891350400745092,0.28302403822981864,0.24300885612211967,0.6325396537267188,0.22995118751668492
693,39.045,38.9,-0.11,0.962063569294866,0.8859783449851827,0.2861109690548448,0.24061345392636582,0.6334219865966316,0.2322606863939769
694,39.086,38.96,-0.11,0.9589580573609137,0.8804805030648646,0.2892722828168666,0.23817800475924086,0.634358777914427,0.2345949959440667
695,39.146,39.01,-0.06,0.9557268529035906,0.8748580738228843,0.2925070383382425,0.23570347813508757,0.6353499919008505,0.2369537037619719
696,39.209,39.07,-0.05,0.9523702289970936,0.869112343749454,0.29581425869696604,0.23319086718951304,0.6363955371298613,0.23933638655232944
697,39.249,39.12,-0.09,0.9488885585141673,0.8632446868606548,0.2991929314326487,0.2306411881088993,0.6374952659698929,0.24174260999802763
698,39.353,39.17,-0.04,0.9452823148243779,0.8572565644920265,0.3026420087628562,0.22805547954621572,0.6386489740788475,0.24417192863063594
699,39.374,39.23,-0.04,0.9415520723915725,0.8511495250102572,0.3061604078098963,0.22543480202383986,0.6398563999539458,0.246623885703461
700,39.416,39.28,-0.1,0.9376985072675439,0.8449252034419282,0.30974701083807255,0.22278023732403573,0.6411172245376014,0.24909801306797333
701,39.457,39.34,-0.1,0.9337223974791465,0.8385853210182748,0.3134006655013914,0.22009288786762748,0.6424310708805164,0.25159383105428096
702,39.519,39.4,-0.08,0.929624623306469,0.8321316846349166,0.31712018510178613,0.21737387608126174,0.6437975038631998,0.25411084835629266
703,39.56,39.45,-0.14,0.9254061674500736,0.8255661862255477,0.3209043488581056,0.21462434375350883,0.6452160299770375,0.256648561922246
704,39.643,39.51,-0.15,0.9210681150855766,0.8188908020486856,0.32475190218631755,0.211845451380003,0.6466860971659321,0.2592064568513654
705,39.684,39.56,-0.09,0.9166116538039933,0.8121075918867998,0.3286615569915568,0.20903837749787982,0.6482070947293828,0.26178400629752924
706,39.724,39.62,-0.1,0.9120380734363562,0.8052186981573791,0.33263199197280097,0.20620431800986905,0.6497783532877446,0.26438067138093013
707,39.806,39.67,-0.13,0.9073487657610694,0.7982263449357753,0.3366618529410239,0.20334448549852993,0.6513991448102817,0.26699590110878846
708,39.866,39.73,-0.07,0.9025452240923487,0.7911328368899205,0.34074975315165706,0.20046010853123775,0.6530686827065719,0.26962913230619473
709,39.887,39.78,-0.06,0.8976290427481203,0.7839405581271796,0.3448942736521723,0.1975524309565283,0.6547861219818053,0.27227978955810167
710,39.949,39.84,-0.11,0.8926019163959982,0.7766519709536532,0.34909396364560924,0.19462271119226562,0.6565505594565394,0.2749472851634023
711,40.012,39.89,-0.09,0.8874656392763258,0.7692696145462474,0.3533473408708934,0.19167222150593147,0.6583610340514909,0.2776310191019379
712,40.136,39.95,-0.07,0.8822221043017199,0.7617961035377978,0.3576528920008431,0.1887022472871996,0.6602165271379653,0.2803303790151832
713,40.156,40.0,-0.13,0.8768733020330288,0.7542341265155389,0.3620090730588481,0.18571408631285938,0.6621159629545054,0.28304474020129433
714,40.178,40.06,-0.14,0.8714213195319788,0.7465864444332609,0.3664143098552509,0.18270904800416463,0.6640582090902853,0.2857734656251923
715,40.24,40.11,-0.1,0.8658683390909895,0.7388558889376058,0.37086699844444926,0.17968845267679587,0.6660420770356815,0.28851590594436455
716,40.283,40.17,-0.1,0.8602166368407286,0.7310453606091121,0.37536550560371584,0.1766536307837587,0.6680663228003342,0.2912713995511099
717,40.344,40.22,-0.14,0.8544685812358773,0.7231578271187973,0.3799081693346819,0.17360592215168222,0.670129647598889,0.294039272631996
718,40.405,40.28,-0.09,0.8486266314193656,0.7151963213012746,0.3844932993883443,0.17054667521112318,0.672230698604503,0.29681883924531177
719,40.468,40.33,-0.08,0.842693335465192,0.7071639391455484,0.38911917781438965,0.16747724622153382,0.6743680697701419,0.29960940141725234
720,40.531,40.39,-0.14,0.8366713284999856,0.699063837704715,0.39378405953559315,0.16439899849148648,0.6765403027176627,0.3024102492575051
721,40.572,40.44,-0.13,0.8305633307036439,0.6908992329258246,0.3984861729480283,0.1613133015946381,0.6787458876946303,0.3052206610948323
722,40.613,40.5,-0.11,0.824372145189735,0.6826733974011706,0.4032237205478709,0.15822153058178326,0.6809832645987709,0.3080399036331789
723,40.675,40.55,-0.17,0.8181006557668024,0.674389658042284,0.4079948795856972,0.15512506518920322,0.6832508240698778,0.31086723212880585
724,40.737,40.6,-0.17,0.8117518245821109,0.6660513936779826,0.4127978027493055,0.15202528904345378,0.685546908648842,0.31370189058898057
725,40.777,40.66,-0.12,0.8053286896496815,0.6576620325779696,0.41763061887620134,0.14892358886276885,0.6878698140033151,0.31654311199280444
726,40.84,40.72,-0.12,0.7988343622646717,0.6492250499036605,0.4224914336969568,0.1458213536553343,0.6902177902193415,0.31939011853481186
727,40.902,40.77,-0.14,0.7922720243062498,0.6407439650881404,0.42737833061062913,0.14271997391481137,0.6925890431581414,0.3222421218920026
728,40.944,40.83,-0.08,0.7856449254311114,0.6322223391473722,0.432289371493276,0.13962084081363796,0.6949817358771313,0.3250983235149261
729,41.005,40.88,-0.07,0.7789563801599237,0.6236637719249432,0.4372225975404112,0.1365253453947167,0.6973939901142405,0.3279579149433105
730,41.088,40.94,-0.13,0.7722097648592321,0.6150718992727311,0.44217603014404117,0.13343487776208846,0.6998238878345969,0.330820078146549
731,41.108,40.99,-0.12,0.7654085146216867,0.6064503901699602,0.44714767180472403,0.13035082627116365,0.7022694728386749,0.3336839858891712
732,41.212,41.05,-0.1,0.7585561200478079,0.5978029437831853,0.45213550707895056,0.12727457671905107,0.7047287524309905,0.3365488021212519
733,41.233,41.1,-0.16,0.751656123932923,0.5891332864698374,0.4571375035621006,0.12420751153549306,0.7071996991483532,0.3394136823936268
734,41.274,41.16,-0.17,0.7447121178632735,0.5804451687280895,0.4621516129072092,0.1211510089749549,0.7096802525465298,0.3422777742977698
735,41.334,41.21,-0.12,0.7377277387255974,0.5717423620959922,0.4671757718797514,0.11810644231054478,0.7121683210439842,0.34514021793021504
736,41.397,41.27,-0.13,0.7307066651347267,0.5630286560030353,0.472207903448631,0.1150751790305886,0.7146617838211583,0.34800014638143983
737,41.48,41.32,-0.17,0.7236526137838377,0.5543078545775505,0.4772459179134759,0.112058580038839,0.7171584927735672,0.3508566862491402
738,41.499,41.38,-0.11,0.7165693357220202,0.5455837734136123,0.48228771406818927,0.10905799885945247,0.7196562745168369,0.353708958175794
739,41.602,41.43,-0.1,0.7094606125639764,0.5368602363013152,0.48733118040054196,0.10607478084793999,0.7221529324417068,0.35655607741031475
740,41.622,41.49,-0.16,0.7023302526369665,0.5281410719244439,0.4923741963274505,0.10311026240927755,0.7246462488169348,0.3593971543934789
741,41.663,41.54,-0.15,0.6951820870705155,0.5194301105297012,0.4974146334654519,0.10016577022432736,0.727133986937957,0.3622312953666898
742,41.726,41.6,-0.11,0.6880199658348605,0.5107311805717921,0.5024503569358132,0.09724262048568305,0.7296138933190633,0.3650576030035114
743,41.788,41.65,-0.16,0.6808477537346013,0.5020481053388383,0.5074792267037079,0.09434211814400367,0.7320836999267313,0.36787517706331313
744,41.829,41.71,-0.16,0.6736693263644453,0.4933846995628008,0.5124990989508718,0.09146555616591906,0.7345411264516079,0.3706831150662996
745,41.932,41.76,-0.11,0.6664885660342464,0.48474476601987027,0.5175078274810837,0.08861421480469275,0.736983882616473,0.3734805129891359
746,41.952,41.82,-0.1,0.6593093576707969,0.4761320921260729,0.5225032651577192,0.08578936088495488,0.7394096705173681,0.37626646598029884
747,42.015,41.87,-0.14,0.652135584703919,0.4675504465336883,0.5274832653724368,0.08299224710294224,0.7418161869949427,0.37904006909418336
748,42.076,41.92,-0.09,0.6449711249443612,0.4590035757343875,0.5324456835438017,0.08022411134378533,0.7442011260329666,0.3818004180428548
749,42.096,41.98,-0.09,0.6378198464609938,0.4504952006752342,0.5373883786443783,0.077486176017376,0.7465621811808837,0.38454660996415163
750,42.158,42.03,-0.15,0.6306856034648594,0.4420290133937843,0.542309214754581,0.07477964741422012,0.748897047997209,0.38727774420467265
751,42.218,42.09,-0.09,0.6235722322076627,0.4336086736784856,0.5472060626413568,0.0721057150825129,0.7512034265104709,0.3899929231160223
752,42.302,42.15,-0.07,0.6164835469022645,0.4252378057604626,0.552076801359633,0.06946555122748839,0.7534790236942978,0.3926912528625579
753,42.323,42.2,-0.13,0.6094233356727188,0.416919995042583,0.5569193198744194,0.06686031013387622,0.7557215559531275,0.39537184423877975
754,42.406,42.26,-0.15,0.6023953565413448,0.4086587848714732,0.5617315187014768,0.0642911276120839,0.7579287516148973,0.3980338134944414
755,42.427,42.31,-0.12,0.5954033334602296,0.4004576733579096,0.5665113115644896,0.06175912046852947,0.7600983534269478,0.4006762831654057
756,42.489,42.37,-0.15,0.5884509523944204,0.3923201102507457,0.5712566270666979,0.059265386000339294,0.762228121051209,0.40329838290824493
757,42.55,42.42,-0.2,0.5815418574638421,0.38424949386926704,0.5759654103748376,0.05681100151441655,0.764315833554508,0.4058992503365788
758,42.612,42.48,-0.09,0.5746796471507127,0.3762491680985742,0.5806356249130327,0.054397023870695324,0.7663592918895765,0.4084780318571421
759,42.673,42.53,-0.07,0.5678678705789936,0.36832241945231314,0.5852652540640257,0.052024489049174366,0.7683563213621026,0.4110338835035555
760,42.735,42.59,-0.07,0.5611100238722024,0.3604724742067962,0.5898523028749016,0.04969441174007989,0.7703047740789752,0.4135659717657545
761,42.795,42.64,0.16,0.5544095465956403,0.352702495610308,0.5943947997642554,0.0474077849563003,0.7722025313727919,0.416073474413014
762,42.836,42.7,0.29,0.5477698182887089,0.34501558117113523,0.5988907982276208,0.045165579667070944,0.7740475061977697,0.41855558130849646
763,42.878,42.75,0.3,0.541194155092501,0.33741476002756277,0.6033383785379474,0.042968744451730094,0.7758376454924846,0.4210114952132681
764,42.918,42.81,0.36,0.5346858064771937,0.32990299040273197,0.6077356494379377,0.04081820517225385,0.7775709325053632,0.42344043257778335
765,42.98,42.86,0.45,0.528247952072997,0.32248315714688525,0.6120807498211595,0.03871486466322717,0.779245389079571,0.4258416243189151
766,43.042,42.92,0.37,0.5218836986076572,0.3151580693691667,0.6163718503989796,0.03665960243790179,0.7808590778946531,0.4282143165807281
767,43.102,42.97,0.31,0.5155960769529019,0.307930458160864,0.620607155350487,0.0346532744090389,0.7824101046629043,0.4305577714773624
768,43.165,43.03,0.44,0.5093880392818749,0.30080297441177883,0.6247849039526228,0.032696712623307034,0.7838966202788402,0.4328712678165288
769,43.206,43.08,0.4,0.5032624563395198,0.2937781867212746,0.6289033721877817,0.030790725008031587,0.7853168229203867,0.4351541018022283
770,43.27,43.14,0.27,0.49722211482788264,0.28685857940544235,0.632960874326193,0.028936095129096957,0.7866689601004744,0.43740558771539434
771,43.333,43.19,0.36,0.49126971490821425,0.28004655060173644,0.6369557644803945,0.027133581958898992,0.7879513306677515,0.43962505857124284
772,43.396,43.25,0.35,0.48540786782157963,0.2733444104723576,0.6408864381291541,0.02538391965343976,0.7891622867551246,0.4418118667522026
773,43.416,43.3,0.24,0.47963909362949037,0.2667543795075924,0.6447513336082838,0.023687817337907643,0.7903002356747695,0.4439653846154181
774,43.477,43.35,0.24,0.47396581907588975,0.2602785869302655,0.6485489335658947,0.022045958900381364,0.7913636417581378,0.4460850050739683
775,43.539,43.41,0.31,0.468390375571668,0.2539190692023943,0.6522777663797525,0.020459002793592796,0.7923510281393383,0.4481701421510923
776,43.6,43.47,0.25,0.46291499730278496,0.24767776863503935,0.6559364075345451,0.018927581844870187,0.7932609784801123,0.45022023150686163
777,43.683,43.52,0.2,0.45754181946296313,0.2415565321021951,0.659523480957003,0.01745230307445056,0.7940921386344316,0.4522347309368707
778,43.704,43.58,0.32,0.4522728766117721,0.235557109859395,0.6630376603068998,0.016033747522343007,0.7948432182506038,0.45421312084261395
779,43.788,43.63,0.31,0.44711010115877475,0.22968115446751727,0.6664776702220262,0.014672470083856835,0.7955129923086768,0.45615490467325953
780,43.808,43.69,0.25,0.44205532197421143,0.22393021982210418,0.6698422875152792,0.01336899935382305,0.7961003025908867,0.45805960933856144
781,43.868,43.74,0.38,0.43711026312641527,0.2183057602883564,0.6731303423220262,0.012123837479533167,0.7966040590828909,0.45992678559268313
782,43.93,43.8,0.4,0.4322765427458089,0.21280912994183515,0.6763407191959179,0.010937460022496985,0.7970232413036067,0.46175600838873315
783,43.97,43.85,0.29,0.42755567201500033,0.20744158191476966,0.6794723581513928,0.00981031582920425,0.7973568995615987,0.46354687720385324
784,44.031,43.91,0.28,0.4229490542841752,0.2022042678477386,0.6825242556512037,0.008742826911157712,0.7976041561361017,0.4652990163347551
785,44.153,43.96,0.39,0.4184579843106891,0.19709823744635863,0.6854954655373865,0.007735388334519236,0.7977642063809023,0.46701207516367327
786,44.194,44.02,0.32,0.4140836476215284,0.1921244381424657,0.6883850999041955,0.006788368119731785,0.7978363197493394,0.46868572839478206
787,44.215,44.07,0.31,0.40982711999709925,0.18728371485910966,0.691192329911581,0.005902107151444256,0.7978198407386419,0.4703196762612217
788,44.256,44.13,0.46,0.4056893670746226,0.18257680987850958,0.6939163865377949,0.005076919098986479,0.7977141897517798,0.4719136447029238
789,44.317,44.18,0.48,0.4016712440692873,0.17800436281193327,0.696556561269726,0.004313090347494889,0.7975188638750433,0.4734673855154561
790,44.379,44.24,0.42,0.3977734956112026,0.17356691067029384,0.6991122067296297,0.003610879939611822,0.7972334375696765,0.47498067647012093
791,44.42,44.29,0.58,0.3939967556960567,0.16926488803410922,0.7015827372369879,0.0029705195275829366,0.7968575632761095,0.47645332140559604
792,44.503,44.35,0.63,0.3903415477472349,0.16509862732136515,0.7039676293043542,0.0023922133355843327,0.7963909719296621,0.47788515029145867
793,44.523,44.4,0.54,0.3868082847870102,0.1610683591517313,0.7062664220662097,0.0018761381321912153,0.7958334733869553,0.4792760192640077
794,44.586,44.46,0.55,0.3833972697142459,0.15717421280550958,0.7084787176400286,0.001422443213045822,0.7951849567626622,0.4806258106348633
795,44.626,44.51,0.65,0.38010869568588024,0.15341621677562134,0.7106041814189298,0.0010312503939338212,0.794445390676623,0.4819344328728645
796,44.687,44.57,0.58,0.3769426465993305,0.14979429941083827,0.7126425422955105,0.000702654014509042,0.7936148234116618,0.4832018205597888
797,44.77,44.62,0.5,0.37389909767286866,0.1463082896483405,0.7145935928166549,0.00043672095281251485,0.7926933829826406,0.4844279343204191
798,44.79,44.67,0.61,0.37097791612098463,0.14295791783355413,0.7164571892692596,0.0002334906505847706,0.7916812771174313,0.4856127607274496
799,44.873,44.73,0.57,0.36817886192183935,0.13974281662508053,0.7182332516969224,9.297514920229971e-05,0.7905787931505976,0.4867563121816841
800,44.895,44.78,0.47,0.36550158867406146,0.13666252198240594,0.7199217638477383,1.5159135913779582e-05,0.789386297830634,0.4878586267679789
801,44.977,44.84,0.58,0.36294564454026645,0.13371647423400992,0.7215227730534157,0.0,0.7881042370416288,0.48891976808742843
802,45.019,44.9,0.64,0.3605104732747558,0.13090401922346642,0.7230363900400225,4.742789852953982e-05,0.7867331354402466,0.4899398250663699
803,45.082,44.95,0.55,0.3581954153329147,0.12822440953115258,0.7244627886708288,0.0001573458314806242,0.7852735960089626,0.4909189117428742
804,45.123,45.01,0.55,0.35599970905983325,0.1256768057692262,0.7258022056218696,0.0003296297261686547,0.7837262995265882,0.49185716703146454
805,45.185,45.06,0.68,0.3539224919556762,0.12326027794758733,0.7270549399909849,0.0005641285310982197,0.7820920039573191,0.4927547544668305
806,45.246,45.12,0.6,0.3519628020153889,0.12097380690856366,0.7282213528412701,0.0008606643194117168,0.7803715437597436,0.493611861927282
807,45.306,45.17,0.53,0.3501195791404066,0.11881628582804331,0.729301866680052,0.0012190324020085665,0.7785658291174287,0.49442870133863936
808,45.368,45.23,0.65,0.34839166662009086,0.11678652178075047,0.7302969648746593,0.0016390014502430004,0.7766758450928748,0.49520550835919175
809,45.41,45.28,0.63,0.34677781268065777,0.11488323736731486,0.7312071910063894,0.0021203136279228075,0.7747026507067947,0.49594254204629235
810,45.471,45.34,0.49,0.3452766720994205,0.11310507240075254,0.7320331481642155,0.002662684732170217,0.7726473779448003,0.49664008450513975
811,45.534,45.39,0.58,0.3438868078821832,0.11145058564996291,0.7327754981798622,0.0032658043426781413,0.7705112306936953,0.497298440520329
812,45.576,45.45,0.6,0.3426066930016111,0.10991825663787246,0.7334349608059397,0.003929335979000153,0.7682954836096603,0.4979179371708168
813,45.617,45.5,0.52,0.34143471219439736,0.10850648749188828,0.7340123128388875,0.004652917265674267,0.7660014809206804,0.4984989234290298
814,45.679,45.56,0.46,0.3403691638150138,0.10721360484438008,0.7345083871885214,0.005436160105169932,0.7636306351655708,0.49904176974491954
815,45.741,45.61,0.58,0.3394082617438038,0.10603786178095877,0.7349240718959914,0.006278650858813974,0.761184425871998,0.4995468676157747
816,45.783,45.67,0.51,0.3385501373472095,0.1049774398343332,0.7352603091019874,0.0071799505358815475,0.7586643981759105,0.5000146291425509
817,45.845,45.72,0.43,0.33779284148802197,0.10403045102150738,0.7355180939670803,0.008139594990919782,0.7560721613847858,0.5004454865733935
818,45.905,45.78,0.54,0.3371343465836665,0.10319493992203704,0.7356984735461155,0.009157095129205858,0.7534093874870998,0.5008398918349385
819,45.988,45.83,0.53,0.3365725487107066,0.10246888579502143,0.7358025456186316,0.010231937120060966,0.750677809610457,0.5011983160518899
820,46.01,45.89,0.41,0.3361052697539321,0.10185020473247453,0.7358314574773889,0.011363582617591766,0.747879220430873,0.5015212490553462
821,46.049,45.94,0.49,0.3357302595985092,0.10133675184673124,0.7357864046771592,0.012551468988413101,0.7450154705357549,0.5018091988803758
822,46.11,46.0,0.53,0.3354451983637202,0.10092632348959729,0.7356686297459775,0.013795009546022582,0.7420884667432127,0.5020626912534213
823,46.171,46.05,0.46,0.33524769867683046,0.10061665950103274,0.7354794208610842,0.015093593791687412,0.7391001703803939,0.5022822690701876
824,46.234,46.1,0.39,0.33513530798555796,0.10040544548525639,0.7352201104917425,0.016446587661939332,0.7360525955235879,0.5024684918647411
825,46.359,46.16,0.49,0.3351055109075244,0.10029031511226338,0.7348920740110184,0.017853333782995848,0.7329478072029251,0.5026219352705438
826,46.378,46.22,0.44,0.3351557316150266,0.10026885244280746,0.7344967282785219,0.019313151732501657,0.7297879195745652,0.502743190474082
827,46.398,46.27,0.32,0.33528333625351187,0.1003385942749148,0.7340355301960568,0.02082533830889491,0.7265750940632895,0.5028328636616523
828,46.46,46.33,0.4,0.3354856353922156,0.10049703250997787,0.7335099752380849,0.022389167808549784,0.7233115374783863,0.5028915754597743
829,46.501,46.38,0.38,0.33575988650555577,0.10074161653643937,0.7329215959589236,0.02400389231067212,0.7199995001057095,0.5029199603696118
830,46.564,46.44,0.25,0.336103296484005,0.10106975562903792,0.7322719604786833,0.025668741969758154,0.7166412737787213,0.5029186661957497
831,46.605,46.49,0.29,0.336513024173235,0.10147882136157357,0.7315626709500602,0.027382925315363384,0.7132391899312369,0.502888353469714
832,46.729,46.55,0.36,0.3369861829403252,0.10196615003116886,0.7307953620082039,0.029145629558984008,0.7097956176344767,0.5028296948686976
833,46.749,46.6,0.29,0.3375198432657952,0.10252904509203455,0.7299716992059656,0.03095602090797422,0.7063129616209156,0.5027433746300468
834,46.77,46.66,0.23,0.33811103536012377,0.1031647795967956,0.7290933774368368,0.03281324488658954,0.7027936602973196,0.5026300879621562
835,46.853,46.71,0.35,0.3387567518032855,0.10387059864348103,0.7281621193477946,0.03471642666441942,0.6992401837493434,0.5024905404524359
836,46.875,46.77,0.3,0.3394539502057495,0.10464372182630553,0.7271796737441822,0.036664671392526445,0.6956550317400915,0.5023254474729836
837,46.934,46.82,0.18,0.3401995558893514,0.10548134568837415,0.7261478139886853,0.03865706454752784,0.6920407317050781,0.5021355335845287
838,46.996,46.88,0.27,0.340990464586456,0.10638064617442725,0.7250683363964088,0.04069267228373837,0.6883998367460339,0.5019215319391563
839,47.078,46.93,0.24,0.3418235451558791,0.10733878108173395,0.7239430586280491,0.04277054179337786,0.6847349236260246,0.5016841836822663
840,47.099,46.99,0.13,0.34269564231414523,0.10835289250723644,0.7227738180832084,0.044889701674742294,0.6810485907683018,0.5014242373542156
841,47.16,47.04,0.09,0.3436035793807311,0.10942010928906737,0.7215624702959466,0.04704916230822378,0.6773434562612126,0.5011424482921553
842,47.222,47.1,0.11,0.3445441610360024,0.11053754944060842,0.7203108873346978,0.0492479162401482,0.6736221558713772,0.5008395780326312
843,47.262,47.15,0.07,0.34551417609057367,0.11170232257531561,0.7190209562086811,0.051484938574501135,0.6698873410671503,0.5005163937156091
844,47.324,47.21,-0.01,0.34651040026477364,0.11291153232060837,0.717694577282857,0.053759187372708656,0.6661416770541158,0.5001736674906543
845,47.386,47.26,0.1,0.3475295989767685,0.1141622787191813,0.716333662703296,0.05606960406172925,0.6623878408240781,0.49981217592603844
846,47.447,47.32,0.07,0.34856853013776673,0.11545166061614033,0.7149401348346075,0.05841511385074068,0.6586285192187882,0.499432699421499
847,47.51,47.37,-0.03,0.34962394695259197,0.11677677803037521,0.7135159247108662,0.06079462615667764,0.6548664070094824,0.49903602162532623
848,47.57,47.42,0.08,0.35069260072373837,0.11813473450858653,0.7120629705012945,0.06320703503887388,0.6511042049932375,0.498622928856381
849,47.611,47.48,0.09,0.3517712436568683,0.11952263946038466,0.7105832159918649,0.06565121964308288,0.6473446181071114,0.4981942095315893
850,47.674,47.53,-0.0,0.35285663166559866,0.12093761047286919,0.7090786090840132,0.06812604465516224,0.6435903535610303,0.4977506535994388
851,47.737,47.59,-0.02,0.35394552717332306,0.12237677560309014,0.7075511003117089,0.070630360764756,0.6398441189903774,0.4972930519800198
852,47.819,47.65,0.04,0.3550347019097417,0.12383727564679295,0.7060026413781777,0.0731630051393855,0.6361086206292487,0.49682219601218197
853,47.841,47.7,0.0,0.3561209396997256,0.12531626638183738,0.7044351837136299,0.07572280190937596,0.6323865615053165,0.4963388769084158
854,47.883,47.76,-0.07,0.3572010392421022,0.12681092078465764,0.7028506770553594,0.07830856266397887,0.6286806396571423,0.4958438852181042
855,47.966,47.81,0.01,0.3582718168758839,0.12831843121809958,0.7012510680515064,0.08091908695894236,0.6249935463746885,0.49533801029978586
856,47.987,47.87,-0.0,0.3593301093314124,0.12983601158893132,0.6996382988896764,0.08355316283563224,0.6213279644637054,0.49482203980302625
857,48.048,47.92,-0.09,0.36037277646383653,0.13136089947328616,0.6980143059514913,0.08620956735166133,0.6176865665346135,0.4942967591604261
858,48.091,47.98,-0.04,0.3613967039662405,0.13289035820829603,0.6963810184939714,0.08888706712294762,0.6140720133164519,0.4937629510902477
859,48.212,48.03,-0.04,0.36239880605964736,0.13442167894819199,0.694740357358472,0.09158441887718818,0.6104869519964231,0.49322139511008295
860,48.232,48.09,-0.08,0.3633760281570571,0.1359521826831967,0.6930942337077474,0.09430037001885193,0.6069340145855106,0.492672867061961
861,48.275,48.14,-0.13,0.3643253494986199,0.1374792222196029,0.6914445477915624,0.09703365920596169,0.6034158163105708,0.49211813864928433
862,48.315,48.2,-0.05,0.36524378575500804,0.1390001841195086,0.6897931877411081,0.09978301693911493,0.5999349540332255,0.4915579769859572
863,48.377,48.25,-0.08,0.3661283915960868,0.14051249059874,0.6881420283923717,0.1025471661632695,0.5964940046958147,0.49099314415802126
864,48.438,48.31,-0.16,0.3669762632220577,0.14201360138152752,0.6864929301385291,0.10532482288277202,0.5930955237945853,0.49042439679805133
865,48.501,48.36,-0.07,0.36778454085433326,0.14350101551052155,0.6848477378113459,0.1081146967899868,0.5897420438802223,0.48985248567249345
866,48.562,48.42,-0.08,0.36855041118353465,0.14497227311074407,0.6832082795915321,0.11091549190770501,0.5864360730857889,0.4892781552820594
867,48.604,48.47,-0.18,0.36927110977214683,0.14642495710609743,0.6815763659479809,0.11372590724532602,0.5831800936821007,0.4887021434752635
868,48.665,48.53,-0.11,0.36994392340947896,0.14785669488712455,0.6799537886058031,0.11654463746868803,0.5799765606605322,0.4881251810752089
869,48.707,48.58,-0.1,0.3705661924166808,0.14926515992881492,0.6783423195431,0.11937037358335391,0.5768279003432399,0.48754799151977896
870,48.748,48.64,-0.13,0.3711353128996862,0.1506480733573866,0.6767437100165336,0.12220180363105274,0.5737365090207508,0.4869712905154529
871,48.808,48.69,-0.17,0.37164873894803124,0.1520032054651308,0.675159689615892,0.12503761339888694,0.5707047516168289,0.48639578570501985
872,48.87,48.75,-0.13,0.37210398477756695,0.15332837717255474,0.6735919653479353,0.127876487140874,0.5677349603805169,0.48582217634947034
873,48.932,48.8,-0.14,0.37249862681523865,0.15462146143717928,0.6720422207498763,0.13071710831130384,0.5648294336052437,0.48525115302428223
874,48.994,48.85,-0.21,0.37283030572433107,0.15588038460840586,0.6705121150328666,0.13355816030922343,0.5619904343748626,0.4846833973302237
875,49.056,48.91,-0.13,0.37309672836882446,0.15710312772790808,0.6690032822557873,0.13639832723316545,0.5592201893364359,0.4841195816186732
