,Time_Host,Time_Arduino,easingdata,CH1_Oxy,CH1_Deoxy,CH2_Oxy,CH2_Deoxy,CH3_Oxy,CH3_Deoxy
0,1.211,0.04,0.0,0.7731830658871074,0.34202802019125483,0.7211138167547849,0.30878498880394706,0.704791081401917,0.31024353277674316
1,1.23,0.1,0.0,0.7752389135243666,0.33965563461903436,0.7245655712880958,0.30754112869586386,0.7123643241397297,0.309124678183205
2,1.251,0.15,0.0,0.7772400086457626,0.33727383170808034,0.7279837875111903,0.3062856346985046,0.7199138001287716,0.3080009050990752
3,1.272,0.21,0.0,0.7791845420267984,0.3348833692618312,0.7313665081086024,0.30501881130340897,0.7274356015511667,0.30687251995243175
4,1.293,0.26,0.0,0.7810707309590723,0.3324850114001971,0.7347117923290031,0.30374097008082984,0.7349258168506194,0.3057398309223116
5,1.313,1.05,0.0,0.7828968210433742,0.33007952805963753,0.7380177177964684,0.30245242951338314,0.7423805340927673,0.30460314773039104
6,1.333,1.11,0.0,0.7846610879621889,0.32766769449041655,0.741282382304107,0.3011535148253295,0.7497958443350821,0.3034627814332801
7,1.395,1.16,0.0,0.7863618392293592,0.3252502907513469,0.7445039055875541,0.29984455780762026,0.7571678450017986,0.3023190442155373
8,1.437,1.22,0.0,0.7879974159146846,0.3228281012023311,0.74768043107585,0.29852589663884405,0.7644926432592708,0.30117224918350227
9,1.5,1.27,0.0,0.7895661943412454,0.3204019139950069,0.750810127617217,0.29719787570221495,0.7717663593870859,0.3000227101600396
10,1.602,1.33,0.07,0.7910665877532552,0.3179725205618101,0.7538911911772517,0.29586084539875096,0.7789851301401783,0.298870741480279
11,1.623,1.38,0.17,0.7924970479522632,0.31554071510377,0.7569218465070441,0.29451516195679733,0.786145112097105,0.297716657788437
12,1.664,1.44,0.24,0.7938560668995367,0.3131072940773753,0.7599003487787344,0.29316118723806917,0.7932424849895872,0.29656077383580104
13,1.727,1.49,0.28,0.7951421782824915,0.3106730556808734,0.7628249851860218,0.29179928854040527,0.800273455008424,0.2954034042799523
14,1.767,1.55,0.38,0.7963539590430899,0.3082387993404016,0.765694076507188,0.29042983839744396,0.8072342580809573,0.29424486348529005
15,1.828,1.6,0.45,0.7974900308662356,0.3058053251963656,0.768505978628284,0.289053214375428,0.8141211631154092,0.2930854653249175
16,1.89,1.66,0.49,0.798549061626308,0.30337343359049207,0.7712590840242536,0.2876697988673281,0.8209304752075668,0.2919255229839728
17,1.951,1.71,0.54,0.799529766790095,0.30094392455400487,0.773951823195897,0.2862799788844514,0.8276585388054659,0.2907653487645287
18,2.034,1.77,0.62,0.8004309107744623,0.2985175972974073,0.7765826660607041,0.28488414584568994,0.8343017408278809,0.2896052538922205
19,2.055,1.82,0.63,0.8012513082571561,0.29609524970236445,0.7791501232956907,0.28348269536454707,0.840856513732599,0.2884455483247717
20,2.096,1.88,0.65,0.8019898254391644,0.29367767781616605,0.7816527476304567,0.28207602703407725,0.8473193385305955,0.2872865405625912
21,2.18,1.93,0.73,0.8026453812570435,0.2912656753492101,0.7840891350887643,0.2806645442098517,0.8536867477423384,0.2861285374616023
22,2.263,1.99,0.77,0.803216948543579,0.28886003317588843,0.7864579261769924,0.2792486537910177,0.859955328292569,0.28497184404844805
23,2.284,2.04,0.82,0.8037035551350787,0.28646153883918635,0.7887578070178964,0.27782876599944656,0.8661217243399748,0.28381676333820616
24,2.326,2.1,0.92,0.8041042849235244,0.2840709760592478,0.7909875104281694,0.27640529415689374,0.8721826400382668,0.28266359615473563
25,2.388,2.15,0.99,0.8044182788517837,0.2816891242461113,0.7931458169383588,0.27497865446004566,0.8781348422252856,0.28151264095376793
26,2.449,2.21,1.04,0.8046447358501317,0.2793167580167943,0.7952315557537725,0.27354926575331523,0.8839751630368958,0.28036419364885184
27,2.511,2.26,1.11,0.8047829137124344,0.27695464671691583,0.7972436056550685,0.27211754929926035,0.8897005024426154,0.27921854744025987
28,2.552,2.32,1.2,0.8048321299104918,0.2746035539470716,0.7991808958373097,0.2706839285465226,0.8953078307001182,0.27807599264695987
29,2.614,2.37,1.24,0.8047917623452002,0.27226423709419617,0.8010424066863414,0.2692488288952029,0.9007941907259722,0.2769368165417376
30,2.697,2.43,1.28,0.804661250033364,0.269937446868137,0.802827170491459,0.26781267745959747,0.9061567003801836,0.2758013031895382
31,2.718,2.48,1.32,0.8044400937291383,0.2676239268436283,0.8045342720934434,0.2663759028282024,0.9113925546623419,0.2746697332890616
32,2.76,2.54,1.4,0.8041278564792403,0.26532441300779086,0.8061628494671761,0.2649389348208549,0.9164990278173565,0.2735423840176059
33,2.821,2.59,1.4,0.8037241641111744,0.2630396333132234,0.807712094238184,0.26350220424282716,0.9214734753489722,0.27241952887912724
34,2.882,2.65,1.45,0.8032287056537931,0.2607703072367225,0.8091812521325912,0.2620661426356588,0.9263133359394236,0.2713014375554433
35,2.925,2.7,1.51,0.8026412336895603,0.25851714534366926,0.8105696233600665,0.26063118202450614,0.9310161332737472,0.2701883757604541
36,2.987,2.76,1.54,0.8019615646379112,0.2562808488581331,0.8118765629294467,0.2591977546618074,0.9355794777674451,0.2690806050971833
37,3.071,2.81,1.58,0.8011895789691362,0.25406210923876804,0.8131014808968006,0.25776629276709734,0.9400010681963273,0.2679783829173956
38,3.092,2.87,1.65,0.8003252213482697,0.2518616077606016,0.8142438425457773,0.2563372282628454,0.9442786932275303,0.26688196218353105
39,3.152,2.92,1.66,0.7993685007085682,0.24968001510284438,0.8153031685001765,0.2549109925062222,0.9484102328508598,0.26579159133269653
40,3.193,2.98,1.69,0.7983194902543043,0.24751799094285482,0.8162790347687832,0.25348801601672627,0.9523936597097811,0.26470751414247556
41,3.255,3.03,1.75,0.7971783273927666,0.24537618355639146,0.8171710727226237,0.2520687281996218,0.9562270403315551,0.2636299695983408
42,3.337,3.09,1.78,0.7959452135955365,0.2432552294242622,0.817978969004931,0.25065355706515646,0.95990853625618,0.26255919176249104
43,3.46,3.14,1.79,0.7946204141892798,0.24115575284545437,0.8187024653742511,0.2492429289435405,0.963436405063957,0.2614954096439863
44,3.482,3.2,1.81,0.7932042580764557,0.23907836555681794,0.8193413584812818,0.24783726819569066,0.9668090013016558,0.2604388470701114
45,3.503,3.25,1.84,0.7916971373864846,0.2370236663593879,0.8198954995801723,0.2464369969197748,0.9700247773074077,0.2593897225589526
46,3.545,3.31,1.82,0.7900995070580278,0.23499224075146066,0.8203647941751402,0.24504253465363737,0.9730822839345948,0.2583482491932264
47,3.608,3.36,1.83,0.7884118843531173,0.23298466056858336,0.8207492016033583,0.2436542980732394,0.9759801711751263,0.2573146344954451
48,3.649,3.42,1.89,0.7866348483039061,0.23100148363066203,0.8210487345551262,0.24227270068730955,0.9787171886825979,0.25628908030454023
49,3.732,3.47,1.89,0.7847690390928274,0.22904325339641993,0.8212634585323799,0.24089815252845767,0.9812921861959186,0.25527178265408035
50,3.794,3.53,1.91,0.7828151573669442,0.22711049862543445,0.821393491246625,0.23953105984103615,0.9837041138640629,0.254262931652215
51,3.814,3.58,1.96,0.7807739634873069,0.2252037330479518,0.8214390019574235,0.23817182476603593,0.9859520224727046,0.2532627113634584
52,3.855,3.64,1.98,0.7786462767142108,0.22332345504263282,0.8214002107526504,0.23682084502326647,0.9880350635735996,0.2522712996924127
53,3.916,3.69,1.96,0.7764329743293835,0.22147014732234066,0.8212773877718479,0.23547851359101557,0.9899524895177019,0.25128886826953806
54,3.978,3.75,1.99,0.7741349906962857,0.21964427662808114,0.8210708523741235,0.23414521838335423,0.9917036533931349,0.2503155823391075
55,4.038,3.8,2.02,0.7717533162598524,0.21784629343125403,0.820780972252151,0.23282134192526502,0.9932880088692552,0.2493516006495426
56,4.1,3.86,2.05,0.769288996487145,0.21607663164443508,0.820408162493931,0.2315072610258174,0.9947051099481562,0.24839707534640712
57,4.162,3.91,2.03,0.7667431307504927,0.2143357083409776,0.8199528845940575,0.23020334644967436,0.9959546106250652,0.24745215186841688
58,4.183,3.97,2.06,0.7641168711548028,0.2126239234837782,0.8194156454163029,0.2289099625872754,0.9970362644591879,0.2465169688468686
59,4.244,4.02,2.07,0.7614114213107747,0.21094165966356165,0.8187969961093926,0.22762746712407916,0.9979499240566733,0.24559165800886557
60,4.306,4.08,2.07,0.7586280350558172,0.20928928184700213,0.8180975309778892,0.22635621070926293,0.9986955404674834,0.24467634408465602
61,4.367,4.13,2.11,0.7557680151245115,0.20766713713492657,0.8173178863101537,0.22509653662426285,0.9992731624980543,0.24377114471932812
62,4.409,4.19,2.12,0.7528327117705369,0.20607555453079018,0.8164587391654254,0.22384878045151543,0.9996829359417246,0.24287617038904974
63,4.471,4.24,2.11,0.7498235213420745,0.20451484471958897,0.8155208061221533,0.22261326974372916,0.9999251027290227,0.24199152432201992
64,4.532,4.3,2.12,0.7467418848128319,0.2029852998573988,0.8145048419898049,0.22139032369400724,1.0,0.24111730242430288
65,4.594,4.35,2.15,0.7435892862709602,0.2014871933717902,0.813411638486465,0.22018025280715772,0.9999080591009109,0.24025359321073272
66,4.657,4.41,2.12,0.7403672513682621,0.20002077977342814,0.8122420228846194,0.21898335857256335,0.9996498045076493,0.2394004777410974
67,4.677,4.46,2.1,0.7370773457322035,0.19858629447921092,0.8109968566275794,0.21779993313902687,0.9992258526784316,0.23855802956181862
68,4.739,4.52,2.11,0.7337211733433299,0.19718395364733038,0.8096770339190592,0.21663025899204924,0.9986369108383133,0.23772631465333557
69,4.802,4.57,2.08,0.7303003748807528,0.19581395402462878,0.8082834802884616,0.21547460863401827,0.9978837756981783,0.23690539138337396
70,4.885,4.63,2.04,0.726816626038413,0.1944764728066002,0.8068171511344516,0.21433324426779082,0.9969673321108966,0.23609531046625387
71,4.907,4.68,2.04,0.7232716358148199,0.19317166751034218,0.8052790302494169,0.2132064174841529,0.9958885516673553,0.2352961149283651
72,4.968,4.74,2.02,0.7196671447789457,0.19189967586072543,0.8036701283274169,0.21209436895364245,0.9946484912350861,0.234507840079917
73,5.031,4.79,1.98,0.7160049233148859,0.19066061569001472,0.8019914814582135,0.21099732812322583,0.9932482914421987,0.23373051349305154
74,5.093,4.85,1.98,0.7122867698478029,0.18945458485116157,0.8002441496099582,0.20991551291833008,0.9916891751093163,0.23296415498639644
75,5.155,4.9,2.0,0.7085145090535546,0.18828166114499303,0.7984292151030796,0.20884912945075806,0.989972445632188,0.2322087766161127
76,5.175,4.96,1.97,0.7046899900543163,0.18714190226152344,0.7965477810778835,0.20779837173303134,0.9880994853176379,0.23146438267346275
77,5.28,5.01,1.92,0.7008150846024715,0.18603534573561598,0.7946009699583512,0.20676342139972195,0.9860717536755057,0.23073096968888665
78,5.3,5.07,1.93,0.6968916852550494,0.1849620089172121,0.7925899219145841,0.20574444743634349,0.9838907856692326,0.23000852644252104
79,5.384,5.12,1.91,0.6929217035410222,0.18392188895633535,0.7905157933263066,0.20474160591637686,0.9815581899277601,0.2292970339810433
80,5.406,5.18,1.88,0.6889070681238006,0.1829149628030672,0.7883797552497794,0.20375503974701617,0.9790756469213933,0.22859646564068506
81,5.467,5.23,1.88,0.684849722961287,0.1819411872226999,0.7861829918904228,0.2027848784242447,0.9764449071042628,0.22790678707624723
82,5.509,5.29,1.86,0.6807516254658442,0.18100049882630384,0.7839266990833862,0.20183123779788983,0.9736677890259994,0.2272279562959405
83,5.57,5.34,1.75,0.6766147446665347,0.18009281411698339,0.781612082784246,0.20089421984735079,0.9707461774152187,0.2265599237018679
84,5.631,5.4,1.7,0.672441059375959,0.17921802955212254,0.7792403575719543,0.19997391246874674,0.9676820212373961,0.22590263213596282
85,5.694,5.45,1.72,0.6682325563639862,0.17837602162192465,0.776812745166069,0.19907038927428844,0.964477331729651,0.22525601693122488
86,5.734,5.51,1.68,0.6639912285406127,0.17756664694451707,0.7743304729602036,0.1981837094047192,0.9611341804148703,0.22462000596817092
87,5.796,5.56,1.66,0.6597190731501015,0.17678974237783746,0.7717947725735459,0.19731391735568146,0.9576546970974678,0.22399451973652695
88,5.858,5.62,1.68,0.6554180899784642,0.17604512514845758,0.7692068784222053,0.19646104281884696,0.9540410678429581,0.22337947140225567
89,5.922,5.67,1.67,0.6510902795762739,0.17533259299744308,0.7665680263120852,0.19562510053859827,0.9502955329434518,0.22277476688003406
90,6.042,5.73,1.63,0.6467376414987714,0.1746519243433078,0.763879452054928,0.19480609018498266,0.9464203848711287,0.2221803049112831
91,6.062,5.78,1.62,0.6423621725652235,0.17400287846210627,0.7611423901091575,0.19400399624358117,0.9424179662217308,0.2215959771478361
92,6.082,5.84,1.61,0.6379658651395159,0.17338519568468935,0.7583580722471348,0.19321878792285868,0.9382906676501074,0.22102166824131972
93,6.124,5.89,1.56,0.6335507054340065,0.17279859761111593,0.7555277262504436,0.192450419079492,0.9340409257998159,0.22045725593831939
94,6.184,5.95,1.53,0.6291186718386731,0.17224278734218107,0.7526525746348122,0.19169882816211503,0.9296712212287671,0.2199026111814136
95,6.246,6.0,1.52,0.6246717332775725,0.1717174497280091,0.7497338334062476,0.1909639381738851,0.925184076332852,0.21935759821617526
96,6.372,6.06,1.44,0.6202118475945647,0.1712222516336552,0.746772710849926,0.1902456566542453,0.9205820532694368,0.21882207470425047
97,6.392,6.11,1.39,0.6157409599701517,0.17075684222164747,0.7437704063533189,0.18954387568022774,0.9158677518825376,0.21829589184263384
98,6.413,6.17,1.41,0.6112610013711504,0.17032085325136198,0.740728109264965,0.18885847188759314,0.9110438076313983,0.21777889448926374
99,6.454,6.22,1.4,0.6067738870347885,0.16991389939505022,0.7376469977902194,0.1881893065120328,0.9061128895240743,0.217270921295066
100,6.495,6.28,1.37,0.602281514988693,0.16953557857024867,0.73452823792524,0.187536225450579,0.9010776980575246,0.21677180484258954
101,6.557,6.33,1.37,0.5977857646081468,0.16918547228824757,0.731372982430397,0.18689905934331327,0.8959409631656112,0.21628137179140153
102,6.619,6.39,1.38,0.5932884952119215,0.16886314601829328,0.7281823698442135,0.1862776236754376,0.8907054421763562,0.21579944303043136
103,6.66,6.44,1.34,0.5887915446979546,0.1685681495672386,0.7249575235388932,0.1856717188997631,0.8853739177797801,0.21532583383746418
104,6.742,6.5,1.32,0.5842967282200904,0.1683000174744152,0.7216995508184124,0.18508113057967873,0.8799491960076311,0.2148603540459836
105,6.782,6.55,1.31,0.5798058369070545,0.16805826942156046,0.7184095420601007,0.1845056295526609,0.8744341042263047,0.2144028082195379
106,6.844,6.61,1.27,0.5753206366247695,0.16784241065765335,0.7150885699005597,0.18394497211436764,0.8688314891442427,0.21395299583376334
107,6.905,6.66,1.21,0.5708428667830684,0.16765193243849685,0.7117376884667251,0.1833989002233133,0.8631442148350749,0.21351071146616368
108,6.966,6.72,1.2,0.5663742391877888,0.1674863124808396,0.7083579326528245,0.18286714172604432,0.8573751607777238,0.21307574499372164
109,7.007,6.77,1.19,0.5619164369391639,0.1673450154307679,0.7049503174439582,0.18234941060264956,0.8515272199146402,0.21264788179840974
110,7.091,6.83,1.15,0.5574711133773255,0.16722749334604078,0.7015158372870052,0.18184540723233827,0.8456032967292515,0.2122269029806709
111,7.112,6.88,1.14,0.5530398910756316,0.16713318619200315,0.6980554655095156,0.1813548186787491,0.8396063053436363,0.21181258558093685
112,7.174,6.94,1.16,0.5486243608824093,0.1670615223507097,0.6945701537872055,0.1808773189946045,0.8335391676373695,0.21140470280923782
113,7.215,6.99,1.12,0.5442260810116246,0.16701191914288838,0.6910608316606076,0.18041256954529425,0.8274048113884428,0.21100302428293288
114,7.298,7.05,1.09,0.5398465761829471,0.16698378336236216,0.6875284061013678,0.1799602193509444,0.8212061684371404,0.21060731627256835
115,7.36,7.1,1.09,0.5354873368116464,0.16697651182252404,0.6839737611286028,0.1795199054464961,0.8149461728737293,0.21021734195583874
116,7.38,7.16,1.06,0.5311498182487426,0.16698949191443005,0.680397757475646,0.17909125325928787,0.8086277592508335,0.20983286167958917
117,7.482,7.21,1.03,0.5268354400717817,0.16702210217604546,0.6768012323074284,0.17867387700359993,0.8022538608213374,0.2094536332297618
118,7.523,7.27,1.0,0.5225455854265683,0.1670737128721746,0.673184998988639,0.17826738009160054,0.7958274078026574,0.2090794121091651
119,7.544,7.32,0.97,0.5182816004201078,0.16714368658461623,0.6695498469027151,0.17787135556013003,0.789351325668196,0.20870995182292498
120,7.626,7.38,0.93,0.514044793564941,0.16723137881210515,0.6658965413216009,0.17748538651276302,0.7828285334667666,0.2083450041714612
121,7.667,7.43,0.9,0.5098364352749464,0.1673361385796079,0.6622258233261133,0.17710904657658882,0.7762619421707294,0.2079843195508096
122,7.708,7.49,0.91,0.5056577574125785,0.16745730905652115,0.6585384097766365,0.1767419003731394,0.7696544530535327,0.20762764726006383
123,7.77,7.54,0.88,0.5015099528873794,0.16759422818327024,0.6548349933337614,0.17638350400286892,0.7630089560972954,0.2072747358156411
124,7.852,7.6,0.89,0.4973941753054862,0.1677462293057307,0.6511162425283574,0.17603340554256552,0.756328328431025,0.20692533327199286
125,7.894,7.65,0.86,0.49331153866974775,0.16791264181682236,0.6473828018804384,0.1756911455550557,0.7496154328000463,0.20657918754828833
126,7.936,7.71,0.84,0.4892631171300155,0.16809279180455602,0.6436352920660711,0.17535625761053883,0.7428731160672193,0.20623604676049817
127,7.996,7.76,0.8,0.4852499447831437,0.16828600270575222,0.6398743101314868,0.17502826881886777,0.7361042077465527,0.20589565955820618
128,8.037,7.82,0.79,0.48127301552222945,0.16849159596461624,0.6361004297534733,0.174706700372082,0.7293115185698321,0.20555777546539747
129,8.099,7.87,0.76,0.4773332829346123,0.16870889169534292,0.6323142015450592,0.17439106809650337,0.7224978390868961,0.2052221452244265
130,8.203,7.93,0.71,0.4734316602481285,0.16893720934793738,0.6285161534054293,0.17408088301370667,0.7156659383001844,0.204888521142354
131,8.223,7.98,0.67,0.46956902032507675,0.16917586837646054,0.6247067909129508,0.17377565190966862,0.7088185623341668,0.204556657438842
132,8.263,8.04,0.68,0.4657461957032814,0.1694241889089382,0.6208865977601192,0.17347487791138022,0.7019584331402419,0.20422631059477944
133,8.324,8.09,0.64,0.4619639786835518,0.16968149241817992,0.6170560362291613,0.17317806107017417,0.6950882472376663,0.20389723970079096
134,8.384,8.15,0.62,0.4582231214627402,0.1699471023927433,0.6132155477069573,0.17288469895098335,0.688210674491043,0.20356920680474894
135,8.445,8.2,0.62,0.4545243363115169,0.1702203450072605,0.6093655532378718,0.17259428722670353,0.6813283569248845,0.2032419772573894
136,8.486,8.26,0.6,0.45086829579593984,0.17050054979132048,0.6055064541130182,0.17230632027678827,0.6744439075757596,0.2029153200551214
137,8.611,8.31,0.56,0.44725563304190563,0.17078705029607155,0.601638632494425,0.17202029178916176,0.6675599093825623,0.20258900817914297
138,8.632,8.37,0.53,0.4436869420416213,0.17107918475767409,0.5977624520724916,0.17173569536452826,0.6606789141154518,0.20226281893001177
139,8.674,8.42,0.53,0.44016277800130443,0.17137629675668267,0.5938782587550224,0.1714520251221925,0.6538034413440494,0.20193653425686917
140,8.694,8.48,0.47,0.43668365772939105,0.17167773587237356,0.5899863813860317,0.1711687763065562,0.6469359774454949,0.20160994108056554
141,8.756,8.53,0.41,0.4332500600645687,0.17198285833098037,0.5860871324924636,0.1708854458934974,0.6400789746529787,0.2012828316099865
142,8.818,8.59,0.38,0.4298624263429377,0.17229102764678617,0.5821808090569497,0.17060153319586407,0.6332348501453693,0.20095500365091415
143,8.962,8.64,0.31,0.42652116090351044,0.17260161525503434,0.5782676933147128,0.1703165404673375,0.6264059851785363,0.20062626090677588
144,8.984,8.7,0.23,0.4232266316311156,0.17291400113565622,0.5743480535727115,0.17002997350394702,0.6195947242589348,0.20029641327065242
145,9.004,8.75,0.19,0.41997917053559447,0.17322757442685435,0.5704221450490913,0.16974134224254742,0.6128033743599519,0.19996527710793469
146,9.025,8.81,0.15,0.416779074365992,0.1735417340276211,0.5664902107309919,0.1694501613555897,0.6060342041814245,0.19963267552904837
147,9.086,8.86,0.1,0.41362660525826994,0.17385588918829942,0.5625524822487549,0.16915595084150492,0.5992894434526305,0.19929843865170158
148,9.148,8.92,0.06,0.41052199141491397,0.174169460088321,0.5586091807645923,0.1688582366099981,0.5925712822789374,0.1989624038521486
149,9.21,8.97,0.05,0.4074654278146914,0.17448187840030335,0.5546605178737779,0.16855655106154455,0.5858818705321881,0.1986244160049983
150,9.313,9.03,-0.02,0.4044570769507582,0.17479258783974216,0.5507066965164179,0.16825043366039957,0.57922331728482,0.19828432771112248
151,9.333,9.08,-0.07,0.4014970695953128,0.17510104469958937,0.5467479118978611,0.1679394315004645,0.5725976902876496,0.19794199951324445
152,9.375,9.14,-0.09,0.3985855055890193,0.17540671836905136,0.5427843524158033,0.1676230998633836,0.5660070154911938,0.1975973000988139
153,9.437,9.19,-0.14,0.3957224546534642,0.17570909183596944,0.5388162005921562,0.16730100276827137,0.5594532766103435,0.19725010648980398
154,9.478,9.25,-0.21,0.3929079572249537,0.176007662172164,0.5348436340077803,0.1669727135124821,0.5529384147321309,0.19690030421912016
155,9.541,9.3,-0.26,0.39014202530799896,0.1763019410011434,0.5308668262382125,0.1666378152028287,0.5464643279662545,0.1965477874933872
156,9.603,9.36,-0.31,0.38742464334687937,0.17659145494758455,0.5268859477885868,0.1662959012766306,0.5400328711379434,0.19619245934197718
157,9.687,9.41,-0.39,0.384755769113718,0.17687574606797038,0.5229011670260205,0.16594657601192891,0.5336458555226394,0.195834231752251
158,9.708,9.47,-0.42,0.3821353346115147,0.17715437226174618,0.5189126511078131,0.16558945502616437,0.5273050486218586,0.19547302579108614
159,9.748,9.52,-0.42,0.3795632469905523,0.17742690766234143,0.5149205669038555,0.16522416576258764,0.5210121739794698,0.1951087717128423
160,9.809,9.58,-0.45,0.3770393894765297,0.17769294300740204,0.5109250819116716,0.16485034796365564,0.5147689110374954,0.19474140905395573
161,9.852,9.63,-0.49,0.37456362230871443,0.17795208598757423,0.5069263651625238,0.16446765413065778,0.5085768950304326,0.19437088671435826
162,9.914,9.69,-0.49,0.37213578368639333,0.1782039615731814,0.5029245881170277,0.16407574996880933,0.5024377169170124,0.1939971630258987
163,9.996,9.74,-0.51,0.369755690721935,0.1784482123181479,0.49891992554875353,0.16367431481705413,0.496352923348279,0.19362020580791892
164,10.058,9.8,-0.55,0.3674231403988531,0.17868449864056138,0.4949125564143346,0.1632630420618396,0.49032401667082864,0.19323999241013387
165,10.128,9.85,-0.59,0.3651379105333352,0.17891249907935,0.49090266470864274,0.1628416395341781,0.48435245496404455,0.1928565097429826
166,10.146,9.91,-0.58,0.36289976073775776,0.17913191052666672,0.48689044030363865,0.1624098298893696,0.47843965211013406,0.19246975429564514
167,10.187,9.96,-0.61,0.3607084333847604,0.17934244843568842,0.4828760797695709,0.16196735096881085,0.47258697789576115,0.1920797321419598
168,10.25,10.02,-0.63,0.3585636545704993,0.17954384700362094,0.4788597871772761,0.16151395614333677,0.4667957581440406,0.19168645893451552
169,10.311,10.07,-0.62,0.356465135075745,0.17973585932974684,0.47484177488040374,0.1610494146375405,0.4610672748756442,0.19128995988721764
170,10.393,10.13,-0.64,0.35441257132354237,0.17991825754835636,0.470822264276461,0.16057351183450233,0.4554027664977594,0.19089026974662562
171,10.414,10.18,-0.66,0.35240564633221944,0.18009083293640554,0.46680148654562964,0.1600860495603542,0.44980342801965884,0.19048743275235502
172,10.496,10.24,-0.66,0.3504440306626046,0.18025339599578585,0.4627796833663566,0.15958684634814643,0.4442704112936593,0.19008150258683587
173,10.516,10.29,-0.67,0.34852738335839634,0.1804057765101798,0.4587571076067603,0.15907573768058245,0.43880482528028947,0.18967254231474
174,10.578,10.35,-0.7,0.34665535287872373,0.18054782357658858,0.4547340239909356,0.15855257621131197,0.4334077363365271,0.18926062431241997
175,10.639,10.4,-0.72,0.3448275780220176,0.18067940561173798,0.45071070973929866,0.15801723196458958,0.42808016852601216,0.18884583018773746
176,10.682,10.46,-0.72,0.3430436888403983,0.18080041033367614,0.44668745518219083,0.15746959251318227,0.4228231039501907,0.18842825069068217
177,10.785,10.51,-0.77,0.341303307543862,0.18091074471896015,0.44266456434604506,0.1569095631344557,0.4176374830993818,0.18800798561519136
178,10.805,10.57,-0.81,0.33960604939359296,0.18101033493588928,0.4386423555115012,0.15633706694459276,0.412524205222794,0.18758514369257076
179,10.846,10.62,-0.82,0.3379515235837427,0.18109912625428365,0.43462116174292115,0.15575204501092005,0.4074841287165359,0.1871598424768967
180,10.908,10.68,-0.86,0.33633933411099104,0.18117708293232532,0.43060133138880796,0.15515445644233314,0.4025180715286826,0.18673220822274786
181,10.97,10.73,-0.9,0.33476908063115063,0.18124418808098075,0.42658322855267583,0.15454427845783242,0.39762681158044866,0.18630237575558736
182,11.011,10.79,-0.95,0.3332403593019896,0.18130044350652566,0.42256723353395104,0.1539215064332147,0.3928110872025068,0.18587048833508246
183,11.073,10.84,-0.96,0.331752763611333,0.18134586953170637,0.41855374323848743,0.15328615392601577,0.38807159758546694,0.18543669751159647
184,11.175,10.9,-0.99,0.33030588518937887,0.1813805047960714,0.41454317155827364,0.15263825267884779,0.3834090032435033,0.18500116297601213
185,11.196,10.95,-0.99,0.3288993146040354,0.18140440603599822,0.4105359497198724,0.1519778526013091,0.37882392649008095,0.18456405240296925
186,11.237,11.01,-0.98,0.327532642137985,0.18141764784491093,0.40653252660108746,0.1513050217306568,0.3743169519247032,0.18412554128753106
187,11.278,11.06,-1.01,0.3262054585461422,0.18142032241414818,0.4025333690153308,0.15061984617141752,0.3698886269296023,0.18368581277524804
188,11.34,11.12,-1.03,0.3249173557921978,0.18141253925490014,0.39853896196317007,0.1499224300140916,0.3655394621753202,0.18324505748555764
189,11.401,11.17,-1.03,0.32366792776301645,0.1813944249016167,0.394549808850556,0.14921289523309328,0.36126993213417596,0.18280347332844094
190,11.544,11.23,-1.05,0.32245677095975317,0.18136612259728624,0.39056643167326316,0.1484913815640745,0.3570804756006759,0.18236126531425365
191,11.564,11.28,-1.08,0.32128348516466837,0.18132779196099694,0.3865893711671155,0.1477580463607982,0.3529714962179693,0.18191864535666152
192,11.585,11.34,-1.11,0.3201476740827226,0.18127960863822248,0.3826191869236096,0.14701306443176504,0.34894336300949946,0.18147583206863926
193,11.626,11.39,-1.11,0.31904894595711947,0.18122176393431222,0.3786564574705991,0.14625662785683838,0.3449964109150351,0.18103305055152422
194,11.668,11.45,-1.16,0.3179869141580494,0.18115446443168248,0.3747017803177633,0.1454889457841374,0.34113094133030103,0.18059053217714494
195,11.731,11.5,-1.22,0.31696119774394466,0.18107793159119553,0.3707557719666486,0.14471024420746856,0.3373472226494464,0.1801485143630591
196,11.772,11.56,-1.22,0.3159714219945847,0.18099240133818925,0.36681906788512486,0.14392076572456297,0.3336454908095994,0.1797072403409247
197,11.894,11.61,-1.22,0.31501721891538337,0.18089812363358931,0.3628923224461301,0.14312076927639408,0.3300259498367592,0.17926695891799954
198,11.915,11.67,-1.24,0.31409822771215323,0.18079536203051264,0.35897620883059156,0.14231052986786702,0.3264887723922655,0.17882792423174043
199,11.958,11.72,-1.23,0.31321409523560356,0.18068439321677487,0.3550714188944188,0.14149033827019736,0.323034100319081,0.17839039549745303
200,12.0,11.78,-1.26,0.3123644763948159,0.18056550654375858,0.35117866299948947,0.14066050070532637,0.3196620451871476,0.17795463674892506
201,12.061,11.83,-1.3,0.3115490345389829,0.18043900354217085,0.3472986698085961,0.13982133851274844,0.31637268883712494,0.17752091657196142
202,12.123,11.89,-1.31,0.3107674418067741,0.1803051974253192,0.3434321860443762,0.13897318779916853,0.3131660839218767,0.1770895078307553
203,12.185,11.94,-1.31,0.31001937944278846,0.18016441258063542,0.3395799762123011,0.13811639907146145,0.3100422544451151,0.17666068738709154
204,12.25,12.0,-1.34,0.30930453808065456,0.18001698405025857,0.3357428222878354,0.13725133685345411,0.30700119629664185,0.17623473581247476
205,12.269,12.05,-1.37,0.30862261799244206,0.17986325700151617,0.3319215233679216,0.13637837928707316,0.30404287778364786,0.17581193709337248
206,12.333,12.11,-1.38,0.3079733293041501,0.17970358618812995,0.3281168952869886,0.13549791771839176,0.3011672401575608,0.17539257832982513
207,12.416,12.16,-1.41,0.3073563921771397,0.1795383354029153,0.32432977019774345,0.13461035626908274,0.2983741981359722,0.1749769494277027
208,12.438,12.22,-1.47,0.30677153695546017,0.17936787692268386,0.32056099611706756,0.13371611139376724,0.29566364041920024,0.17456534278490526
209,12.502,12.27,-1.48,0.30621850427905883,0.1791925909460325,0.31681143643738463,0.13281561142375575,0.29303543020105977,0.1741580529718214
210,12.606,12.33,-1.47,0.3056970451628571,0.17901286502471916,0.31308196940390143,0.13190929609771188,0.29048940567340653,0.17375537640637984
211,12.627,12.38,-1.51,0.30520692104164693,0.17882909348936551,0.3093734875581501,0.13099761607980948,0.28802538052401067,0.17335761102404834
212,12.669,12.44,-1.53,0.30474790378073335,0.17864167687026686,0.30568689714829167,0.13008103246599656,0.28564314442730104,0.1729650559431614
213,12.731,12.49,-1.5,0.3043197756522594,0.1784510213141199,0.3020231175066665,0.12916001627901535,0.28334246352753123,0.17257801112598256
214,12.791,12.55,-1.51,0.30392232927721713,0.17825753799747646,0.2983830803951228,0.12823504795285118,0.2811230809139404,0.17219677703592984
215,12.833,12.6,-1.54,0.30355536753326723,0.1780616425377058,0.29476772931870354,0.12730661680729266,0.27898471708752093,0.17182165429140908
216,12.873,12.66,-1.54,0.30321870342862367,0.1778637544022168,0.29117801880831784,0.1263752205133031,0.2769270704190527,0.17145294331670122
217,12.977,12.71,-1.55,0.3029121599424066,0.17766429631664574,0.28761491367307934,0.12544136454991067,0.2749498175981271,0.17109094399033317
218,12.998,12.77,-1.58,0.30263556983201995,0.17746369367266307,0.28407938822306716,0.12450556165332338,0.273052614072944,0.17073595529134358
219,13.061,12.82,-1.61,0.30238877540824327,0.1772623739360188,0.28057242546335553,0.12356833125896645,0.2712350944807164,0.17038827494385797
220,13.122,12.88,-1.6,0.30217162827881594,0.17706076605545842,0.2770950162602416,0.12263019893714877,0.26949687306856346,0.17004819906038937
221,13.165,12.93,-1.63,0.30198398906133544,0.17685929987317642,0.27364815848067386,0.1216916958230887,0.2678375441047966,0.16971602178427828
222,13.225,12.99,-1.64,0.30182572706630617,0.1766584055374959,0.27023285610594017,0.12075335804205198,0.2662566822805248,0.16939203493167876
223,13.288,13.04,-1.63,0.3016967199511845,0.17645851291844905,0.2668501183207185,0.11981572613036867,0.2647538431015226,0.16907652763348038
224,13.35,13.1,-1.64,0.3015968533463248,0.17626005102686085,0.2635009585786496,0.11887934445307677,0.26332856327033216,0.16876978597755443
225,13.37,13.15,-1.66,0.3015260204538409,0.17606344743744035,0.26018639364567975,0.1179447606188863,0.2619803610586092,0.1684720926517253
226,13.432,13.21,-1.66,0.3014841216205558,0.1758691277163052,0.25690744262253423,0.11701252489308979,0.26070873666977185,0.1681837265879066
227,13.493,13.26,-1.66,0.30147106388636047,0.1756775148533486,0.25366512594780183,0.11608318960899625,0.2595131725920693,0.16790496260788784
228,13.556,13.32,-1.69,0.3014867605094382,0.17548902869990543,0.2504604643832179,0.11515730857845556,0.2583931339422441,0.16763607107131068
229,13.599,13.37,-1.72,0.301531130469906,0.17530408541226797,0.24729447798280502,0.11423543650207066,0.257348068800011,0.16737731752642687
230,13.66,13.43,-1.72,0.3016040979534844,0.1751230969017076,0.2441681850475882,0.11331812837974355,0.25637740853362284,0.16712896236426875
231,13.763,13.48,-1.74,0.30170559181685386,0.17494647029174037,0.24108260106763776,0.11240593892224046,0.2554805681168237,0.16689126047689262
232,13.784,13.54,-1.77,0.3018355450363687,0.17477460738341116,0.23803873765323372,0.1114994219644817,0.2546569464375092,0.16666446092037224
233,13.825,13.59,-1.78,0.30199389414180217,0.1746079041293725,0.23503760145697633,0.11059912988126513,0.2539059265984219,0.16644880658322414
234,13.888,13.65,-1.79,0.30218057863677455,0.17444675011750102,0.23208019308869338,0.10970561300612611,0.25322687621021545,0.1662445338609274
235,13.971,13.7,-1.81,0.30239554040747896,0.174291528064744,0.2291675060250092,0.10881941905403052,0.25261914767722854,0.166051872337169
236,13.992,13.76,-1.81,0.30263872312123985,0.17414261332186143,0.22630052551543375,0.1079410925486077,0.2520820784763146,0.16587104447240386
237,14.117,13.81,-1.8,0.3029100716163474,0.17400037338971977,0.2234802274867949,0.10707117425465973,0.2516149914290815,0.1657022653002719
238,14.137,13.87,-1.82,0.3032095312845447,0.17386516744777974,0.2207075774477913,0.1062102006167164,0.2512171949679169,0.16554574213236325
239,14.158,13.92,-1.84,0.30353704744752225,0.17373734589539616,0.2179835293953929,0.10535870320442262,0.25088798339620666,0.16540167427177932
240,14.2,13.98,-1.82,0.30389256472880627,0.17361724990652005,0.21530902472477934,0.10451720816554982,0.2506266371431938,0.16527025273589985
241,14.262,14.03,-1.82,0.3042760264224704,0.1735052109983739,0.21268499114446804,0.10368623568742293,0.25043242301397034,0.16515165998873504
242,14.345,14.09,-1.84,0.30468737386014866,0.17340155061466556,0.21011234159825218,0.10286629946755593,0.2503045944351294,0.1650460696832341
243,14.366,14.14,-1.84,0.30512654577785686,0.1733065797239249,0.20759197319551909,0.10205790619430824,0.2502423916966491,0.16495364641392074
244,14.45,14.2,-1.83,0.30559347768414613,0.17322059843358356,0.2051247661514816,0.10126155503839396,0.25024504219062704,0.16487454548022115
245,14.47,14.25,-1.87,0.3060881012311265,0.1731438956204581,0.2027115827388494,0.10047773715609185,0.2503117606475392,0.1648089126608363
246,14.532,14.31,-1.91,0.30661034358988326,0.1730767485783358,0.20035326625249653,0.09970693520500117,0.250441749370735,0.16475688399948926
247,14.592,14.36,-1.91,0.3071601268317743,0.173019422683386,0.19805063998872108,0.0989496228731838,0.2506341984699121,0.16471858560234942
248,14.654,14.42,-1.93,0.30773736731702706,0.17297217107811014,0.1958045062407068,0.09820626442252721,0.25088828609431824,0.16469413344740283
249,14.697,14.47,-1.94,0.3083419750919708,0.17293523437449848,0.19361564531176478,0.09747731424715543,0.25120317866641173,0.16468363320601181
250,14.757,14.53,-1.91,0.30897385329613813,0.17290884037700258,0.1914848145478788,0.09676321644770107,0.25157803111668714,0.16468718007687838
251,14.819,14.58,-1.92,0.3096328975803951,0.17289320382587414,0.1894127473910216,0.09606440442222754,0.2520119871203585,0.16470485863259376
252,14.881,14.64,-1.94,0.3103189955372292,0.17288852616137554,0.18740015245465985,0.09538130047456574,0.2525041793366029,0.1647367426789172
253,14.942,14.69,-1.95,0.31103202614433684,0.17289499530934027,0.18544771262282728,0.09471431544080673,0.2530537296510905,0.16478289512689143
254,14.983,14.75,-1.94,0.3117718592226944,0.17291278548853206,0.1835560841741198,0.09406384833465406,0.2536597494225654,0.16484336787787807
255,15.044,14.8,-1.97,0.3125383549103544,0.1729420570401801,0.18172589593196875,0.09343028601226334,0.25432133973426346,0.1649182017215878
256,15.085,14.86,-2.0,0.3133313631532709,0.17298295627995136,0.17995774844255877,0.09281400285708147,0.255037591650965,0.16500742624718387
257,15.189,14.91,-2.02,0.3141507232144999,0.1730356153724853,0.17825221318177137,0.09221536048506629,0.2558075864824823,0.16511105976753282
258,15.209,14.97,-2.04,0.3149962632031309,0.17310015222848024,0.17660983179253736,0.09163470747054085,0.25663039605436766,0.16522910925666046
259,15.273,15.02,-2.08,0.31586779962427913,0.17317667042419874,0.1750311153539706,0.09107237909281932,0.2575050829865975,0.16536157030045723
260,15.294,15.08,-2.08,0.31676513695139075,0.17326525914315752,0.1735165436836233,0.0905286971036431,0.25843070098094,0.1655084270606726
261,15.417,15.13,-2.07,0.3176880672220056,0.1733659931396968,0.1720665646741573,0.09000396951539771,0.2594062951176479,0.16566965225224015
262,15.437,15.19,-2.1,0.3186363696579955,0.17347893272408527,0.1706815936656557,0.08949849041004679,0.2604309021620561,0.16584520713397974
263,15.478,15.24,-2.11,0.319609810311179,0.17360412376881265,0.1693620128547224,0.08901253976872074,0.26150355088160576,0.1660350415127287
264,15.56,15.3,-2.09,0.32060814173512625,0.17374159773573863,0.16810817074143164,0.08854638332190565,0.2626232623737813,0.16623909376095106
265,15.581,15.35,-2.11,0.3216311026839244,0.17389137172377955,0.16692038161511943,0.08810027242017834,0.263789050405422,0.16645729084786492
266,15.623,15.41,-2.13,0.32267841783864426,0.17405344853680793,0.16579892507994207,0.08767444392540602,0.26499992176384707,0.16668954838411199
267,15.685,15.46,-2.12,0.32374979756222405,0.1742278167714053,0.16474404562106593,0.0872691201222791,0.2662548766202121,0.16693577067996815
268,15.748,15.52,-2.14,0.324844937683465,0.1744144509240464,0.16375595221230801,0.08688450864997872,0.2675529089054882,0.16719585081706603
269,15.81,15.57,-2.18,0.32596351931080786,0.1746133115172289,0.1628348179660042,0.08652080245371756,0.268893006699428,0.16746967073357866
270,15.871,15.63,-2.22,0.3271052086765071,0.17482434524402962,0.16198077982583273,0.08617817975585411,0.2702741526328331,0.16775710132280355
271,15.933,15.68,-2.2,0.3282696570117327,0.1750474851305644,0.16119393830325704,0.08585680404626636,0.2716953243033838,0.16805800254508235
272,15.954,15.74,-2.24,0.3294565004530165,0.17528265071582014,0.16047435725819184,0.08555682409164334,0.27315549470520356,0.16837222355298834
273,16.015,15.79,-2.26,0.3306653599803228,0.17552974824829184,0.1598220637244406,0.08527837396329513,0.2746536326722332,0.16869960282971044
274,16.078,15.85,-2.23,0.3318958413868882,0.17578867089878694,0.15923704778039852,0.08502157308298948,0.2761887033353851,0.1690399683405503
275,16.14,15.9,-2.24,0.33314753528086716,0.17605929898867184,0.15871926246546372,0.08478652628622119,0.2777596685933537,0.1693931376974264
276,16.182,15.96,-2.26,0.3344200171187382,0.17634150023277315,0.15826862374252446,0.08457332390225006,0.2793654875968755,0.1697589183362615
277,16.305,16.01,-2.25,0.3357128472703545,0.17663512999613432,0.15788501050679823,0.08438204185020907,0.281005117246162,0.17013710770710566
278,16.325,16.07,-2.24,0.3370255711154486,0.17694003156386645,0.15756826464120566,0.08421274175058273,0.2826775127011761,0.17052749347682225
279,16.366,16.12,-2.25,0.3383577191713248,0.17725603642339102,0.15731819111836937,0.08406547105136383,0.28438162790437144,0.1709298537441409
280,16.407,16.18,-2.29,0.33970880725138647,0.1775829645584332,0.15713455814924038,0.0839402631682173,0.286116416115464,0.17134395726686175
281,16.468,16.23,-2.28,0.3410783366540607,0.17792062475416656,0.15701709737826117,0.08383713763799755,0.287880830457752,0.17176956370097185
282,16.509,16.29,-2.3,0.3424657943815929,0.17826881491291333,0.15696550412487345,0.08375610028496829,0.28967382447543377,0.17220642385140417
283,16.57,16.34,-2.3,0.34387065338808803,0.1786273223797723,0.15697943767107808,0.08369714339905922,0.29149435270128915,0.17265427993414065
284,16.674,16.4,-2.27,0.3452923728560588,0.17899592427749836,0.15705852159464725,0.08366024592547315,0.293341371233989,0.17311286584933938
285,16.736,16.45,-2.25,0.3467303985006448,0.17937438784990206,0.15720234414749581,0.08364537366493328,0.295213838324204,0.17358190746515184
286,16.757,16.51,-2.27,0.34818416290059556,0.1797624708129998,0.1574104586786352,0.0836524794838368,0.2971107149686034,0.17406112291188633
287,16.798,16.56,-2.26,0.34965308585506655,0.18015992171313988,0.15768238410105975,0.08368150353356604,0.2990309655107819,0.17455022288617206
288,16.86,16.62,-2.24,0.3511365747652553,0.18056648029136257,0.1580176054018416,0.08373237347820399,0.30097355824811867,0.17504891096477398
289,16.9,16.67,-2.26,0.3526340250398873,0.18098187785329606,0.15841557419463884,0.08380500472989658,0.3029374660435364,0.17555688392770794
290,16.961,16.73,-2.27,0.35414482052354784,0.18140583764392837,0.1588757093137365,0.08389930069109763,0.3049216669410809,0.17607383209031097
291,17.044,16.78,-2.24,0.3556683339468289,0.18183807522662643,0.1593973974486447,0.08401515300292105,0.3069251447841904,0.1765994396439151
292,17.064,16.84,-2.25,0.3572039273972135,0.18227829886578073,0.15997999381816974,0.08415244179880879,0.3089468898354634,0.17713338500474674
293,17.126,16.89,-2.25,0.3587509528095459,0.18272620991245775,0.16062282288276641,0.08431103596271149,0.3109858993966687,0.17767534117063358
294,17.168,16.95,-2.21,0.3603087524748121,0.18318150319244847,0.16132517909387314,0.0844907933909787,0.3130411784276807,0.17822497608505392
295,17.23,17.0,-2.18,0.36187665956582876,0.18364386739612087,0.16208632767883907,0.08469156125716631,0.3151117401629619,0.1787819530080191
296,17.292,17.06,-2.17,0.36345399867832434,0.1841129854695155,0.16290550545996407,0.08491317627898598,0.31719660672417166,0.17934593089325274
297,17.396,17.11,-2.16,0.36504008638583046,0.1845885350061742,0.1637819217060973,0.0851554649866571,0.31929480972745095,0.17991656477111428
298,17.417,17.17,-2.1,0.3666342318067837,0.18507018863926344,0.16471475901514956,0.08541824399199659,0.32140539088392966,0.18049350613670487
299,17.458,17.22,-2.1,0.36823573718225566,0.18555761443362234,0.16570317422577102,0.0857013202577096,0.3235274025920046,0.18107640334256664
300,17.541,17.28,-2.09,0.36984389846275995,0.1860504762774165,0.16674629935632462,0.08600449136649145,0.32565990851994725,0.18166490199535523
301,17.562,17.33,-2.06,0.3714580059026036,0.18654843427310436,0.16784324256918276,0.0863275457896556,0.3278019841774123,0.18225864535581904
302,17.624,17.39,-2.04,0.37307734466027986,0.18705114512740698,0.16899308915831082,0.08667026315502793,0.32995271747443083,0.18285727474136682
303,17.706,17.44,-2.02,0.3747011954034215,0.1875582625399262,0.17019490255807515,0.08703241451381101,0.3321112092664891,0.18346042993047457
304,17.747,17.5,-1.99,0.3763288349168424,0.1880694375900164,0.17144772537119266,0.08741376260608445,0.3342765738843001,0.1840677495681655
305,17.768,17.55,-1.93,0.37795953671219346,0.18858431912150625,0.17275058041371694,0.08781406212460323,0.3364479396468896,0.18467887157179952
306,17.851,17.61,-1.93,0.37959257163776017,0.18910255412489396,0.17410247177493812,0.08823305997658136,0.33862444935664526,0.18529343353641373
307,17.892,17.66,-1.9,0.38122720848695335,0.18962378811669006,0.17550238589005795,0.08867049554319173,0.34080526077501516,0.1859110731388657
308,17.975,17.72,-1.85,0.38286271460409194,0.19014766551564205,0.17694929262349246,0.08912610093655567,0.34298954707760015,0.1865314285400358
309,18.037,17.77,-1.83,0.38449835648613767,0.19067383001562555,0.17844214636065428,0.08959960125403192,0.34517649728744354,0.18715413878435214
310,18.119,17.83,-1.81,0.38613340037910343,0.19120192495500926,0.17997988710607113,0.090090714829643,0.3473653166853765,0.18777884419591276
311,18.141,17.88,-1.79,0.3877671128679173,0.19173159368232,0.1815614415857114,0.09059915348250527,0.3495552271963382,0.18840518677049717
312,18.181,17.94,-1.77,0.38939876145857755,0.19226247991804388,0.18318572435141256,0.09112462276215443,0.3517454677506486,0.18903281056277627
313,18.243,17.99,-1.79,0.3910276151514817,0.1927942281124057,0.18485163888535444,0.0916668221906729,0.3539352946192757,0.18966136206804798
314,18.284,18.05,-1.78,0.392652945004846,0.19332648379898662,0.1865580787025671,0.09222544550152982,0.35612398172218473,0.19029049059785413
315,18.346,18.1,-1.73,0.394274024687127,0.19385889394405742,0.1883039284495169,0.09280018087503189,0.3583108209088881,0.19091984864885772
316,18.387,18.16,-1.72,0.39589013101733006,0.19439110729151554,0.1900880649968624,0.09339071117025789,0.36049512221032715,0.1915490922643889
317,18.448,18.21,-1.7,0.39750054449204475,0.19492277470329983,0.19190935852450744,0.09399671415331812,0.362676214061222,0.19217788138807368
318,18.488,18.27,-1.65,0.39910454979801385,0.19545354949513583,0.19376667359708719,0.09461786272176721,0.36485344349204085,0.19280588020895206
319,18.55,18.32,-1.62,0.4007014363090284,0.19598308776744197,0.1956588702280245,0.09525382512500692,0.36702617628978085,0.19343275749748295
320,18.612,18.38,-1.6,0.40229049856598664,0.19651104873122435,0.19758480493029748,0.09590426518054929,0.369193797126813,0.19405818693184587
321,18.674,18.43,-1.57,0.4038710367390371,0.1970370950288032,0.19954333175207217,0.09656884248605613,0.3713557096571123,0.1946818474139942
322,18.736,18.49,-1.52,0.4054423570708607,0.19756089304923483,0.20153330329539937,0.09724721262711339,0.37351133657928415,0.19530342337497
323,18.8,18.54,-1.52,0.40700377230030893,0.19808211323830294,0.20355357171624971,0.09793902738071518,0.3756601196658851,0.19592260506904619
324,18.862,18.6,-1.52,0.408554602065756,0.1986004304029633,0.2056029897042594,0.09864393491441804,0.37780151975863197,0.1965390888563142
325,18.882,18.65,-1.46,0.41009417328763614,0.19911552401013052,0.2076804114406707,0.0993615799810859,0.37993501672918384,0.19715257747336898
326,18.944,18.71,-1.45,0.4116218205297146,0.19962707847968192,0.20978469353306417,0.10009160410908945,0.3820601094052634,0.19776278029176653
327,18.986,18.76,-1.43,0.41313688633869466,0.20013478347151778,0.2119146959255736,0.10083364578777358,0.38417631546195474,0.19836941356394272
328,19.048,18.82,-1.38,0.4146387215618104,0.20063833416647772,0.21406928278334986,0.10158734064799183,0.38628317127808787,0.19897220065629323
329,19.111,18.87,-1.34,0.4161266856421096,0.20113743154087502,0.21624732335010965,0.10235232163751984,0.3883802317577067,0.19957087226912065
330,19.174,18.93,-1.33,0.4176001468912277,0.20163178263438558,0.2184476927776908,0.10312821919119172,0.3904670701167155,0.20016516664318096
331,19.236,18.98,-1.31,0.4190584827395785,0.20212110081103196,0.2206692729266387,0.10391466139564837,0.39254327763491176,0.2007548297526038
332,19.256,19.04,-1.25,0.4205010799640259,0.2026051060130307,0.22291095313694906,0.10471127414864514,0.3946084633737324,0.20133961548401214
333,19.36,19.09,-1.27,0.4219273348932532,0.20308352500729052,0.22517163096819467,0.10551768131292909,0.39666225386015896,0.20191928580171326
334,19.381,19.15,-1.26,0.4233366535911727,0.20355609162435243,0.22745021290835668,0.10633350486475059,0.398704292737337,0.20249361089887277
335,19.463,19.2,-1.24,0.42472845201881987,0.2040225469895502,0.2297456150507608,0.10715836503712796,0.40073424038257077,0.20306236933461463
336,19.484,19.26,-1.24,0.42610215617523944,0.20448263974614395,0.23205676373859196,0.10799188045802857,0.40275177349343816,0.20362534815701877
337,19.546,19.31,-1.27,0.42745720221790284,0.2049361262701615,0.23438259617652688,0.10883366828367681,0.4047565846428484,0.2041823430120258
338,19.588,19.37,-1.24,0.42879303656318557,0.20538277087667917,0.23672206100907664,0.10968334432725568,0.4067483818039146,0.20473315823830668
339,19.651,19.42,-1.21,0.43010911596739815,0.2058223460172938,0.23907411886528643,0.11054052318333332,0.4087268878455554,0.2052776069482046
340,19.712,19.48,-1.21,0.43140490758881556,0.20625463246856177,0.24143774286948733,0.11140481834841598,0.41069183999976516,0.20581551109490473
341,19.773,19.53,-1.19,0.4326798890311084,0.20667941951120478,0.24381191911783384,0.11227584233809991,0.4126429893015306,0.20634670152602877
342,19.836,19.59,-1.13,0.4339335483685689,0.20709650509990793,0.24619564712040262,0.11315320680135854,0.41458010000241735,0.20687101802387284
343,19.878,19.64,-1.13,0.4351653841535587,0.20750569602354713,0.24858794020868402,0.114036522632536,0.4165029489589305,0.20738830933251115
344,19.961,19.7,-1.13,0.43637490540667995,0.20790680805568745,0.2509878259083788,0.11492540008162488,0.4184113249968312,0.20789843317197432
345,19.981,19.75,-1.07,0.4375616315902595,0.2082996660951939,0.2533943462775027,0.1158194488633893,0.42030502825270083,0.20840125623968989
346,20.042,19.81,-1.07,0.4387250925658463,0.20868410429678996,0.255806558209913,0.11671827826585895,0.42218386949413794,0.20889665419935044
347,20.104,19.86,-1.09,0.4398648285365307,0.2090599661913951,0.25822353370448653,0.11762149725868075,0.4240476694200845,0.2093845116573695
348,20.145,19.92,-1.09,0.44098038997499645,0.20942710479609172,0.26064436010028497,0.11852871460179422,0.4258962579428719,0.209864722127107
349,20.206,19.97,-1.08,0.44207133753828637,0.20978538271360547,0.26306814027812475,0.11943953895492002,0.4277294734536668,0.21033718798108061
350,20.269,20.03,-1.09,0.4431372419703213,0.21013467222122093,0.26549399282903285,0.12035357898839195,0.4295471620730573,0.21080182039142747
351,20.331,20.08,-1.09,0.44417768399323637,0.21047485534906812,0.26792105219011986,0.12127044349589335,0.43134917688855295,0.2112585392589276
352,20.352,20.14,-1.06,0.44519225418861275,0.2108058239477213,0.27034846874845925,0.12218974150965062,0.43313537718079903,0.211707273130932
353,20.414,20.19,-1.06,0.44618055286970615,0.21112747974504148,0.27277540891363705,0.12311108241858633,0.4349056276403274,0.21214795910855874
354,20.497,20.25,-1.05,0.447142189945814,0.21143973439219393,0.27520105515971605,0.12403407608986897,0.4366597975767042,0.21258054274353724
355,20.538,20.3,-1.04,0.4480767847799749,0.21174250949879028,0.27762460603743805,0.1249583329942561,0.43839776012197623,0.21300497792510012
356,20.6,20.36,-1.04,0.44898396604125707,0.21203573665715517,0.2800452761575615,0.1258834643356225,0.44011939143037165,0.21342122675734293
357,20.642,20.41,-1.06,0.4498633715529515,0.21231935745577318,0.28246229614631285,0.12680908218507264,0.44182456987625995,0.21382925942749492
358,20.746,20.47,-1.09,0.45071464813802403,0.21259332348203394,0.284874912574023,0.1277347996200388,0.44351317525242084,0.214229054065575
359,20.767,20.52,-1.09,0.45153745146319757,0.2128575963144515,0.2872823878581219,0.12866023086875303,0.4451850879707046,0.21462059659592547
360,20.809,20.58,-1.13,0.45233144588302227,0.21311214750457402,0.28968400014180545,0.12958499146043606,0.4468401882671677,0.21500388058112385
361,20.868,20.63,-1.17,0.4530963042852526,0.21335695854881606,0.29207904314984934,0.13050869838146703,0.44847835541374903,0.21537890705877086
362,20.93,20.69,-1.16,0.45383170793877714,0.2135920208504517,0.29446682602320545,0.13143097023768635,0.4500994669385019,0.2157456843716474
363,20.992,20.74,-1.14,0.4545373463452549,0.21381733567198888,0.29684667313414426,0.1323514274228654,0.4517033978563301,0.21610422799173962
364,21.075,20.8,-1.17,0.455212917095525,0.21403291407811662,0.2992179238837875,0.13326969229328015,0.4532900199120994,0.21645456033866292
365,21.095,20.85,-1.17,0.4558581257317786,0.2142387768694064,0.3015799324839178,0.1341853893482618,0.4548592008379271,0.21679671059306024
366,21.137,20.91,-1.15,0.456472685616431,0.214434954506984,0.3039320677249903,0.13509814541657472,0.4564108036264086,0.2171307145055909
367,21.198,20.96,-1.18,0.4570563178086082,0.21462148702846834,0.3062737127323047,0.13600758984846545,0.4579446858215133,0.2174566142021527
368,21.26,21.02,-1.19,0.4576087509491389,0.21479842395558285,0.3086042647123175,0.1369133547132423,0.45946069882885754,0.21777445798599754
369,21.301,21.07,-1.17,0.4581297211549329,0.21496582419392493,0.3109231346910622,0.13781507500226886,0.46095868724703987,0.21808430013740612
370,21.384,21.13,-1.19,0.4586189719236178,0.21512375592541086,0.31322974724662017,0.13871238883726986,0.46243848822168926,0.21838620071157813
371,21.446,21.18,-1.23,0.4590762540492982,0.21527229649390453,0.31552354023755547,0.13960493768385376,0.46389993082384123,0.21868022533537773
372,21.467,21.24,-1.22,0.4595013255502683,0.21541153228453921,0.31780396452919785,0.14049236657014158,0.4653428354542134,0.21896644500355944
373,21.509,21.29,-1.22,0.4598939516094502,0.2155415585972611,0.32007048371963975,0.14137432431036845,0.4667670132748961,0.21924493587508923
374,21.572,21.35,-1.21,0.4602539045282614,0.2156624795151473,0.32232257386729046,0.14225046373329756,0.46817226566990744,0.21951577907018804
375,21.634,21.4,-1.22,0.4605809636945473,0.21577440776807735,0.3245597232217997,0.14312044191527273,0.46955838373598563,0.21977906046874407
376,21.696,21.46,-1.21,0.4608749155651657,0.21587746459235435,0.32678143196011705,0.14398392041774077,0.47092514780493444,0.2200348705107352
377,21.82,21.51,-1.23,0.4611355536637872,0.21597177958688454,0.3289872119293981,0.14484056552908364,0.4722723269987957,0.22028330399926443
378,21.841,21.57,-1.26,0.4613626785944664,0.2160574905665215,0.3311765863984172,0.1456900485106002,0.47359967881908305,0.2205244599067491
379,21.862,21.62,-1.26,0.461556098071517,0.21613474341316763,0.3333490898190748,0.14653204584645932,0.47490694877127204,0.220758441184741
380,21.924,21.68,-1.27,0.4617156269662022,0.21620369192520147,0.33550426759952356,0.1473662394974147,0.47619387002567615,0.22098535457781046
381,21.964,21.73,-1.31,0.46184108737070023,0.2162644976657642,0.3376416758903612,0.1481923171580349,0.47746016311576484,0.22120531044190941
382,22.027,21.79,-1.33,0.4619323086797475,0.21631732981041293,0.33976088138526,0.1490099725171788,0.47870553567488255,0.2214184225676339
383,22.089,21.84,-1.34,0.46198912769028305,0.2163623649946315,0.3418614611373087,0.14981890552144503,0.4799296822122193,0.22162480800882034
384,22.173,21.9,-1.37,0.4620113887193201,0.21639978716167785,0.3439430023922481,0.15061882264133009,0.4811322839287643,0.2218245869169119
385,22.194,21.95,-1.38,0.4619989437401389,0.21642978741124394,0.3460051024396618,0.1514094371398364,0.4823130085738398,0.22201788238151915
386,22.235,22.01,-1.36,0.4619516525367348,0.2164525638493946,0.3480473684830501,0.15219046934327501,0.48347151034267644,0.22220482027756153
387,22.297,22.06,-1.36,0.4618693828763022,0.2164683214402186,0.35006941752956633,0.1529616469139945,0.48460742981535193,0.22238552911932252
388,22.34,22.12,-1.38,0.46175201069941224,0.2164772718595663,0.3520708763000588,0.15372270512474126,0.48572039393729094,0.22256013992170026
389,22.402,22.17,-1.36,0.4615994203274685,0.2164796333511772,0.3540513811599342,0.15447338713432354,0.4868100160414156,0.22272878606888666
390,22.462,22.23,-1.37,0.4614115046869855,0.2164756305854332,0.35601057807124853,0.15521344426422123,0.48787589591194674,0.22289160319065607
391,22.544,22.28,-1.39,0.46118816555022246,0.21646549452092073,0.35794812256633096,0.15594263627575936,0.4889176198897722,0.22304872904640294
392,22.564,22.34,-1.4,0.46092931379167634,0.2164494622689592,0.3598636797431471,0.15666073164744876,0.48993476101921224,0.22320030341704214
393,22.626,22.39,-1.38,0.4606348696599037,0.21642777696125656,0.3617569242825132,0.15736750785208994,0.49092687923591843,0.2233464680048777
394,22.667,22.45,-1.41,0.4603047630640872,0.21640068762085152,0.3636275404871688,0.1580627516332225,0.4918935215955406,0.2234873663415441
395,22.728,22.5,-1.42,0.45993893387469764,0.2163684490364837,0.36547522234260393,0.15874625928048658,0.4928342225426857,0.22362314370411346
396,22.79,22.56,-1.4,0.45953733223751736,0.2163313216404986,0.36729967359941534,0.1594178369034449,0.4937485042195818,0.22375394703941986
397,22.853,22.61,-1.38,0.45909991890020235,0.21628957139033772,0.36910060787683313,0.160077300703397,0.49463587681375076,0.22387992489659778
398,22.893,22.67,-1.4,0.4586266655504845,0.2162434696536007,0.3708777487869271,0.16072447724270353,0.49549583894388377,0.22400122736778758
399,22.956,22.72,-1.38,0.45811755516505637,0.2161932930966211,0.3726308300788631,0.16135920371114462,0.4963278780830135,0.22411800603694595
400,23.017,22.78,-1.36,0.4575725823681395,0.216139323576486,0.374359595802444,0.1619813281888635,0.4971314710179965,0.22423041393669355
401,23.08,22.83,-1.37,0.4569917537987002,0.21608184803644145,0.3760638004900456,0.1625907099054811,0.497906084344243,0.22433860551313123
402,23.142,22.89,-1.39,0.456375088485241,0.21602115840464842,0.3777432093559552,0.16318721949500717,0.4986511749945628,0.22444273659854466
403,23.182,22.94,-1.37,0.4557226182270533,0.21595755149626916,0.37939759851202853,0.16377073924620372,0.4993661908009304,0.2245429643918896
404,23.326,23.0,-1.39,0.45503438798076473,0.21589132891886048,0.3810267551985165,0.16434116334807106,0.5000505710878914,0.2246394474469062
405,23.347,23.05,-1.4,0.45431045625094146,0.2158227969810287,0.38263047802884076,0.16489839813012386,0.50070374729624,0.2247323456676702
406,23.368,23.11,-1.35,0.4535508954834014,0.2157522666042749,0.3842085772470226,0.16544236229711576,0.5013251436354884,0.2248218203113458
407,23.389,23.16,-1.32,0.45275579245978953,0.21568005323791734,0.3857608749963832,0.16597298715785802,0.5019141777635352,0.22490803399786496
408,23.451,23.22,-1.31,0.4519252486918948,0.21560647677691436,0.3872872055980628,0.1664902168477661,0.5024702614918435,0.2249911507262189
409,23.493,23.27,-1.29,0.45105938081418323,0.21553186148235226,0.38878741583784165,0.1669940085447729,0.5029928015143804,0.22507133589700942
410,23.555,23.33,-1.16,0.4501583209731051,0.2154565359043116,0.39026136525970256,0.16748433267826482,0.5034812001585303,0.22514875634087606
411,23.657,23.38,-1.17,0.4492222172118671,0.2153808328068011,0.3917089264645627,0.16796117313072098,0.5039348561562011,0.2252235803523912
412,23.678,23.44,-1.19,0.4482512338494913,0.21530508909444407,0.3931299854126014,0.168424527431752,0.5043531654333696,0.22529597772900167
413,23.721,23.49,-1.15,0.44724555185306464,0.21522964574062295,0.3945244417276202,0.1688744069442491,0.5047355219163662,0.22536611981457208
414,23.782,23.55,-1.13,0.44620536920213094,0.21515484771679316,0.3958922090018714,0.16931083704236077,0.50508131835327,0.22543417954705525
415,23.823,23.6,-1.13,0.4451309012441944,0.21508104392267818,0.3972332150997879,0.169733857281017,0.5053899471488155,0.22550033150979817
416,23.886,23.66,-1.08,0.44402238104031844,0.21500858711705115,0.39854740245903536,0.17014352155672183,0.5056608012112099,0.22556475198598697
417,23.927,23.71,-1.05,0.442880059699802,0.21493783384881437,0.39983472838730555,0.17053989825933893,0.5058932748092542,0.22562761901573064
418,24.008,23.77,-1.04,0.4417042067029412,0.21486914438809396,0.40109516535328393,0.17092307041459534,0.5060867644381667,0.2256891124552846
419,24.072,23.82,-1.01,0.44049511021093135,0.21480288265708722,0.4023287012702687,0.17129313581702768,0.5062406696925332,0.22574941403792134
420,24.133,23.88,-0.97,0.4392530773620432,0.21473941616042758,0.40353533977100176,0.17165020715309143,0.50635439414485,0.22580870743597148
421,24.174,23.93,-0.97,0.43797843455330243,0.21467911591485353,0.4047151004723975,0.17199441211413585,0.5064273462281745,0.2258671783235669
422,24.216,23.99,-0.96,0.43667152770698253,0.21462235637797733,0.4058680192289867,0.1723258934989265,0.506458940121449,0.22592501443962754
423,24.279,24.04,-0.93,0.43533272252127914,0.21456951537594335,0.40699414837399206,0.17264480930538267,0.5064485966361081,0.2259824056506342
424,24.362,24.1,-0.93,0.43396240470458025,0.21452097402974357,0.4080935569470236,0.17295133281119587,0.5063957441026331,0.2260395440127318
425,24.382,24.15,-0.94,0.4325609801927816,0.214477116679924,0.4091663309074232,0.17324565264299727,0.5062998192557412,0.22609662383272142
426,24.444,24.21,-0.94,0.43112887534911504,0.21443833080938993,0.41021257333232725,0.17352797283376015,0.506160268116924,0.22615384172753036
427,24.507,24.26,-0.9,0.4296665371459503,0.2144050069640119,0.4112324045985328,0.17379851286814865,0.5059765468730572,0.22621139668178317
428,24.548,24.32,-0.9,0.42817443332800154,0.21437753867073941,0.4122259625472738,0.17405750771556064,0.5057481227497999,0.22626949010313588
429,24.588,24.37,-0.87,0.4266530525563278,0.21435632235294522,0.4131934026310292,0.1743052078506458,0.5054744748785055,0.2263283258750679
430,24.67,24.43,-0.82,0.42510290453248695,0.21434175724273877,0.4141348980415092,0.17454187926111178,0.5051550951553712,0.2263881104068409
431,24.732,24.48,-0.81,0.4235245201022163,0.21433424528998415,0.41505063981800655,0.1747678034426469,0.5047894890915973,0.22644905268033566
432,24.754,24.54,-0.8,0.42191845133807043,0.2143341910677377,0.4159408369353522,0.17498327738079736,0.5043771766533841,0.22651136429347146
433,24.814,24.59,-0.77,0.42028527160053747,0.21434200167380263,0.4168057163707781,0.17518861351963486,0.5039176930906742,0.22657525949990664
434,24.877,24.65,-0.75,0.41862557557725116,0.21435808662807954,0.41764552314907544,0.17538413971704153,0.5034105897536258,0.2266409552447239
435,24.94,24.7,-0.75,0.41693997930002363,0.2143828577653846,0.4184605203655411,0.1755701991864287,0.5028554348958809,0.22670867119582225
436,25.001,24.76,-0.76,0.4152291201395083,0.21441672912341658,0.41925098918630493,0.17574715042471276,0.5022518144637713,0.22677862977076532
437,25.042,24.81,-0.74,0.4134936567773774,0.2144601168255922,0.4200172288257209,0.17591536712639594,0.5015993328706662,0.22685105615886997
438,25.104,24.87,-0.74,0.4117342691559425,0.21451343895851394,0.4207595565005848,0.17607523808363265,0.5008976137557305,0.2269261783383572
439,25.166,24.92,-0.72,0.4099516584051791,0.21457711544388045,0.42147830736101005,0.1762271670721854,0.5001463007263985,0.22700422708843154
440,25.227,24.98,-0.68,0.40814654674713224,0.21465156790468923,0.42217383439787204,0.17637157272316695,0.499345058083898,0.2270854359961892
441,25.269,25.03,-0.7,0.40631967737772345,0.21473721952558947,0.42284650832683157,0.17650888838040651,0.49849357153120627,0.22717004145827463
442,25.309,25.09,-0.7,0.40447181432604506,0.21483449490723538,0.4234967174490724,0.1766395619431902,0.4975915488628787,0.2272582826772143
443,25.371,25.14,-0.67,0.40260374229132057,0.21494381991447895,0.4241248674890032,0.17676405569406806,0.49663872063626113,0.22735040165236572
444,25.433,25.2,-0.65,0.40071626645781055,0.21506562151824435,0.42473138140927064,0.17688284611141272,0.4956348408236645,0.22744664316544588
445,25.474,25.25,-0.67,0.39881021228803565,0.21520032763094557,0.42531669920351745,0.1769964236664434,0.49457968744514363,0.22754725476063845
446,25.535,25.31,-0.68,0.396886425294759,0.21534836693534878,0.42588127766740075,0.17710529260447314,0.4934730631815759,0.22765248671932636
447,25.618,25.36,-0.68,0.3949457707922081,0.21551016870684386,0.4264255901484659,0.1772099707101852,0.4923147959678006,0.227762592029522
448,25.639,25.42,-0.73,0.39298913362702426,0.2156861626291354,0.426950126275544,0.17731098905678624,0.49110473956563566,0.22787782635008672
449,25.7,25.47,-0.74,0.3910174178894057,0.21587677860339013,0.42745539166841157,0.1774088917389141,0.489842774116622,0.22799844796983798
450,25.763,25.53,-0.73,0.3890315466048592,0.2160824465508672,0.42794190762850487,0.17750423558919115,0.48852880667435117,0.2281247177616601
451,25.908,25.58,-0.73,0.3870324614069124,0.21630359620902437,0.42841021081152664,0.17759758987831575,0.487162771716216,0.22825689913174957
452,25.929,25.64,-0.75,0.3850211221910686,0.2165406569210501,0.4288608528828189,0.17768953599858545,0.48574463163440235,0.2283952579641584
453,25.951,25.69,-0.67,0.38299850675023583,0.2167940574187534,0.42929440015640297,0.1777806671307585,0.4842743772059299,0.22854006256083537
454,25.992,25.75,-0.67,0.3809656103918401,0.21706422559876595,0.42971143321862415,0.17787158789418972,0.48275202804156697,0.2286915835773911
455,26.033,25.8,-0.7,0.37892344553686114,0.21735158829205875,0.43011254653739095,0.17796291398020803,0.4811776330134911,0.22885009395479905
456,26.094,25.86,-0.71,0.37687304130106414,0.21765657102684835,0.430498348058058,0.17805527176873426,0.4795512706616447,0.22901586884716119
457,26.135,25.91,-0.71,0.3748154430587486,0.21797959778503506,0.43086945878705535,0.17814929792816084,0.4778730495788254,0.2291891855455392
458,26.218,25.97,-0.75,0.3727517119893721,0.2183210907523637,0.43122651236442017,0.1782456389985219,0.4761431087746155,0.22937032339774374
459,26.239,26.02,-0.79,0.37068292460743113,0.21868147006251726,0.43157015462642456,0.17834495095797792,0.47436161801828614,0.22955956372392916
460,26.3,26.08,-0.78,0.3686101722759834,0.219061153535356,0.4319010431595212,0.17844789877262934,0.4725287781608086,0.2297571897278407
461,26.362,26.13,-0.82,0.36653456070418927,0.21946055640950274,0.43221984684683856,0.17855515592966967,0.4706448214360842,0.22996348640357667
462,26.425,26.19,-0.85,0.36445720942923604,0.21988009106945708,0.4325272454084553,0.17866740395390807,0.46871001174146637,0.23017874043775594
463,26.486,26.24,-0.86,0.3623792512829949,0.22032016676741845,0.432823928936647,0.17878533190777654,0.46672464489761367,0.2304032401070116
464,26.528,26.3,-0.84,0.36030183184376113,0.22078118934002178,0.43311059742721564,0.17890963587509953,0.46468904888766044,0.23063727517077534
465,26.57,26.35,-0.88,0.35822610887345274,0.22126356092021532,0.4333879603079209,0.17904101842909417,0.4626035840756546,0.2308811367593642
466,26.63,26.41,-0.92,0.356153251740675,0.2217676796445431,0.4336567359649575,0.17918018808521807,0.46046864340417343,0.23113511725742822
467,26.691,26.46,-0.91,0.35408444083007723,0.222293939356118,0.4339176512683642,0.17932785873956159,0.4582846525710094,0.23139951018284308
468,26.754,26.52,-0.93,0.35202086693843126,0.22284272930358384,0.4341714410972085,0.17948474909351433,0.45605207018480154,0.23167461006113402
469,26.817,26.57,-0.97,0.3499637306578437,0.2234144338363603,0.4344188478653384,0.17965158206545512,0.45377138789946087,0.23196071229551724
470,26.857,26.63,-0.99,0.34791424174647273,0.22400943209646332,0.43466062104843056,0.1798290841902293,0.4514431305271978,0.2322581130326401
471,26.94,26.68,-1.0,0.345873618487071,0.22462809770718972,0.4348975167130221,0.1800179850071908,0.4490678561299204,0.23256710902408287
472,26.96,26.74,-1.02,0.34384308703361754,0.22527079845894454,0.4351302970481664,0.18021901643759125,0.4466461560887211,0.23288799748366354
473,27.023,26.79,-1.03,0.34182388074623293,0.22593789599248434,0.43535972990030924,0.1804329121521095,0.4441786551511186,0.23322107594056407
474,27.087,26.85,-1.02,0.3398172395145131,0.22662974547985,0.43558658831192115,0.18066040692933127,0.4416660114556685,0.2335666420882791
475,27.168,26.9,-1.04,0.3378244090693863,0.22734669530326443,0.4358116500643639,0.18090223600600075,0.43910891653352085,0.23392499362936947
476,27.189,26.96,-1.02,0.3358466402836074,0.22808908673225753,0.4360356972254032,0.1811591344198751,0.4365080952864778,0.2342964281159803
477,27.231,27.01,-1.02,0.3338851884610337,0.228857253599262,0.43625951570171484,0.1814318363460166,0.4338643059410962,0.234681242786054
478,27.313,27.07,-1.03,0.33194131261487153,0.2296515219738962,0.4364838947966695,0.18172107442735122,0.4311783399783866,0.23507973439512905
479,27.355,27.12,-1.08,0.3300162747351225,0.2304722098361218,0.43670962677361813,0.18202757910031012,0.4284510220386814,0.2354921990435847
480,27.395,27.18,-1.09,0.32811133904548534,0.23131962674845918,0.4369375064248418,0.18235207791635547,0.42568320980126706,0.23591893199917854
481,27.457,27.23,-1.09,0.3262277712499752,0.23219407352745217,0.437168330646272,0.18269529486019062,0.42287579383838886,0.2363602275147259
482,27.518,27.29,-1.11,0.3243668377695189,0.23309584191458704,0.43740289801802784,0.18305794966545202,0.4200296974432108,0.23681637864079227
483,27.56,27.34,-1.12,0.3225298049687572,0.23402521424688766,0.437642008390749,0.18344075712868912,0.41714587643128337,0.2372876770332964
484,27.621,27.4,-1.09,0.3207179383732591,0.23498246312741602,0.43788646247762836,0.1838444264224441,0.41422531891503533,0.23777441275593372
485,27.684,27.45,-1.11,0.31893250187734573,0.23596785109590143,0.4381370614519779,0.18426966040823625,0.41126904505079165,0.23827687407733394
486,27.726,27.51,-1.13,0.3171747569427393,0.23698163029969394,0.43839460655010254,0.18471715495022864,0.40827810675782317,0.23879534726285187
487,27.789,27.56,-1.13,0.3154459617882906,0.2380240421652054,0.4386598986792107,0.18518759823031036,0.4052535874089485,0.23933011636086968
488,27.851,27.62,-1.14,0.31374737057108665,0.23909531706995685,0.43893373803006225,0.18568167006528033,0.40219660149223274,0.23988146298346338
489,27.891,27.67,-1.18,0.3120802325593019,0.24019567401530242,0.439216923694035,0.18620004122677938,0.399108294243344,0.24044966608128523
490,27.952,27.73,-1.2,0.31044579129720384,0.24132532029987203,0.4395102532842842,0.1867433727645946,0.39598984124812947,0.24103500171254438
491,28.055,27.78,-1.2,0.30884528376273584,0.24248445119378914,0.4398145225606619,0.18731231533395648,0.39284244801496404,0.24163774280601827
492,28.075,27.84,-1.22,0.3072799395180649,0.2436732496137818,0.4401305250580537,0.18790750852745003,0.38966734951640025,0.24225815891807537
493,28.117,27.89,-1.22,0.3057509798533835,0.24489188579942622,0.4404590517177828,0.1885295802121613,0.386465809699623,0.24289651598372153
494,28.179,27.95,-1.19,0.30425961692411774,0.24614051699089676,0.4408008905216938,0.18917914587267678,0.383239120965186,0.24355307606168425
495,28.241,28.0,-1.19,0.30280705288159415,0.2474192871086884,0.4411568261285088,0.1898568079605337,0.3799886036135005,0.24422809707352916
496,28.282,28.06,-1.21,0.3013944789971732,0.2487283264358084,0.44152763951201646,0.1905631552506874,0.37671560525856634,0.244921832536779
497,28.345,28.11,-1.19,0.3000230747798781,0.2500677513029497,0.44191410760063315,0.1912987622055321,0.3734215002084763,0.2456345312919938
498,28.49,28.17,-1.18,0.29869400708760213,0.2514376637771822,0.442317002917857,0.19206418834699446,0.37010768881229067,0.2463664372237668
499,28.511,28.22,-1.19,0.2974084292320551,0.2528381513547307,0.4427370932231102,0.1928599776372179,0.36677559677294447,0.24711778897559705
500,28.531,28.28,-1.2,0.29616748007768384,0.2542692866584469,0.4431751411524571,0.19368665786836764,0.3634266744259184,0.247888819658616
501,28.552,28.33,-1.18,0.29497228313487905,0.2557311271406023,0.44363190385865997,0.19454474006210395,0.3600623959834708,0.24867975655414803
502,28.613,28.39,-1.21,0.2938239456478499,0.2572237147916279,0.4441081326500242,0.19543471787928507,0.35668425874429466,0.2494908208100774
503,28.676,28.44,-1.31,0.2927235576776,0.25874707585539897,0.44460457262745745,0.19635706704046552,0.3532937822685206,0.25032222713097546
504,28.738,28.5,-1.28,0.2916721911804697,0.26030122055162797,0.4451219623191408,0.19731224475775064,0.349892507518031,0.25117418346193887
505,28.779,28.55,-1.27,0.2906708990827492,0.2618861428058933,0.4456610333121977,0.19830068917855387,0.34648199596206986,0.2520468906661707
506,28.841,28.61,-1.29,0.2897207143519245,0.2635018199877942,0.4462225098807531,0.19932281884177724,0.34306382864811813,0.2529405421965411
507,28.903,28.66,-1.26,0.28882264906520866,0.2651482126577015,0.4468071086098019,0.20037903214691266,0.3396396052379848,0.253855323761642
508,28.964,28.72,-1.25,0.2879776934761067,0.26682526432257053,0.4474155380143426,0.20146970683654153,0.33621094300907134,0.2547914129870813
509,29.005,28.77,-1.28,0.2871868150798556,0.26853290120129536,0.4480484981532744,0.20259519949270752,0.3327794758208266,0.2557489790728903
510,29.045,28.83,-1.29,0.2864509576786477,0.2702710320001156,0.44870668023757276,0.20375584504764424,0.3293468530464896,0.2567281824479635
511,29.15,28.88,-1.28,0.2857710404475766,0.2720395476986219,0.4493907662322848,0.20495195630934784,0.32591473847030944,0.257729174422457
512,29.17,28.94,-1.31,0.2851479570022497,0.2738383213469173,0.4501014284519015,0.20618382350247516,0.32248480915050975,0.2587520968390636
513,29.211,28.99,-1.33,0.28458257446899643,0.27566720787447946,0.45083932914868874,0.2074517138250193,0.31905875424832575,0.25979708172406846
514,29.274,29.05,-1.31,0.28407573255856744,0.2775260439112351,0.4516051200935858,0.20875587102117457,0.31563827382349147,0.2608642509390592
515,29.336,29.1,-1.3,0.28362824264419295,0.27941464762131,0.45239944214929817,0.2100965149707604,0.31222507759660323,0.26195371583413896
516,29.378,29.16,-1.3,0.28324088684485854,0.2813328185498526,0.4532229248352527,0.21147384129553354,0.30882088367883787,0.2630655769034681
517,29.44,29.21,-1.27,0.28291441711468684,0.28328033748328435,0.45407618588410914,0.21288802098269818,0.30542741726957334,0.26419992344396154
518,29.523,29.27,-1.24,0.2826495543393836,0.2852569663233213,0.4549598307895655,0.21433920002592896,0.3020464093225611,0.2653568332179592
519,29.544,29.32,-1.27,0.28244698744079866,0.2872624479751174,0.4558744523452265,0.21582749908423982,0.29867959518142345,0.2665363721206626
520,29.606,29.38,-1.28,0.2823073724907564,0.28929650624989656,0.4568206301743546,0.2173530131590516,0.2953287131853958,0.26773859385306287
521,29.648,29.43,-1.27,0.2822313318354023,0.2913588457824435,0.4577989302503602,0.21891581128982338,0.2919955032463824,0.2689635396009918
522,29.71,29.49,-1.28,0.28221945323139547,0.29344915196379884,0.4588099044079423,0.22051593626861607,0.28868170539853316,0.2702112377208502
523,29.772,29.54,-1.3,0.28227228899534057,0.29556709088947236,0.4598540898448415,0.22215340437394687,0.2853890583216583,0.2714817034325277
524,29.833,29.6,-1.29,0.28239035516787525,0.29771230932346676,0.4609320086142212,0.22382820512429058,0.2821192978398958,0.2727749385200131
525,29.895,29.65,-1.28,0.2825741306938447,0.29988443467840487,0.4620441671077475,0.22554030105158468,0.27887415539714355,0.2740909310401776
526,29.958,29.71,-1.3,0.2828240566199863,0.3020830750120693,0.46319105552950257,0.22728962749509887,0.27565535651086515,0.2754296550401962
527,29.979,29.76,-1.32,0.2831405353115718,0.3043078190406947,0.46437314736095275,0.22907609241603064,0.2724646192059871,0.27679107028405253
528,30.041,29.82,-1.31,0.28352392968948975,0.30655823616938327,0.4655908988172902,0.23089957623318175,0.2693036524307193,0.27817512198855077
529,30.103,29.87,-1.36,0.2839745624893269,0.30883387654003813,0.4668447482955821,0.2327599316800501,0.26617415445625175,0.279581740569223
530,30.165,29.93,-1.39,0.2844927155440774,0.3111342710972083,0.46813511581526424,0.2346569836836381,0.26307781126238367,0.28101084139648386
531,30.249,29.98,-1.4,0.28507862909216797,0.3134589316722145,0.4694624024516055,0.23659052926524352,0.26001629491123246,0.28246232456235876
532,30.27,30.04,-1.44,0.2857325011125275,0.3158073510858806,0.47082698976284315,0.23856033746346506,0.25699126191123844,0.28393607465809484
533,30.332,30.09,-1.49,0.2864544866884447,0.31817900327013704,0.4722292392117583,0.24056614927962713,0.25400435157372536,0.2854319605629738
534,30.394,30.15,-1.53,0.2872446974019253,0.3205733434087274,0.47366949158251354,0.24260767764581376,0.2510571843643137,0.2869498352446597
535,30.435,30.2,-1.55,0.28810320076020013,0.3229898080972246,0.47514806639361146,0.24468460741571088,0.2481513602515014,0.2884895355714298
536,30.476,30.26,-1.59,0.28903001965593433,0.3254278155225462,0.47666526130786213,0.24679659537846987,0.2452884570547321,0.2900508821366454
537,30.539,30.31,-1.62,0.29002513186257634,0.3278867656621387,0.4782213515402629,0.2489432702958305,0.24247002879425825,0.29163367909582494
538,30.621,30.37,-1.62,0.29108846956615536,0.3303660405029806,0.479816589264719,0.2511242329627508,0.23969760404510096,0.2932377140166865
539,30.643,30.42,-1.66,0.2922199189347495,0.3328650042805265,0.4814512030205665,0.2533390562917899,0.23697268429740082,0.29486275774252485
540,30.706,30.48,-1.7,0.293419319726796,0.33538300373767566,0.4831253971199038,0.2555872854214605,0.23429674232546582,0.29650856426929467
541,30.767,30.53,-1.72,0.2946864649393994,0.33791936840380893,0.48483935105680254,0.2578684378487136,0.23167122056783043,0.29817487063677595
542,30.809,30.59,-1.75,0.296021100497783,0.34047341089391303,0.4865932189195595,0.2601820035856136,0.2290975295206526,0.29986139683420315
543,30.872,30.64,-1.8,0.2974229249870196,0.3430444272277846,0.48838712880726465,0.2625274453401428,0.22657704614677843,0.3015678457207481
544,30.933,30.7,-1.84,0.29889158942714134,0.3456316971693084,0.4902211822520583,0.2649041987209758,0.2241111123027999,0.3032939029612611
545,31.016,30.75,-1.85,0.3004266970926866,0.3482344845858036,0.492095453648515,0.2673116724660317,0.22170103318641898,0.30503923697768814
546,31.058,30.81,-1.9,0.30202780337768215,0.35085203782742275,0.4940099896916242,0.2697492486946027,0.2193480758064083,0.30680349891659064
547,31.08,30.86,-1.93,0.3036944157069965,0.35348359012654856,0.4959648088248593,0.27221628318286767,0.21705346747742346,0.3085863226331965
548,31.142,30.92,-1.94,0.3054259934949276,0.3561283600170735,0.4979599006998274,0.2747121056625914,0.21481839434188538,0.3103873246923974
549,31.204,30.97,-1.97,0.3072219481518112,0.3587855517733791,0.4999952256489966,0.277236020142799,0.2126439999211148,0.31220610438708457
550,31.265,31.03,-2.02,0.30908164313937153,0.3614543558687695,0.5020707141729854,0.2797873052542041,0.21053138369787308,0.3140422437741978
551,31.368,31.08,-2.05,0.311004394075465,0.3641339494530772,0.5041862664438759,0.28236521461617087,0.208481599732434,0.3158953077288464
552,31.389,31.14,-2.08,0.31298946888879775,0.36682349684915555,0.5063417518259852,0.2849689772260021,0.20649565531428304,0.3177648440168576
553,31.432,31.19,-2.12,0.3150360880241096,0.36952215006797984,0.5085370084155082,0.28759779787036677,0.2045745096515002,0.3196503833861153
554,31.472,31.25,-2.18,0.3171434246982145,0.3722290493420963,0.5107718426004138,0.29025085755869817,0.20271907259982241,0.32155143967706695
555,31.535,31.3,-2.2,0.31931060520717464,0.374943323677164,0.5130460286419585,0.2929273139784056,0.20093020343332366,0.3234675099527795
556,31.617,31.36,-2.25,0.3215367092847544,0.3776640914213103,0.5153593082791467,0.2956263019717302,0.19920870965857188,0.3253980746489066
557,31.638,31.41,-2.28,0.32382077051214914,0.3803904608519607,0.5177113903574196,0.2983469340340424,0.19755534587403772,0.32734259774389063
558,31.721,31.47,-2.27,0.32616177677881586,0.38312153077971034,0.5201019504827779,0.3010883008333339,0.19597081267643454,0.3293005269496761
559,31.742,31.52,-2.29,0.32855867079407675,0.38585639116870124,0.5225306307024519,0.3038494717506005,0.19445575561557324,0.33127129392315635
560,31.805,31.58,-2.31,0.331010350649039,0.388594123772873,0.5249970392131392,0.3066294954407683,0.1930107641992392,0.33325431449853393
561,31.847,31.63,-2.31,0.3335156704282862,0.3913338027873894,0.5275007500977328,0.3094274004137673,0.19163637094954222,0.3352489889407236
562,31.91,31.69,-2.32,0.33607344087074287,0.39407449551450685,0.5300413030913759,0.31224219563531724,0.19033305051215801,0.33725470221987813
563,31.972,31.74,-2.36,0.3386824300790826,0.3968152630431234,0.5326182033776159,0.31507287114694404,0.18910121881986344,0.3392708243070524
564,32.033,31.8,-2.39,0.34134136427702605,0.3995551609412326,0.5352309214153641,0.3179183987047086,0.1879412323117504,0.3412967104909589
565,32.095,31.85,-2.4,0.34404892861383146,0.40229323996049177,0.5378788927973183,0.3207777324360961,0.18685338720948644,0.34333170171570193
566,32.157,31.91,-2.42,0.34680376801523605,0.4050285467520791,0.5405615181404576,0.3236498095144804,0.18583791885195453,0.34537512493930683
567,32.198,31.96,-2.45,0.349604488080032,0.4077601245929617,0.5432781630091778,0.3265335508505337,0.18489500108954854,0.3474262935127974
568,32.258,32.02,-2.44,0.3524496560213926,0.41048701412163485,0.546028157871594,0.32942786179991046,0.1840247457393356,0.34948450757950733
569,32.319,32.07,-2.46,0.3553378016520122,0.4132082540823356,0.54881079808952,0.3323316328864877,0.18322720210223542,0.35154905449425816
570,32.381,32.13,-2.5,0.35826741841211585,0.41592288207667777,0.5516253439426089,0.33524374054040273,0.18250235654331062,0.35361920926198764
571,32.483,32.18,-2.52,0.3612369644394033,0.41862993532163806,0.5544710206871228,0.338163047850101,0.1818501321362185,0.35569423499538066
572,32.504,32.24,-2.52,0.3642448636799891,0.4213284514128311,0.5573470186497886,0.3410884053275907,0.1812703883728249,0.3577733833910291
573,32.566,32.29,-2.56,0.36728950703938534,0.4240174690920434,0.560252493357157,0.34401865168609386,0.1807629209389233,0.3598558952236334
574,32.586,32.35,-2.59,0.3703692535725294,0.4266960290180175,0.5631865657008497,0.3469526146292741,0.18032746155693047,0.3619410008577339
575,32.628,32.4,-2.6,0.3734824317118022,0.4293631745394937,0.5661483221390256,0.34988911165121944,0.1799636778963582,0.36402792077642226
576,32.69,32.46,-2.62,0.37662734053190805,0.43201795246949953,0.5691368149343389,0.35282695084634597,0.17967117355278123,0.3661158661264282
577,32.731,32.51,-2.64,0.37980225105039334,0.4346594138598513,0.5721510624286029,0.35576493172837953,0.17944948809593383,0.368204039278925
578,32.836,32.57,-2.63,0.3830054075624597,0.4372866147748086,0.575190049354298,0.35870184605756905,0.17929809718747883,0.37029163440536844
579,32.857,32.62,-2.64,0.3862350290086066,0.4398986170628303,0.5782527271829951,0.3616364786753007,0.1792164127689081,0.3723778380676739
580,32.898,32.68,-2.67,0.3894893103735506,0.44249448912540174,0.5813380145107069,0.3645676083453066,0.1792037833199679,0.374461829822047
581,32.959,32.73,-2.67,0.3927664241148381,0.4450733066819426,0.5844447974801049,0.3674940086007027,0.17925949418794054,0.37654278283581255
582,33.02,32.79,-2.66,0.3960645216195873,0.4476341535298565,0.5875719302394738,0.3704144485961384,0.17938276798806124,0.3786198645166153
583,33.063,32.84,-2.7,0.39938173468784505,0.4501761222988256,0.5907182354381764,0.37332769396438864,0.17957276507529107,0.38069223715338313
584,33.125,32.9,-2.72,0.40271617704109425,0.4526983151984642,0.5938825047583249,0.3762325076767484,0.17982858408760577,0.38275905856844555
585,33.188,32.95,-2.74,0.4060659458544746,0.45519984475843756,0.5970634994822616,0.37912765090660866,0.18014926256089386,0.38481948278018285
586,33.25,33.01,-2.74,0.4094291233112875,0.45767983456010763,0.600259951095362,0.3820118838955926,0.1805337776154864,0.38687266067556286
587,33.312,33.06,-2.71,0.4128037781783419,0.4601374199587412,0.6034705619236036,0.38488396682163284,0.18098104671425225,0.3889177406919137
588,33.352,33.12,-2.71,0.41618796740067254,0.4625717487953079,0.6066940058052925,0.38774266066837465,0.18148992849210524,0.39095386950727096
589,33.414,33.17,-2.72,0.4195797377141563,0.46498198209693714,0.6099289287963438,0.3905867280953033,0.18205922365669172,0.39298019273861184
590,33.477,33.23,-2.77,0.4229771272745775,0.467367294765175,0.6131739499085664,0.39341493430802754,0.18268767595998547,0.39499585564721634
591,33.58,33.28,-2.8,0.4263781673017505,0.4697268762512888,0.6164276618804805,0.39622604792819627,0.18337397324048318,0.3970000038503148
592,33.601,33.34,-2.8,0.42978088373736717,0.4720599312179979,0.6196886319802689,0.39901884186258485,0.18411674853564547,0.3989917840381326
593,33.622,33.39,-2.86,0.4331832989152894,0.4743656801871257,0.6229554028405377,0.40179209417091966,0.1849145812641393,0.40097034469543186
594,33.683,33.45,-2.9,0.43658343324303606,0.47664336017275133,0.6262264933246166,0.40454458893202094,0.18576599847731104,0.4029348368266689
595,33.766,33.5,-2.91,0.4399793068932241,0.47889222529949965,0.6295003994241872,0.40727511710782466,0.1866694761791723,0.4048844146839036
596,33.787,33.56,-2.94,0.44336894150371026,0.4811115474056345,0.6327755951880701,0.40998247740482274,0.18762344071401907,0.4068182364966344
597,33.869,33.61,-3.0,0.4467503618851455,0.4833006166306417,0.6360505336820178,0.4126654771324408,0.18862627022062634,0.4087354652027889
598,33.931,33.67,-3.02,0.4501215977345747,0.4854587419870391,0.6393236479793388,0.4153229330578822,0.18967629615177528,0.4106352691801749
599,33.952,33.72,-3.0,0.4534806853535929,0.48758525191623764,0.6425933521821307,0.4179536722570053,0.19077180485767642,0.4125168229777609
600,34.014,33.78,-3.02,0.45682566936943575,0.4896794948283679,0.6458580424728105,0.4205565329608554,0.19191103923165906,0.4143793080462288
601,34.055,33.83,-3.04,0.46015460445728135,0.4917408396260627,0.649116098195561,0.4231303653975328,0.19309220041630804,0.4162219134673107
602,34.117,33.89,-3.01,0.4634655570619986,0.4937686762122328,0.6523658829672035,0.4256740326291457,0.1943134495680629,0.4180438366814756
603,34.18,33.94,-3.02,0.4667566071175987,0.4957624159818893,0.6556057458169359,0.4281864113836412,0.1955729096781539,0.4198442842135693
604,34.242,34.0,-3.03,0.4700258497626956,0.4977214922980736,0.658834022354285,0.4306663928813471,0.19686866744762205,0.4216224723960315
605,34.304,34.05,-3.03,0.47327139705033355,0.49964536095198236,0.6620490359645651,0.4331128836560819,0.1981987752140556,0.42337762808933405
606,34.345,34.11,-3.02,0.4764913796505717,0.5015335006074297,0.6652490990310812,0.43552480637071966,0.19956125292756852,0.42510898939930625
607,34.409,34.16,-3.03,0.4796839485442361,0.50338541322986,0.6684325141832697,0.4379011006271208,0.2009540901734401,0.4268158063910423
608,34.45,34.22,-3.04,0.4828472767062347,0.5052006245001932,0.6715975755699096,0.44024072377037693,0.20237524823871972,0.42849734179911336
609,34.511,34.27,-3.0,0.48597956077680377,0.5069786842138204,0.6747425701564437,0.44254265168735946,0.20382266221998754,0.43015287173383004
610,34.573,34.33,-3.0,0.4890790227190394,0.5087191666650005,0.677865779045345,0.444805879599593,0.2052942431693441,0.43178168638330033
611,34.655,34.38,-2.99,0.49214391146106884,0.5104216710168078,0.6809654788183584,0.4470294228504874,0.20678788027559605,0.43338309071101944
612,34.675,34.44,-2.96,0.4951725045212402,0.5120858216566556,0.6840399428993496,0.4492123176869524,0.2083014430775117,0.43495640514870604
613,34.717,34.49,-2.95,0.49816310961474214,0.5137112685373555,0.6870874429364363,0.4513536220353865,0.20983278370594433,0.4365009662840853
614,34.779,34.55,-2.94,0.5011140662400929,0.5152976875036321,0.6901062502020313,0.4534524162719872,0.21137973915155886,0.43801612754330677
615,34.821,34.6,-2.92,0.5040237472439448,0.5168447806040355,0.6930946370093919,0.45550780398729324,0.21294013355483596,0.4395012598676906
616,34.884,34.66,-2.89,0.5068905603626429,0.5183522763882186,0.6960508781442298,0.457518912744843,0.2145117805149741,0.4409557523845062
617,34.946,34.71,-2.9,0.509712949738958,0.5198199301895873,0.6989732523098898,0.45948489483381993,0.21609248541425724,0.4423790130714942
618,35.028,34.77,-2.91,0.5124893974123789,0.5212475243933498,0.7018600435845452,0.46140492801554084,0.21768004775440297,0.44377046941483744
619,35.049,34.82,-2.86,0.5152184247812711,0.5226348686900048,0.7047095428887893,0.46327821626362514,0.21927226350135517,0.4451295690602572
620,35.112,34.88,-2.84,0.5178985940351024,0.5239818003143012,0.707520049461908,0.46510399049765194,0.22086692743491723,0.4464557804568749
621,35.195,34.93,-2.81,0.5205285095547996,0.525288184269664,0.7102898723450289,0.4668815093100702,0.22246183549955367,0.44774859349343726
622,35.215,34.99,-2.75,0.5231068192791937,0.5265539135380393,0.71301733186924,0.4686100596860895,0.22405478715263086,0.4490075201264641
623,35.278,35.04,-2.71,0.5256322160354463,0.5277789092750532,0.715700761146712,0.470288957716228,0.22564358770633808,0.45023209499983624
624,35.318,35.1,-2.68,0.52810343883137,0.5289631209903386,0.7183385075628297,0.4719175493011369,0.22722605065953935,0.45142187605530565
625,35.401,35.15,-2.64,0.5305192741076071,0.5301065267128672,0.7209289342673538,0.47349521084824714,0.2288000000158443,0.45257644513337475
626,35.462,35.21,-2.59,0.5328785569477004,0.5312091331411234,0.7234704216626585,0.4750213499597195,0.2303632725842388,0.45369540856395474
627,35.483,35.26,-2.57,0.5351801722441607,0.5322709757779478,0.725961368887122,0.47649540611110464,0.23191372025868598,0.4547783977461727
628,35.545,35.32,-2.55,0.5374230558186855,0.5332921190498543,0.7284001952917697,0.4779168513200406,0.23344921227316906,0.4558250697166652
629,35.608,35.37,-2.49,0.5396061954947201,0.5342726564105785,0.7307853419082807,0.47928519080423293,0.23496763742871526,0.456835107705655
630,35.648,35.43,-2.44,0.5417286321205657,0.5352127104285679,0.7331152729064588,0.4805999636278798,0.23646690628899292,0.4578082216800654
631,35.711,35.48,-2.4,0.5437894605412343,0.536112432858052,0.7353884770392455,0.48186074333562945,0.2379449533411325,0.4587441488728764
632,35.771,35.54,-2.33,0.5457878305172593,0.5369720046932737,0.7376034690733156,0.48306713857309613,0.23939973911849224,0.45964265429789214
633,35.833,35.59,-2.27,0.5477229475887111,0.5377916362054289,0.739758791203294,0.4842187936929215,0.2408292522821897,0.4605035312490644
634,35.875,35.65,-2.25,0.5495940738827798,0.5385715669618697,0.7418530144476455,0.485315389345352,0.24223151165835022,0.46132660178351254
635,35.937,35.7,-2.21,0.5514005288634135,0.5393120658271685,0.7438847400243062,0.4863566430523144,0.24360456822816587,0.46211171718738575
636,35.999,35.76,-2.16,0.5531416900216615,0.5400134309456983,0.7458526007041159,0.4873423097640135,0.24494650706801485,0.46285875842370783
637,36.04,35.81,-2.16,0.5548169935055205,0.5406759897054164,0.7477552621401294,0.48827218239711395,0.24625544923703385,0.4635676365613308
638,36.144,35.87,-2.15,0.556425934688209,0.5413000986825673,0.7495914241709097,0.48914609235358397,0.2475295536096717,0.4642382931841187
639,36.163,35.92,-2.13,0.5579680686738827,0.541886143567034,0.7513598220959612,0.48996391001926626,0.24876701865086753,0.4648707007794725
640,36.204,35.98,-2.11,0.559443010739849,0.5424345390680716,0.7530592279215402,0.4907255452411598,0.24996608413159402,0.465464863105311
641,36.266,36.03,-2.08,0.5608504367143606,0.542945728800143,0.7546884515751858,0.49143094778226215,0.2511250327825826,0.4660208155346213
642,36.329,36.09,-2.04,0.5621900832890466,0.5434201851485689,0.7562463420874211,0.4920801077526734,0.25224219188411107,0.4665386253766966
643,36.371,36.14,-1.97,0.5634617482650134,0.543858409114708,0.7577317887391453,0.49267305601557654,0.25331593478980774,0.46701839217416286
644,36.433,36.2,-1.96,0.5646652907316435,0.5442609301404047,0.7591437221732815,0.4932098645666872,0.25434468238251856,0.4674602479748819
645,36.516,36.25,-1.93,0.5658006311771557,0.544628305911468,0.7604811154692879,0.4936906468857828,0.25532690446040945,0.46786435757778755
646,36.537,36.31,-1.86,0.5668677515300782,0.5449611221399778,0.7617429851791994,0.49411555825893805,0.2562611210516255,0.4682309187516908
647,36.578,36.36,-1.82,0.5678666951309148,0.5452599923252109,0.7629283923239709,0.4944847960701081,0.2571459036559919,0.46856016242608034
648,36.641,36.42,-1.81,0.5687975666334496,0.5455255574929483,0.7640364433489897,0.4947986000607074,0.25797987641241216,0.46885235285297117
649,36.704,36.47,-1.78,0.5696605318352974,0.5457584859128949,0.7650662910377587,0.49505725255587774,0.2587617171907938,0.46910778773890444
650,36.745,36.53,-1.76,0.5704558174374819,0.5459594727939634,0.7660171353828671,0.49526107865621205,0.2594901586075126,0.46932679834625984
651,36.807,36.58,-1.74,0.5711837107329729,0.5461292399572334,0.7668882244134891,0.49541044639381204,0.2601639889636044,0.46950974956312214
652,36.869,36.64,-1.71,0.5718445592242657,0.5462685354864995,0.7676788549787316,0.49550576685169356,0.2607820531050272,0.4696570399410266
653,36.932,36.69,-1.66,0.5724387701702223,0.5463781333564198,0.7683883734862141,0.49554749424570205,0.2613432532044873,0.46976910170000163
654,36.995,36.75,-1.66,0.5729668100625658,0.5464588330383695,0.76901617659532,0.4955361259682208,0.26184654946445984,0.46984640070041406
655,37.036,36.8,-1.65,0.5734292040326109,0.5465114590841632,0.7695617118646176,0.49547220259304847,0.26229096074119523,0.4698894363811997
656,37.099,36.86,-1.62,0.573826535189042,0.5465368606878558,0.7700244783530389,0.49535630784090584,0.2626755650896572,0.46989874166413864
657,37.161,36.91,-1.61,0.5741594438877728,0.5465359112258668,0.7704040271744786,0.49518906850510225,0.2629995002295028,0.46987488282390905
658,37.243,36.97,-1.61,0.5744286269351455,0.5465095077757001,0.7706999620055707,0.4949711543369723,0.2632619639323642,0.4698184593237378
659,37.264,37.02,-1.59,0.5746348367259037,0.5464585706136066,0.7709119395464643,0.494703277890787,0.26346221433083583,0.46973010361657064
660,37.305,37.08,-1.59,0.5747788803175128,0.546384042691633,0.7710396699345098,0.49438619432794206,0.26359957014970503,0.4696104809117854
661,37.368,37.13,-1.57,0.5748616184425147,0.5462868890946019,0.7710829171108257,0.4940207011803274,0.26367341086009616,0.46946028890756625
662,37.431,37.19,-1.57,0.5748839644606766,0.5461680964776631,0.7710414991397825,0.49360763807287117,0.26368317675731556,0.4692802574891382
663,37.493,37.24,-1.53,0.5748468832527417,0.5460286724851148,0.7709152884814685,0.4931478864053424,0.26362836896330516,0.4690711483931162
664,37.534,37.3,-1.52,0.5747513900576137,0.5458696451512237,0.7707042122172294,0.4926423689935677,0.26350854935473794,0.4688337548382485
665,37.617,37.35,-1.51,0.5745985492548501,0.5456920622837604,0.7704082522284145,0.4920920496702635,0.26332334041792643,0.4685689011228682
666,37.638,37.41,-1.49,0.5743894730944211,0.5454969908309618,0.7700274453285446,0.4914979328457226,0.2630724250318633,0.46827744218939193
667,37.699,37.46,-1.48,0.5741253203758225,0.5452855162326122,0.7695618833492276,0.4908610630286186,0.26275554618087354,0.4679602631562616
668,37.741,37.52,-1.5,0.5738072950788063,0.5450587417559438,0.769011713180275,0.4901825243072383,0.26237250659851635,0.4676182788177887
669,37.823,37.57,-1.5,0.5734366449481615,0.5448177878170726,0.7683771367645744,0.48946343979152274,0.26192316834453033,0.46725243311244985
670,37.885,37.63,-1.5,0.5730146600351418,0.5445637912887209,0.7676584110483534,0.488704971016392,0.2614074523167578,0.4668636985602718
671,37.907,37.68,-1.54,0.5725426711982706,0.5442979047949943,0.7668558478875331,0.4879083173069301,0.2608253377001025,0.46645307567004013
672,37.97,37.74,-1.55,0.5720220485663862,0.5440212959939609,0.7659698139109269,0.4870747151060977,0.2601768613546781,0.4660215923171421
673,38.011,37.79,-1.53,0.5714541999668868,0.5437351468487401,0.7650007303410781,0.4862054372657182,0.25946211714538286,0.46557030309292446
674,38.073,37.85,-1.52,0.5708405693222234,0.5434406528877482,0.7639490727735554,0.48530179230154313,0.25868125521520446,0.4651002886264844
675,38.135,37.9,-1.55,0.5701826350177243,0.5431390224546981,0.7628153709155571,0.4843651236132522,0.25783448120462726,0.46461265487984155
676,38.176,37.96,-1.55,0.5694819082438848,0.5428314759489288,0.7616002082847073,0.48339680867029844,0.2569220554195893,0.4641085324174735
677,38.237,38.01,-1.56,0.568739931316281,0.5425192450566435,0.760304221868982,0.48239825816457244,0.25594429195053026,0.46358907565120866
678,38.34,38.07,-1.59,0.5679582759763381,0.5422035719736435,0.7589281017487781,0.48137091513091035,0.2549015577451576,0.46305546206150633
679,38.361,38.12,-1.61,0.5671385416762227,0.5418857086201524,0.757472590682217,0.48031625403650696,0.25379427163763896,0.46250889139617096
680,38.403,38.18,-1.62,0.5662823538511671,0.5415669158483294,0.7559384836548513,0.47923577984031346,0.252622903336994,0.46195058484756657
681,38.464,38.23,-1.68,0.5653913621825422,0.5412484626430543,0.7543266273950083,0.4781310270235038,0.25138797237751326,0.46138178420938536
682,38.527,38.29,-1.73,0.5644672388549656,0.5409316253165328,0.7526379198560421,0.47700355859208904,0.2500900470340675,0.46080375101399823
683,38.568,38.34,-1.74,0.5635116768106537,0.5406176866972326,0.750873309666775,0.47585496505276087,0.2487297432051771,0.46021776565138145
684,38.65,38.4,-1.77,0.5625263880041071,0.540307935313606,0.7490337955514086,0.47468686336303684,0.24730772326669936,0.459625126470586
685,38.713,38.45,-1.81,0.5615131016600922,0.5400036645729895,0.7471204257201727,0.47350089585677585,0.24582469489895062,0.4590271488647072
686,38.734,38.51,-1.84,0.560473562537755,0.5397061719360159,0.7451342972320056,0.47229872914612575,0.24428140989003577,0.4584251643403244
687,38.796,38.56,-1.84,0.5594095292036256,0.539416758086851,0.743076555330586,0.47108205300097483,0.24267866291812587,0.45782051957240394
688,38.858,38.62,-1.89,0.5583227723162196,0.5391367260995594,0.7409483927550845,0.46985257920699286,0.24101729031539285,0.4572145754456857
689,38.899,38.67,-1.94,0.5572150729249008,0.5388673806009204,0.7387510490270355,0.4686120404033753,0.2392981688162845,0.45660870608359644
690,38.941,38.73,-1.95,0.5560882207856062,0.5386100269300188,0.7364858097147405,0.4673621889014238,0.23752221429278791,0.45600429786574176
691,39.005,38.78,-2.0,0.5549440126959538,0.5383659702949388,0.7341540056766083,0.4661047954851064,0.2356903804792867,0.45540274843501816
692,39.107,38.84,-2.04,0.553784250852151,0.5381365149268886,0.731757012284844,0.464841648194725,0.23380365768956413,0.4548054656953747
693,39.128,38.89,-2.05,0.5526107412299663,0.5379229632321268,0.7292962486309067,0.4635745510947946,0.2318630715284389,0.45421386680122766
694,39.209,38.95,-2.08,0.5514252919918642,0.5377266149421235,0.7267731767141565,0.462305323027209,0.22986968160044907,0.45362937713950924
695,39.23,39.0,-2.12,0.5502297119222292,0.53754876626244,0.7241893006151189,0.46103579635073816,0.22782458021792382,0.4530534293053041
696,39.293,39.06,-2.15,0.549025808892482,0.537390709020838,0.7215461656547592,0.4597678156679029,0.22572889111070843,0.4524874620720257
697,39.356,39.11,-2.16,0.5478153883577978,0.5372537298151445,0.7188453575411012,0.45850323654028574,0.22358376813973818,0.4519329193570854
698,39.439,39.17,-2.22,0.5466002518870673,0.5371391091613942,0.7160885015044703,0.4572439241933627,0.22139039401658903,0.4513912491840127
699,39.46,39.22,-2.28,0.5453821957276657,0.5370481206427501,0.7132772614225668,0.45599175221193605,0.21914997903105427,0.4508639026419732
700,39.501,39.28,-2.31,0.5441630094064831,0.5369820300596619,0.7104133389365156,0.4547486012272394,0.21686375978871186,0.45035233284359527
701,39.563,39.33,-2.35,0.542944474368548,0.5369420945816655,0.7074984725589598,0.45351635759676745,0.2145329979603449,0.4498579938819758
702,39.626,39.39,-2.41,0.5417283626544085,0.5369295619011711,0.704534436775195,0.4522969120778612,0.212158979044955,0.44938233978770337
703,39.668,39.44,-2.43,0.5405164356172616,0.5369456693895569,0.701523041138261,0.45109215849606765,0.20974301114796315,0.4489268234867316
704,39.731,39.5,-2.43,0.5393104426805988,0.5369916432558676,0.6984661293588232,0.44990399240928064,0.20728642377603848,0.44849289575992557
705,39.813,39.55,-2.48,0.5381121201369317,0.5370686977084205,0.695365578390572,0.4487343097686726,0.2047905666498521,0.4480820042051068
706,39.834,39.61,-2.5,0.5369231899879884,0.5371780341196183,0.6922232975117715,0.447585005577435,0.20225680853591607,0.4476955922024178
707,39.897,39.66,-2.49,0.5357453588266433,0.537320840194272,0.6890412274034707,0.4464579725483548,0.19968653609855372,0.44733509788381665
708,39.938,39.72,-2.53,0.5345803167607686,0.5374982891417224,0.6858213392247902,0.445355099761252,0.19708115277294805,0.44700195310748225
709,40.0,39.77,-2.57,0.533429736379138,0.5377115388520098,0.6825656336856021,0.44427827132126907,0.19444207766012125,0.4466975824378544
710,40.062,39.83,-2.58,0.5322952717594427,0.5379617310762995,0.6792761401168248,0.4432293650189632,0.19177074444461006,0.4464234021319688
711,40.104,39.88,-2.61,0.5311785575183758,0.5382499906117248,0.6759549155384502,0.4422102509931053,0.1890686003355121,0.4461808191326782
712,40.208,39.94,-2.64,0.5300812079036442,0.5385774244907732,0.6726040437253173,0.4412227903970478,0.18633710503147924,0.44597123006929873
713,40.229,39.99,-2.65,0.529004815927621,0.5389451211753283,0.6692256342705322,0.44026883406949513,0.18357772971012365,0.44579602026619686
714,40.271,40.05,-2.64,0.5279509525422081,0.539354149755502,0.6658218216463172,0.4393502212104922,0.18079195604219309,0.44565656275981747
715,40.331,40.1,-2.68,0.5269211658543437,0.5398055591534152,0.6623947642619584,0.4384687780634464,0.17798127523076654,0.44555421732465866
716,40.373,40.16,-2.7,0.5259169803814968,0.5403003773321153,0.6589466435184139,0.43762631660400125,0.1751471870756347,0.4454903295087104
717,40.434,40.21,-2.7,0.5249398963464333,0.5408396105098309,0.6554796628590465,0.436824633236594,0.17229119906294404,0.44546622967889743
718,40.578,40.27,-2.73,0.5239913890105056,0.5414242423797655,0.6519960468158608,0.43606550749954437,0.1694148254801086,0.44548323207708285
719,40.598,40.32,-2.77,0.5230729080446752,0.5420552333356365,0.6484980400505652,0.43535070077951293,0.16651958655590612,0.4455426338871964
720,40.618,40.38,-2.79,0.5221858769374053,0.5427335197031836,0.6449879063897164,0.43468195503616797,0.16360700762558605,0.4456457143140535
721,40.66,40.43,-2.81,0.521331692438457,0.5434600129779248,0.6414679278531683,0.4340609915378912,0.16067861832071928,0.4457937336744148
722,40.723,40.49,-2.83,0.5205117240375025,0.5442355990695078,0.6379404036749985,0.43348950960935273,0.15773595178340716,0.4459879325008218
723,40.764,40.54,-2.84,0.5197273134763147,0.5450611375530775,0.63440764931604,0.4329691853918038,0.15478054390434987,0.44622953065872434
724,40.826,40.6,-2.81,0.5189797742931341,0.5459374609281453,0.6308719954670955,0.4325016706169417,0.15181393258415699,0.4465197264773773
725,40.908,40.65,-2.84,0.5182703913976786,0.5468653738854987,0.6273357870418682,0.4320885913952108,0.14883765701717946,0.44685969589492547
726,40.929,40.71,-2.85,0.517600420675195,0.5478456525827345,0.6238013821586289,0.4317315470193791,0.14585325699706206,0.4472505916180318
727,40.991,40.76,-2.84,0.5169710886179275,0.5488790439290546,0.6202711511096306,0.43143210878419913,0.14286227224315964,0.44769354229632385
728,41.051,40.82,-2.84,0.5163835919824185,0.549966264880001,0.6167474753173005,0.4311918188229108,0.13986624174691797,0.4481896517118745
729,41.092,40.87,-2.86,0.5158390974711156,0.5511080017428217,0.6132327462762608,0.4310121889612946,0.13686670313727559,0.4487399979838822
730,41.156,40.93,-2.86,0.51533874143684,0.5523049094931366,0.6097293644802648,0.43089469958993337,0.13386519206410574,0.449345632788689
731,41.217,40.98,-2.85,0.5148836296087249,0.553557611103571,0.606239738333167,0.43084079855530655,0.13086324159867954,0.4500075805952591
732,41.278,41.04,-2.85,0.5144748368382633,0.5548666968850219,0.6027662830430875,0.43085190007030827,0.127862381650099,0.45072683791622753
733,41.321,41.09,-2.84,0.5141134068641116,0.5562327238412436,0.5993114194989522,0.43092938364476113,0.1248641383966131,0.4515043725746229
734,41.381,41.15,-2.8,0.513800352094277,0.5576562150374654,0.5958775731286053,0.43107459303646944,0.12187003373070526,0.45234112298634344
735,41.443,41.2,-2.79,0.5135366534043451,0.5591376589837549,0.5924671727376998,0.4312888352233371,0.11888158471683494,0.4532379974584283
736,41.486,41.26,-2.79,0.5133232599504525,0.5606775090338284,0.5890826493285809,0.4315733793970387,0.11590030306073375,0.45419587350312457
737,41.527,41.31,-2.77,0.5131610889957933,0.5622761828000012,0.5857264348983955,0.4319294559787131,0.11292769458919452,0.45521559716770293
738,41.59,41.37,-2.77,0.5130510257495419,0.5639340615849524,0.5824009612156943,0.4323582556571167,0.109965258739347,0.45629798237994584
739,41.653,41.42,-2.78,0.5129939232171671,0.5656514898309757,0.5791086585748516,0.4328609284496594,0.10701448805647364,0.4574438103092229
740,41.715,41.48,-2.8,0.5129906020612137,0.5674287745873927,0.5758519545277051,0.4334385827867445,0.10407686769947122,0.4586538287430923
741,41.798,41.53,-2.8,0.5130418504717114,0.5692661849968291,0.5726332725918851,0.4340922846198735,0.10115387495310156,0.45992875147941853
742,41.819,41.59,-2.82,0.5131484240454508,0.5711639518010652,0.5694550309353772,0.4348230565540109,0.09824697874619814,0.4612692577340478
743,41.861,41.64,-2.81,0.5133110456734121,0.5731222668671662,0.5663196410369313,0.4356318770047376,0.09535763917499562,0.46267599156413736
744,41.922,41.7,-2.78,0.5135304054356465,0.5751412827345627,0.5632295063219948,0.43651967938071917,0.09248730703074354,0.4641495613072643
745,42.005,41.75,-2.77,0.5138071605029156,0.5772211121837068,0.5601870207739178,0.43748735129199234,0.08963742333075757,0.46569053903645546
746,42.026,41.81,-2.78,0.5141419350443935,0.5793618278268966,0.5571945675202554,0.4385357337845283,0.08680941885207835,0.4672994600312934
747,42.087,41.86,-2.76,0.5145353201407822,0.5815634617218614,0.5542545173940664,0.4396656206015051,0.08400471366695296,0.46897682226527265
748,42.15,41.92,-2.74,0.5149878737022654,0.5838260050087433,0.5513692274701899,0.4408777574717076,0.08122471667941988,0.4707230859096026
749,42.192,41.97,-2.75,0.51550012039086,0.5861494075711688,0.5485410395765647,0.4421728414254873,0.07847082516235297,0.4725386728536875
750,42.254,42.03,-2.76,0.5160725515468532,0.5885335777221637,0.5457722787807311,0.44355152013873517,0.0757444242943971,0.4744239662425478
751,42.315,42.08,-2.81,0.5167056251191355,0.5909783819157324,0.5430652518517312,0.445014391305357,0.07304688669630953,0.47637931003147715
752,42.377,42.14,-2.82,0.5173997655993491,0.5934836444849554,0.5404222456977014,0.4465620020387673,0.0703795719662846,0.4784050085582527
753,42.438,42.19,-2.83,0.5181553639598394,0.5960491474074907,0.5378455257795391,0.4481948483029322,0.06774382621387637,0.4805013261332388
754,42.499,42.25,-2.81,0.5189727775954506,0.5986746300993568,0.5353373345011228,0.44991337437348927,0.06514098159213622,0.4826684866477657
755,42.521,42.3,-2.81,0.5198523302692498,0.6013597892378746,0.5328998895766912,0.4517179723294544,0.06257235582756447,0.48490667320120756
756,42.581,42.36,-2.83,0.5207943120623416,0.6041042786146279,0.5305353823761344,0.45360898157601043,0.0600392517474729,0.4872160277472515
757,42.643,42.41,-2.83,0.5217989793280091,0.6069077090193263,0.5282459762491027,0.4555866883988732,0.05754295680438471,0.4895966507599123
758,42.705,42.47,-2.82,0.5228665546505146,0.6097696481554834,0.5260338048289923,0.45765132555075344,0.055084742597143646,0.4920486009199105
759,42.787,42.52,-2.85,0.5239972268089681,0.6126896205888763,0.5239009703180066,0.45980307187046154,0.05266586438846263,0.49457189482207486
760,42.808,42.58,-2.88,0.525191150746722,0.615667107729792,0.5218495417546135,0.4620420519352344,0.05028756061868993,0.49716650670447843
761,42.85,42.63,-2.88,0.5264484475467588,0.6187015478500967,0.5198815532648219,0.4643683357468818,0.04795105241561261,0.4998323682000278
762,42.913,42.69,-2.91,0.5277692044135255,0.6217923361361601,0.5179990022988005,0.4667819384523634,0.045657543100143354,0.502569368111229
763,42.975,42.74,-2.94,0.5291534746616143,0.6249388247786248,0.5162038478544319,0.4692828200993966,0.043408217687746796,0.5053773522088325
764,43.038,42.8,-2.93,0.5306012777116107,0.6281403230999538,0.5144980086894658,0.471870885427686,0.041204242385462025,0.5082561230550328
765,43.14,42.85,-2.93,0.5321125990933256,0.6313960977206272,0.5128833615239938,0.47454598369634104,0.03904676408436986,0.5112054398518641
766,43.16,42.91,-2.96,0.5336873904565437,0.6347053727647919,0.5113617392350291,0.47730790854801874,0.03693690984734605,0.514225018315414
767,43.18,42.96,-2.97,0.5353255695893748,0.6380673301061233,0.5099349290450615,0.48015639791029535,0.03487578639194759,0.5173145305764791
768,43.242,43.02,-2.96,0.5370270204443004,0.6414811096546337,0.5086046707065343,0.48309113393474323,0.032864479568291166,0.520473605108288
769,43.303,43.07,-2.99,0.538791593172045,0.6449458096851437,0.5073726546842903,0.4861117429741576,0.030904053831807735,0.5237018266819153
770,43.345,43.13,-3.01,0.540619104163445,0.648460487208077,0.5062405203381165,0.48921779559833806,0.0289955517107793,0.5269987363499935
771,43.407,43.18,-3.02,0.542509336099536,0.6520241583831682,0.5052098541075989,0.49240880664878944,0.02713999326858885,0.5303638314592779
772,43.49,43.24,-3.04,0.5444620380100796,0.6556357989765565,0.5042821877015621,0.49568423533265293,0.02533837556063546,0.5337965656925663
773,43.511,43.29,-3.05,0.5464769253407407,0.6592943448616305,0.5034589962944123,0.49904348535611925,0.02359167208587467,0.5372963491404018
774,43.572,43.35,-3.03,0.5485536800290527,0.6629986925638944,0.5027416967317335,0.5024859050975193,0.021900832232946248,0.5408625484029203
775,43.636,43.4,-3.02,0.55069195058925,0.6667476998500473,0.5021316457474815,0.5060107878202409,0.020266780720852317,0.5444944867221356
776,43.696,43.46,-3.05,0.5528913522059916,0.6705401863613907,0.5016301381951251,0.5096173719255814,0.018690417034167635,0.5481914441448921
777,43.737,43.51,-3.06,0.5551514668370043,0.6743749342916153,0.5012384052950868,0.5133048412456227,0.01717261485280078,0.5519526577166493
778,43.799,43.57,-3.04,0.5574718433246959,0.6782506891089478,0.500957612900834,0.5170723253761791,0.01571422147637359,0.5557773217062153
779,43.841,43.62,-3.06,0.5598519975168242,0.6821661603225436,0.5007888597860066,0.5209189000498184,0.014316057243336415,0.5596645878614701
780,43.904,43.68,-3.1,0.5622914123963347,0.6861200222929078,0.5007331759549892,0.5248435875488712,0.01297891494498176,0.5636135656960631
781,43.966,43.73,-3.1,0.5647895382204629,0.6901109150859953,0.5007915209793609,0.5288453571582417,0.011703559234556227,0.5676233228069912
782,44.027,43.79,-3.12,0.5673457926691631,0.6941374453705023,0.5009647823626633,0.532923125657728,0.010490726031697086,0.571692885222884
783,44.07,43.84,-3.13,0.569959561002867,0.6981981873577011,0.501253773935909,0.5370757578534432,0.009341121922436076,0.5758212377827523
784,44.131,43.9,-3.11,0.57263019622948,0.7022916837830281,0.5016592342862213,0.5413020671478425,0.00825542355501308,0.5800073245448972
785,44.214,43.95,-3.09,0.5753570192804099,0.7064164469284919,0.5021818252209386,0.545600816147781,0.007234277031748132,0.5842500492256094
786,44.235,44.01,-3.08,0.5781393191953379,0.7105709596848537,0.5028221302694583,0.5499707173099557,0.006278297297236601,0.5885482756672222
787,44.298,44.06,-3.07,0.5809763533153681,0.7147536766524047,0.5035806532250249,0.554410433623024,0.005388067523178504,0.5929008283350153
788,44.361,44.12,-3.04,0.5838673474842048,0.718963025279063,0.5044578167285871,0.5589185793256226,0.004564138490234275,0.5973064928423735
789,44.423,44.17,-3.05,0.586811496257042,0.7231974070343794,0.505453960896789,0.5634937206594345,0.003807027967399914,0.6017640165035182
790,44.466,44.23,-3.06,0.5898079631169283,0.7274551986178904,0.5065693419961086,0.5681343766563403,0.0031172200895110847,0.6062721089130164
791,44.529,44.28,-3.05,0.5928558806984315,0.7317347532000924,0.5078041311651198,0.5728390199585787,0.0024951647335983854,0.6108294425511663
792,44.592,44.34,-3.07,0.595954351018506,0.736034401694143,0.5091584131868236,0.57760607767074,0.001941276894917834,0.615434653414254
793,44.613,44.39,-3.07,0.5991024457145173,0.740352454056224,0.5106321853129613,0.5824339322423314,0.0014559360635617578,0.6200863416685931
794,44.675,44.45,-3.05,0.6022992062894272,0.7446872006123488,0.5122253561421789,0.5873209223795736,0.0010394856026239119,0.6247830723271924
795,44.737,44.5,-3.02,0.6055436443641681,0.7490369134092648,0.5139377445538691,0.5922653439850218,0.000692232128950048,0.6295233759478434
796,44.778,44.56,-3.02,0.6088347419372603,0.7533998475869778,0.5157690786994733,0.5972654511235205,0.00041444489756886323,0.6343057493513569
797,44.84,44.61,-3.0,0.6121714516517909,0.7577742427703089,0.5177189950529993,0.6023194570129072,0.00020635519098848918,0.6391286563586114
798,44.901,44.67,-2.96,0.6155526970699395,0.7621583244767572,0.5197870375225025,0.6074255350377691,6.815571465527216e-05,0.6439905285449858
799,44.963,44.72,-2.97,0.6189773729553356,0.7665503055377807,0.5219726566242713,0.6125818197844206,0.0,0.6488897660106513
800,45.005,44.78,-2.98,0.6224443455636124,0.7709483875304247,0.5242752087214669,0.6177864080951435,2.0018166321763876e-06,0.6538247381651054
801,45.046,44.83,-2.99,0.6259524529416014,0.7753507622160681,0.526693955328963,0.6230373601396325,7.423459537796592e-05,0.6587937845242682
802,45.109,44.89,-3.0,0.6295005052356762,0.7797556129829332,0.5292280624861383,0.628332700501567,0.00021673086398872068,0.663795215518454
803,45.17,44.94,-3.05,0.633087285009806,0.7841611162889616,0.5318766001994131,0.6336704192782774,0.0004294816974497719,0.6688273133095939
804,45.233,45.0,-3.07,0.6367115475739059,0.7885654431017018,0.5346385419563852,0.6390484731915931,0.0007124361848909668,0.6738883326162055
805,45.335,45.05,-3.06,0.6403720213230585,0.7929667603319748,0.537512764313514,0.6444647867081216,0.001065500915141506,0.6789765015447791
806,45.356,45.11,-3.09,0.6440674080881643,0.7973632322582611,0.540498046559433,0.649917253167387,0.001488539482986489,0.6840900224264153
807,45.396,45.16,-3.11,0.6477963834985683,0.8017530219389423,0.5435930704560823,0.6554037359164343,0.001981372018186646,0.6892270726577314
808,45.438,45.22,-3.11,0.65155759735724,0.8061342926097299,0.5467964200599691,0.6609220694496712,0.0025437747393303786,0.6943858055452052
809,45.5,45.27,-3.12,0.6553496740291623,0.8105052090637922,0.5501065816259502,0.6664700605528814,0.003175479534603687,0.6995643511522766
810,45.562,45.33,-3.16,0.6591712128436812,0.8148639390122587,0.5535219435960197,0.6720454894504566,0.003876173571580288,0.7047608171486757
811,45.603,45.38,-3.17,0.6630207885116658,0.8192086544229529,0.5570407966756582,0.6776461109550077,0.004645498938145596,0.7099732896616033
812,45.728,45.44,-3.2,0.6668969515584116,0.8235375328353735,0.5606613340003321,0.6832696556186182,0.005483052316676387,0.715199834128533
813,45.748,45.49,-3.25,0.6707982287732875,0.8278487586501284,0.5643816513947536,0.6889138308851277,0.006388384693590836,0.7204384961515574
814,45.789,45.55,-3.26,0.6747231236771866,0.832140524391186,0.5681997477274982,0.6945763222429702,0.007361001106362577,0.725687302353343
815,45.831,45.6,-3.25,0.678670117008877,0.8364110319394849,0.5721135253635788,0.7002547943782401,0.008400360430054828,0.7309442612348831
816,45.893,45.66,-3.29,0.6826376672313836,0.8406584937366012,0.5761207907176001,0.7059468923277772,0.009505875205382087,0.7362073640353742
817,45.955,45.71,-3.32,0.6866242110595526,0.8448811339573501,0.580219254910166,0.7116502426321759,0.010676911510255068,0.7414745855946535
818,46.04,45.77,-3.32,0.6906281640099882,0.8490771896503728,0.5844065345302629,0.7173624544887318,0.011912788876722147,0.7467438852187361
819,46.06,45.82,-3.34,0.6946479209745963,0.8532449118459563,0.5886801525063701,0.7230811209044484,0.013212780255186546,0.7520132075490825
820,46.121,45.88,-3.39,0.6986818568190181,0.8573825666305238,0.5930375390890413,0.7288038198493293,0.01457611202773208,0.7572804834363086
821,46.162,45.93,-3.41,0.7027283270072535,0.8614884361874421,0.5974760329476414,0.7345281154103186,0.016001964072345682,0.7625436308191512
822,46.224,45.99,-3.44,0.706785668253751,0.8655608198040181,0.6019928823837989,0.7402515589463774,0.017489469879757465,0.7678005556095845
823,46.286,46.04,-3.5,0.7108521992041551,0.8695980348447814,0.6065852466639797,0.7459716902453402,0.01903771672454427,0.7730491525850909
824,46.328,46.1,-3.53,0.7149262211457589,0.8735984176914008,0.6112501974733704,0.7516860386833308,0.020645745892042915,0.7782873062891807
825,46.43,46.15,-3.54,0.719006018748536,0.8775603246498072,0.615984720493004,0.7573921243876672,0.022312552962499097,0.7835128919413409
826,46.45,46.21,-3.53,0.7230898608374458,0.8814821328252613,0.6207857171017793,0.7630874594042948,0.024037088153743648,0.7887237763576369
827,46.491,46.26,-3.55,0.727176001196548,0.8853622409662198,0.6256500062047364,0.768769548870883,0.025818256723544035,0.7939178188832179
828,46.553,46.32,-3.55,0.7312626794053082,0.8891990702779061,0.6305743261886639,0.7744358921967889,0.02765491943265881,0.7990928723379361
829,46.595,46.37,-3.58,0.7353481217073724,0.8929910652065359,0.6355553370058351,0.780083984251151,0.02954589306952765,0.8042467839762436
830,46.658,46.43,-3.63,0.739430541912024,0.8967366941951881,0.6405896223863762,0.7857113165604471,0.03148995103745787,0.8093773964624853
831,46.72,46.48,-3.65,0.7435081423285016,0.9004344504123682,0.6456736921794585,0.7913153785169049,0.0334858240050904,0.814482548862706
832,46.802,46.54,-3.66,0.7475791147333182,0.9040828524543923,0.6508039848231582,0.7968936585992162,0.035532200620825766,0.819560077654124
833,46.823,46.59,-3.72,0.7516416413706719,0.9076804450227695,0.6559768699424701,0.8024436456070437,0.03762772829176366,0.8246078177534955
834,46.885,46.65,-3.76,0.7556938959859771,0.9112257995778177,0.6611886510746011,0.8079628299108068,0.03977101402755082,0.8296236035656329
835,46.968,46.7,-3.76,0.7597340448924532,0.914717514969762,0.666435568520294,0.8134487047182166,0.04196062534936881,0.8346052700533636
836,46.989,46.76,-3.78,0.7637602480706052,0.9181542180485662,0.6717138023195633,0.8188987673589797,0.04419509126410498,0.8395506538302113
837,47.029,46.81,-3.81,0.7677706603003126,0.9215345642537144,0.6770194753498817,0.8243105205890118,0.04647290330356362,0.8444575942770353
838,47.091,46.87,-3.81,0.7717634323251183,0.924857238185122,0.6823486565445093,0.829681473915412,0.04879251662838191,0.849323934683802
839,47.154,46.92,-3.82,0.7757367120481974,0.9281209541563328,0.6876973642283695,0.8350091449433475,0.051152351196142636,0.8541475234175694
840,47.215,46.98,-3.86,0.7796886457594084,0.9313244567311424,0.6930615695685867,0.8402910607459009,0.053550792993012616,0.8589262151176444
841,47.278,47.03,-3.88,0.7836173793927642,0.9344665212448083,0.6984372001365378,0.8455247592578286,0.0559861953280748,0.8636578719187639
842,47.318,47.09,-3.89,0.7875210598135789,0.9375459543110112,0.7038201435780101,0.8507077906940596,0.058456880189356776,0.8683403647030006
843,47.38,47.14,-3.93,0.7913978361344768,0.9405615943157242,0.7092062513878061,0.8558377189936224,0.06096113966037679,0.8729715743809523
844,47.442,47.2,-3.97,0.7952458610593339,0.9435123118990874,0.714591342784863,0.8609121232895338,0.06349723739583014,0.8775493932026033
845,47.525,47.25,-3.96,0.7990632922540847,0.9463970104263074,0.7199712086836837,0.8659285994050196,0.06606341015483055,0.8820717260980658
846,47.545,47.31,-4.01,0.8028482937431499,0.9492146264485074,0.7253416157575778,0.8708847613762535,0.06865786938989796,0.8865364920482239
847,47.628,47.36,-4.01,0.806599037330041,0.9519641301543504,0.7306983105889309,0.8757782430016143,0.07127880288965661,0.8909416254851111
848,47.649,47.42,-3.98,0.8103137040404916,0.9546445258131596,0.7360370239014262,0.880606699417268,0.07392437647297617,0.8952850777217178
849,47.691,47.47,-3.97,0.8139904855863086,0.957254852210184,0.7413534748688687,0.8853678086986867,0.0765927357320607,0.8995648184108319
850,47.751,47.53,-3.96,0.8176275858480195,0.9597941830745982,0.7466433754950069,0.8900592734875239,0.0792820078217845,0.9037788370324545
851,47.812,47.58,-3.94,0.8212232223743293,0.9622616275007719,0.751902435058516,0.8946788226430484,0.08199030329239884,0.9079251444092511
852,47.894,47.64,-3.9,0.8247756278963366,0.96465633036331,0.7571263646170763,0.8992242129171425,0.08471571796258742,0.9120017742493393
853,47.914,47.69,-3.91,0.8282830518544102,0.9669774727262779,0.7623108815642451,0.9036932306516668,0.08745633482973156,0.9160067847154942
854,47.975,47.75,-3.9,0.8317437619355622,0.9692242722469112,0.7674517142325518,0.9080836934968515,0.09021022601413302,0.9199382600196021
855,48.036,47.8,-3.85,0.8351560456190917,0.97139598357396,0.7725446065359649,0.9123934521492271,0.09297545473383924,0.9237943120409184
856,48.078,47.86,-3.8,0.8385182117281933,0.9734918987406428,0.777585322644623,0.9166203921074372,0.0957500773066138,0.9275730819664187
857,48.139,47.91,-3.78,0.8418285919851474,0.9755113475520207,0.7825696516845245,0.9207624354440305,0.09853214517548871,0.9312727419512713
858,48.202,47.97,-3.73,0.8450855425676533,0.9774536979664462,0.7874934124547031,0.9248175425910578,0.10131970695425986,0.9348914967972267
859,48.305,48.02,-3.67,0.8482874456638317,0.9793183564706278,0.792352458154273,0.9287837141370477,0.10411081048923294,0.9384275856464962
860,48.325,48.08,-3.66,0.8514327110234396,0.981104768447738,0.7971426811115983,0.9326589926326969,0.10690350493350227,0.9418792836884458
861,48.367,48.13,-3.64,0.8545197775028534,0.9828124185379098,0.8018600175077042,0.9364414644024022,0.1096958428300357,0.9452449038762183
862,48.43,48.19,-3.58,0.8575471146013773,0.9844408309903716,0.8065004520859175,0.940129261358562,0.11248588219982773,0.9485227986501452
863,48.493,48.24,-3.57,0.8605132239864102,0.9859895700063652,0.8110600228395809,0.9437205628153702,0.11527168863137406,0.9517113616645891
864,48.535,48.3,-3.57,0.8634166410049476,0.9874582400718703,0.8155348256695346,0.9472135972986192,0.11805133736769735,0.9548090295146461
865,48.576,48.35,-3.53,0.8662559361788129,0.9888464862790328,0.8199210190028883,0.9506066443478509,0.12082291538712205,0.9578142834589211
866,48.639,48.41,-3.49,0.8690297166809036,0.9901539946350625,0.8242148283644423,0.9538980363070052,0.12358452347395164,0.9607256511344068
867,48.68,48.46,-3.46,0.8717366277896358,0.9913804923572348,0.8284125508919832,0.9570861600995325,0.12633427827515667,0.9635417082593174
