,Time_Host,Time_Arduino,easingdata,CH1_Oxy,CH1_Deoxy,CH2_Oxy,CH2_Deoxy,CH3_Oxy,CH3_Deoxy
0,1.225,0.04,0.0,0.0,0.7352418171285262,0.0,0.38695054109625976,0.0,1.0
1,1.246,0.1,0.0,0.0015098004700765848,0.7330918498948032,0.0007812567461245915,0.3857706355580076,0.0014257340618950207,0.9889051674255337
2,1.267,0.15,0.0,0.0029991177925248265,0.731008814965264,0.0015558602307960002,0.38465472389891137,0.002858938605086962,0.9778913105421031
3,1.287,0.21,0.0,0.004467970399633876,0.7289935266640616,0.0023240121368073865,0.3836036303495312,0.004299533958037674,0.9669628466958355
4,1.308,0.26,0.0,0.005916410640462468,0.7270467441185868,0.0030859339448598,0.38261813467382466,0.0057474456001640195,0.9561241230972521
5,1.329,0.32,0.0,0.007344524604137417,0.725169170989896,0.003841866707752539,0.38169897173337997,0.007202604129312095,0.9453794132887503
6,1.35,1.06,0.0,0.008752431880955956,0.7233614552794256,0.0045920707865060445,0.38084683110888257,0.008664945211046427,0.9347329137259864
7,1.371,1.12,0.0,0.010140285262383641,0.7216241892093163,0.005336825549031843,0.38006235677728034,0.010134409510029274,0.9241887404755754
8,1.413,1.17,0.0,0.011508270381220508,0.7199579091734202,0.0060764290320700015,0.37934614684293727,0.011610942603822436,0.9137509260312145
9,1.475,1.23,0.0,0.012856605293388161,0.7183630957558358,0.006811197567220092,0.3786987533208858,0.01309449487950077,0.9034234162500521
10,1.581,1.28,-0.1,0.014185540002966925,0.7168401738135722,0.0075414653719958315,0.37812068197011156,0.014585021413519743,0.8932100674108433
11,1.601,1.34,-0.06,0.015495355932276604,0.7153895126197475,0.008267584106932421,0.3776123921746331,0.016082481835324413,0.8831146433952124
12,1.661,1.39,-0.06,0.01678636533891545,0.714011426063634,0.008989922399855462,0.377174296870026,0.017586840175209003,0.8731408129932565
13,1.683,1.45,-0.14,0.018058910681715643,0.7127061729039996,0.009708865338463551,0.3768067625130738,0.01909806469693124,0.8632921473348001
14,1.743,1.5,-0.1,0.01931336393754233,0.7114739570725888,0.01042481393238624,0.3765101090924585,0.02061612771556626,0.853572117447772
15,1.784,1.56,-0.05,0.020550125870803376,0.7103149280250903,0.01113818454588178,0.37628461017873344,0.02214100540106898,0.8439840919452666
16,1.845,1.61,-0.08,0.02176962525749042,0.7092291811374105,0.011849408302350853,0.376130493012097,0.023672677568006305,0.8345313348428385
17,1.95,1.67,-0.09,0.02297231806554371,0.7082167581454849,0.0125589304618535,0.376047938626692,0.025211127451927755,0.8252170035074425
18,1.971,1.72,-0.0,0.024158686593344844,0.7072776476271752,0.013267209772831,0.3760370820102633,0.026756341472875957,0.8160441467391697
19,2.013,1.78,-0.05,0.025329238568207523,0.7064117855248915,0.013974717799268848,0.3760980122979872,0.028308308986590598,0.8070157029865296
20,2.056,1.83,-0.1,0.026484506206834447,0.7056190557074731,0.014681938224578174,0.37623077299915225,0.029867022024018357,0.7981344986956027
21,2.119,1.89,-0.05,0.027625045239806894,0.7048992905696007,0.01538936613350386,0.37643536225522817,0.03143247501979878,0.7894032467929303
22,2.18,1.94,-0.04,0.02875143390226213,0.7042522716666816,0.016097507273387015,0.37671173312772477,0.03300466453044176,0.7808245453016169
23,2.241,2.0,-0.13,0.029864271892974862,0.7036777303828446,0.016806877296118784,0.37705979391417743,0.034583588942935076,0.7724008760898431
24,2.342,2.05,-0.06,0.030964179304073195,0.7031753486295805,0.017518000982113344,0.37747940849068545,0.03616924817452907,0.7641346037508476
25,2.363,2.11,-0.04,0.03205179552360775,0.7027447595726839,0.0182314114476175,0.377970396679638,0.03776164336445376,0.7560279746133427
26,2.424,2.16,-0.15,0.03312777811316847,0.7023855483854309,0.01894764933667823,0.3785325346414749,0.03936077655832999,0.7480831158812579
27,2.445,2.22,-0.16,0.034192801662696753,0.7020972530263389,0.019667261999100145,0.37916555528948254,0.040966650386041255,0.7403020349016701
28,2.507,2.27,-0.1,0.035247556624574065,0.7018793650403162,0.02039080265573969,0.3798691487267115,0.04257926773382941,0.732686618559721
29,2.568,2.33,-0.15,0.03629274812899795,0.7017313303823904,0.02111882955250227,0.3806429627040743,0.044198631411353516,0.7252386327992887
30,2.629,2.38,-0.17,0.03732909478257521,0.7016525502634875,0.02185190510440568,0.38148660309863386,0.04582474381440459,0.7179597222681616
31,2.692,2.44,-0.07,0.03835732745197819,0.7016423820179118,0.022590595031038767,0.3823996344110863,0.04745760658392714,0.7108514100863659
32,2.733,2.49,-0.09,0.039378188034457515,0.701700139992164,0.02333546748469905,0.38338158028142355,0.049097220261978956,0.7039150977361022
33,2.773,2.55,-0.15,0.04039242821698753,0.7018250964545586,0.024087092172455964,0.38443192402171666,0.05074358394526196,0.6971520650714896
34,2.856,2.6,-0.07,0.04140080822583935,0.7020164825248506,0.02484603947336649,0.3855501091649269,0.05239669493688061,0.6905634704460357
35,2.899,2.66,-0.06,0.04240409556843616,0.7022734891227762,0.025612879552083703,0.38673554002861005,0.0540565483970205,0.6841503509554878
36,2.939,2.71,-0.15,0.043403063769428075,0.7025952679341395,0.026388181470141898,0.38798758229235614,0.0557231369932667,0.6779136227935626
37,3.043,2.77,-0.09,0.04439849110298216,0.7029809323929844,0.02717251229623654,0.38930556358791824,0.05739645055129836,0.6718540817180062
38,3.063,2.82,-0.05,0.0453911593233026,0.7034295586784911,0.02796643621682886,0.39068877410125474,0.05907647570670615,0.6659724036244548
39,3.105,2.88,-0.1,0.046381852395387085,0.7039401867254564,0.02877051364840133,0.392136467186011,0.060763195558681135,0.6602691452256008
40,3.166,2.93,-0.12,0.04737135522798184,0.7045118212475283,0.029585300352670704,0.3936478599882348,0.06245658932631971,0.6547447448331988
41,3.228,2.99,-0.06,0.04836045241063679,0.7051434327726829,0.030411346556037524,0.3952221340823226,0.06415663200828928,0.6493995232403567
42,3.268,3.04,-0.1,0.04934992695671084,0.7058339586906062,0.031249196074529157,0.3968584361182222,0.0658632940466015,0.6442336847013465
43,3.329,3.1,-0.16,0.05034055905412751,0.7065823043116205,0.03209938544546902,0.3985558784797913,0.06757654099523021,0.6392473180058893
44,3.432,3.15,-0.1,0.05133312482562133,0.7073873439366393,0.03296244306706759,0.40031353995400853,0.0692963331942926,0.6344403976445733
45,3.453,3.21,-0.08,0.052328395100150533,0.7082479219373675,0.033838888347087384,0.4021304664104936,0.07102262545048389,0.629812785061806
46,3.493,3.26,-0.16,0.053327134197078074,0.7091628538457253,0.03472923086168913,0.40400567149061545,0.07275536672441568,0.6253642299926176
47,3.556,3.32,-0.09,0.05433009872463885,0.7101309274513659,0.03563396952551404,0.4059381373054588,0.07449449982546999,0.621094371879692
48,3.599,3.37,-0.05,0.055338036394145605,0.7111509039062073,0.03655359177401495,0.40792681514208523,0.0762399611147562,0.6170027413671834
49,3.658,3.43,-0.13,0.05635168485135425,0.7122215188350253,0.037488572759030704,0.4099706261777387,0.07799168021674223,0.6130887618680805
50,3.781,3.48,-0.12,0.057371770526396484,0.7133414834513742,0.03843937455859955,0.41206846220185644,0.07974957974012138,0.6093517512021082
51,3.801,3.54,-0.05,0.05839900750368018,0.7145094856783678,0.039406445402025224,0.4142191863459095,0.08151357500847241,0.6057909233013234
52,3.843,3.59,-0.11,0.05943409641315832,0.7157241912740798,0.04039021891123794,0.41642163382116004,0.08328357380125902,0.6024053899806994
53,3.905,3.65,-0.14,0.06047772334435612,0.7169842449614512,0.041391113359503434,0.41867461266444295,0.08505947610568855,0.5991941627711107
54,3.989,3.7,-0.04,0.06153055878452727,0.7182882715625974,0.04240953094850757,0.420976904492117,0.08684117387991896,0.5961561548121751
55,4.009,3.76,-0.03,0.06259325658230142,0.7196348771371985,0.04344585710480192,0.42332726526233194,0.08862855082807582,0.5932901828023349
56,4.051,3.81,-0.1,0.06366645293817841,0.721022650124305,0.04450045979654958,0.42572442604568456,0.0904214821875147,0.5905949690034517
57,4.153,3.87,-0.05,0.0647507654232109,0.7224501624865266,0.04557368887145988,0.42816709380425105,0.09221983452875734,0.5880691432969822
58,4.174,3.92,-0.07,0.06584679202720688,0.7239159708551987,0.04666587541676086,0.4306539521788932,0.09402346556853508,0.5857112452885578
59,4.235,3.98,-0.14,0.06695511023776489,0.7254186176748442,0.04777733114203142,0.4331836622846438,0.09583222399637156,0.5835197264576094
60,4.276,4.03,-0.08,0.06807627615138712,0.7269566323452117,0.048908347785680074,0.4357548635139916,0.09764594931510258,0.581492952348748
61,4.338,4.09,-0.02,0.06921082361779511,0.7285285323593984,0.05005919654581147,0.4383661743480213,0.09946447169567199,0.5796292048018662
62,4.4,4.14,-0.06,0.07035926341843689,0.7301328244369759,0.0512301275361777,0.441016193175551,0.10128761184647697,0.5779266842183203
63,4.46,4.2,-0.05,0.07152208248004421,0.7317680056515298,0.052421369267868445,0.4437034991206136,0.10311518089748614,0.5763835118608885
64,4.522,4.25,0.04,0.07269974312400951,0.73343256455248,0.05363312815735688,0.44642665287878813,0.10494698029933934,0.5749977321853644
65,4.542,4.31,-0.0,0.07389268235231244,0.7351249822812762,0.054865588061499417,0.44918419756293027,0.10678280173764437,0.5737673152016303
66,4.604,4.36,-0.05,0.07510131117071417,0.736843733682041,0.05611890984007861,0.45197465955872795,0.10862242706269913,0.572690158861967
67,4.644,4.42,0.02,0.07632601394992378,0.7385872884065544,0.05739323094646636,0.45479654939034647,0.11046562823487605,0.5717640914742445
68,4.706,4.47,0.04,0.07756714782542852,0.7403541120132201,0.05868866504697143,0.4576483625962265,0.11231216728590701,0.5709868741375667
69,4.768,4.53,-0.04,0.07882504213665327,0.7421426670594296,0.06000530166941214,0.4605285806149684,0.1141617962962857,0.5703562031979901
70,4.809,4.58,0.01,0.08009999790604727,0.7439514141867102,0.06134320588140693,0.4634356716812622,0.11601425738897643,0.5698697127220664
71,4.91,4.64,0.05,0.08139228735860103,0.7457788131981989,0.06270241799881922,0.46636809173198623,0.11786928273958834,0.5695249769861197
72,4.932,4.69,-0.04,0.08270215348219324,0.7476233241282522,0.06408295332474516,0.4693242853227683,0.11972659460313835,0.5693195129793421
73,4.994,4.75,-0.04,0.08402980962906528,0.7494834083042881,0.06548480191938279,0.4723026865554671,0.12158590535748096,0.5692507829189835
74,5.035,4.8,0.03,0.08537543915863463,0.7513575294011972,0.06690792840106412,0.4753017200171574,0.12344691756343212,0.5693161967760387
75,5.097,4.86,-0.01,0.08673919512180671,0.7532441544887042,0.06835227177867924,0.4783198017312278,0.12530932404155704,0.5695131148099285
76,5.159,4.91,-0.03,0.08812119998690844,0.7551417550719347,0.06981774531566855,0.48135534012110565,0.12717280796552208,0.569838850110762
77,5.2,4.97,0.08,0.08952154540734089,0.7570488081251916,0.07130423642570405,0.4844067369869734,0.12903704297184906,0.5702906711478453
78,5.264,5.02,0.1,0.09094029203103678,0.7589637971185943,0.07281160660012453,0.4874723884956463,0.1309016932858649,0.5708658043231265
79,5.325,5.08,0.05,0.09237746935180738,0.7608852130368663,0.07433969136713615,0.4905506861836156,0.1327664138636128,0.5715614365282508
80,5.388,5.13,0.12,0.0938330756026588,0.7628115553892658,0.07588830028273646,0.49364001797319906,0.1346308505494895,0.5723747177038312
81,5.448,5.19,0.14,0.0953070776911666,0.7647413332094347,0.07745721695329646,0.4967387692017178,0.13649464024939265,0.5733027633993959
82,5.509,5.24,0.06,0.09679941117701797,0.7666730660437673,0.079046199089751,0.49984532366354245,0.13835741111917904,0.5743426573323763
83,5.55,5.3,0.11,0.09830998029182601,0.7686052849269006,0.08065497859338099,0.5029580646646804,0.1402187827682359,0.575491453944505
84,5.61,5.35,0.16,0.09983865800128269,0.7705365333430845,0.08228326167320489,0.5060753760893045,0.14207836647794844,0.576746180954069
85,5.631,5.41,0.12,0.1013852861096384,0.7724653681724912,0.08393072899501623,0.5091956434773096,0.14393576543481357,0.5781038419025921
86,5.693,5.46,0.11,0.10294967540636844,0.7743903606219064,0.0855970358620806,0.5123172551117973,0.1457905749779074,0.5795614186945944
87,5.756,5.52,0.19,0.1045316058547189,0.7763100971396434,0.08728181242743269,0.5154386031153991,0.14764238286038134,0.5811158741290327
88,5.796,5.57,0.16,0.10613082682165619,0.7782231803147622,0.0889846639376207,0.5185580845543721,0.14949076952463666,0.5827641544208012
89,5.857,5.63,0.12,0.10774705734859837,0.7801282297606548,0.0907051710076546,0.5216741025492944,0.15133530839080062,0.5845031917104101
90,5.919,5.68,0.19,0.10937998646219435,0.7820238829828323,0.09244288992682861,0.5247850673909933,0.1531755661580981,0.5863299065597075
91,5.982,5.74,0.22,0.11102927352435392,0.7839087962303829,0.0941973529950247,0.5278893976600648,0.1550111031186842,0.5882412104313621
92,6.041,5.79,0.16,0.11269454862069214,0.7857816453302412,0.09596806888906054,0.5309855213480931,0.15684147348347027,0.590234008149813
93,6.102,5.85,0.22,0.11437541298649766,0.7876411265033355,0.09775452305860548,0.5340718769785832,0.1586662257194474,0.592305200341517
94,6.143,5.9,0.27,0.11607143946926816,0.789485957161845,0.09955617815115447,0.5371469147256502,0.16048490289799466,0.5944516858524771
95,6.205,5.96,0.21,0.11778217302680583,0.7913148766870541,0.10137247446553421,0.5402090975285857,0.16229704305364648,0.5966703641412002
96,6.266,6.01,0.21,0.11950713125983056,0.7931266471875483,0.1032028304334013,0.543256902200505,0.1641021795527791,0.5989581376453941
97,6.348,6.07,0.3,0.12124580497806424,0.7949200542376758,0.10504664312817838,0.5462888205293626,0.1658998414716636,0.6013119141208105
98,6.367,6.12,0.26,0.12299765879876932,0.7966939075961997,0.10690328880085952,0.5493033603696328,0.16768955398330881,0.6037286089506824
99,6.409,6.18,0.21,0.12476213177676394,0.7984470419048619,0.1087721234420865,0.5522990467228712,0.16947083875248595,0.6062051474241894
100,6.471,6.23,0.31,0.12653863806495594,0.8001783173662469,0.11065248336983798,0.5552744228052453,0.17124321433829298,0.6087384669822831
101,6.532,6.29,0.32,0.12832656760443786,0.8018866203999149,0.11254368584199267,0.5582280510999517,0.17300619660358688,0.6113255194290412
102,6.593,6.34,0.26,0.13012528684315058,0.8035708642753678,0.11444502969293968,0.5611585143922582,0.1747592991305738,0.6139632731065849
103,6.655,6.4,0.34,0.13193413948204405,0.8052299897201929,0.11635579599331317,0.5640644167848168,0.17650203364181627,0.6166487150315039
104,6.718,6.45,0.39,0.13375244724756744,0.806862965501689,0.11827524873185752,0.5669443846908976,0.1782339104258977,0.6193788529906522
105,6.738,6.51,0.32,0.1355795106892331,0.8084687889803958,0.12020263551839258,0.5697970678032375,0.1799544387669755,0.622150717594191
106,6.8,6.56,0.38,0.13741461000093355,0.810046486634157,0.12213718830683613,0.572621140036306,0.18166312737744633,0.624961364283883
107,6.842,6.62,0.46,0.1392570058646452,0.811595114551662,0.12407812413723966,0.5754153004399725,0.18335948483294937,0.6278078752948516
108,6.904,6.67,0.42,0.14110594031511972,0.8131137588947569,0.12602464589578619,0.5781782740828462,0.18504302000893388,0.6306873615692397
109,6.965,6.73,0.42,0.1429606376241026,0.8146015363292871,0.1279759430916518,0.5809088129040838,0.18671324251802635,0.6335969646204073
110,7.008,6.78,0.53,0.14482030520252925,0.816057594424704,0.12993119264954597,0.583605696533077,0.18836966314744844,0.6365338583463896
111,7.091,6.84,0.52,0.1466841345190758,0.8174811120229769,0.1318895597166654,0.5862677330769129,0.1900117942957672,0.6394952507913343
112,7.152,6.89,0.46,0.14855130203339767,0.818871299577407,0.1338501984827448,0.5888937598756316,0.1916391504082807,0.6424783858535561
113,7.214,6.95,0.53,0.1504209701423723,0.8202273994618391,0.1358122530118615,0.5914826442252463,0.19325124841037267,0.6454805449387426
114,7.234,7.0,0.55,0.1522922881376822,0.8215486862505247,0.13777485808465895,0.5940332840682976,0.19484760813819318,0.6484990485567242
115,7.295,7.06,0.46,0.15416439317310984,0.8228344669686544,0.13973714004968504,0.5965446086515004,0.19642775276602562,0.6515312578602465
116,7.336,7.11,0.53,0.15603641123992745,0.8240840813135049,0.14169821768256552,0.5990155791499782,0.19799120922968455,0.6545745761243598
117,7.48,7.17,0.6,0.15790745814874027,0.825296901846292,0.14365720305173507,0.6014451892576873,0.19953750864526051,0.6576264501653025
118,7.501,7.22,0.58,0.15977664051610901,0.82647233415505,0.1456132023894428,0.6038324657438429,0.2010661867225006,0.6606843716980394
119,7.522,7.28,0.59,0.16164305675425084,0.8276098169891283,0.1475653169667358,0.6061764689753858,0.2025767841720954,0.6637458786318846
120,7.564,7.33,0.7,0.16350579806213947,0.8287088223660544,0.14951264397112335,0.6084762934057331,0.20406884710615358,0.6668085563038137
121,7.625,7.39,0.69,0.16536394941641439,0.829768855651496,0.15145427738565287,0.6107310680301307,0.20554192743117997,0.6698700386491225
122,7.685,7.44,0.66,0.16721659056064092,0.830789455612825,0.15338930886817806,0.6129399568078844,0.2069955832329206,0.6729280093091035
123,7.726,7.5,0.75,0.16906279699159968,0.8317701944464577,0.15531682862964685,0.6151021590516332,0.20842937915249576,0.6759802026753772
124,7.831,7.55,0.78,0.17090164094140875,0.8327106777787658,0.15723592631028946,0.61721690978367,0.20984288675330237,0.6790244048705077
125,7.851,7.61,0.71,0.17273219235437573,0.8336105446400266,0.15914569185262942,0.6192834800591528,0.2112356848782179,0.6820584546646091
126,7.891,7.66,0.78,0.17455351985753334,0.8344694674107462,0.16104521637026914,0.6213011772560241,0.21260735999668437,0.6850802443278257
127,7.972,7.72,0.82,0.17636469172385563,0.8352871517397448,0.16293359301142887,0.6232693453315362,0.21395750654129522,0.688087720418762
128,8.014,7.77,0.74,0.1781647768271987,0.8360633364335309,0.1648099178162635,0.6251873650454214,0.21528572723354403,0.6910788845091379
129,8.076,7.83,0.75,0.17995284558803898,0.8367977933167663,0.166673290567023,0.6270546541499018,0.2165916333984168,0.6940517938451477
130,8.138,7.88,0.82,0.18172797090909176,0.8374903270639088,0.1685228156301582,0.6288706675469078,0.2178748452675198,0.6970045619461642
131,8.2,7.94,0.77,0.18348922909989154,0.8381407750024141,0.1703576027895018,0.6306348974129543,0.21913499227042993,0.69993535914157
132,8.22,7.99,0.77,0.1852357007893906,0.8387490068880933,0.1721767680696638,0.6323468732921526,0.220371713313936,0.7028424130466161
133,8.281,8.05,0.88,0.1869664718255897,0.8393149246534072,0.17397943454875717,0.6340061621578558,0.2215846570488208,0.7057240089782754
134,8.343,8.1,0.91,0.18868063416119357,0.8398384621294658,0.17576473315953803,0.6356123684434053,0.22277348212383324,0.7085784903120441
135,8.385,8.16,0.86,0.19037728672430768,0.8403195847423273,0.17753180347802075,0.63716513404236,0.22393785742651912,0.7114042587806014
136,8.447,8.21,0.94,0.1920555362732611,0.8407582891839421,0.17927979449861867,0.6386641382785168,0.22507746231062845,0.7141997747151635
137,8.508,8.27,0.99,0.1937144982347636,0.8411546030578113,0.18100786539489958,0.6401090978459417,0.22619198680989705,0.7169635572303134
138,8.57,8.32,0.91,0.19535329752476027,0.8415085844991721,0.1827151862651297,0.6414997667191147,0.22728113183807602,0.7196941843531319
139,8.613,8.38,0.97,0.19697106935148392,0.8418203217694509,0.18440093886188264,0.6428359360332737,0.22834460937515264,0.7223902930976348
140,8.696,8.43,1.04,0.19856696000029728,0.8420899328248738,0.18606431730508535,0.6441174339351521,0.22938214263976417,0.7250505794857295
141,8.716,8.49,1.0,0.2001401275999696,0.8423175648594624,0.18770452877795782,0.6453441254044584,0.23039346624785953,0.7276737985161073
142,8.777,8.54,0.97,0.20168974287002808,0.842503393823118,0.1893207942053556,0.6465159120466402,0.2313783263577071,0.7302587640826372
143,8.839,8.6,1.05,0.20321498984878322,0.8426476239160332,0.19091234891405445,0.6476327318576564,0.23233648080139455,0.7328043488438525
144,8.941,8.65,1.01,0.20471506660159045,0.8427504870610081,0.19247844327453542,0.648694558961567,0.2332676992030102,0.7353094840449881
145,8.962,8.71,0.96,0.20618918590889765,0.8428122423553063,0.19401834332384454,0.6497014033216636,0.23417176308372545,0.7377731592938529
146,9.003,8.76,1.02,0.20763657593363605,0.8428331755034671,0.19553133136909806,0.6506533104257168,0.23504846595400702,0.7401944222916151
147,9.065,8.82,1.05,0.20905648086755171,0.8428135982321152,0.1970167065711969,0.651550360945722,0.23589761339319495,0.7425723785194095
148,9.125,8.87,0.99,0.21044816155611226,0.8427538476874369,0.19847378550830816,0.6523926703724063,0.23671902311667245,0.7449061908816147
149,9.187,8.93,1.06,0.21181089610163742,0.8426542858158774,0.19990190271865932,0.6531803886248317,0.23751252503085885,0.7471950793067063
150,9.291,8.98,1.13,0.21314398044430075,0.84251529872874,0.20130041122218903,0.6539136996356807,0.23827796127626755,0.7494383203066948
151,9.313,9.04,1.06,0.21444672892066752,0.8423372960516251,0.20266868302062346,0.654592820913106,0.23901518625890938,0.7516352464962568
152,9.353,9.09,1.05,0.21571847479946799,0.8421207102599585,0.20400610957559479,0.6552180030802858,0.23972406667036408,0.7537852460727039
153,9.373,9.15,1.13,0.21695857079436476,0.8418659960021161,0.20531210226448887,0.6557895293939732,0.240404481496901,0.7558877622578912
154,9.456,9.2,1.08,0.21816638955356293,0.8415736294117299,0.2065860928138074,0.6563077152432703,0.2410563220180746,0.7579422927030969
155,9.498,9.26,1.02,0.21934132412620197,0.8412441074106353,0.20782753370991805,0.6567729076296503,0.24167949179524545,0.759948388857866
156,9.559,9.31,1.11,0.22048278840553517,0.8408779470036966,0.2090358985871203,0.6571854846290456,0.2422739066504868,0.7619056553037575
157,9.621,9.37,1.11,0.22159021754894292,0.8404756845664444,0.21021068259298165,0.6575458548366224,0.24283949463633966,0.7638137490538326
158,9.663,9.42,1.01,0.2226630683748398,0.8400378751261792,0.21135140273091269,0.6578544567946899,0.24337619599687843,0.7656723788186167
159,9.724,9.48,1.06,0.22370081973650952,0.8395650916370598,0.2124575981799441,0.6581117584041469,0.24388396312053673,0.7674813042391964
160,9.786,9.53,1.07,0.2247029728728787,0.8390579242496656,0.21352883059165312,0.6583182563199809,0.24436276048514427,0.7692403350880419
161,9.828,9.59,0.98,0.2256690517362273,0.838516979575525,0.2145646843641772,0.6584744753314828,0.24481256459561107,0.7709493304381629
162,9.889,9.64,1.01,0.2265986032968343,0.8379428799471521,0.21556476689324608,0.6585809677280434,0.24523336391466546,0.7726081978013619
163,9.951,9.7,1.08,0.2274911978245555,0.8373362626742313,0.21652870880016642,0.6586383126515535,0.2456251587870172,0.7742168922366068
164,10.032,9.75,1.05,0.22834642914734,0.836697779296759,0.21745616413671726,0.6586471154365318,0.24598796135727685,0.7757754154298577
165,10.053,9.81,1.04,0.22916391488666807,0.8360280948362238,0.21834681056694002,0.6586080069391564,0.24632179548193214,0.7772838147469697
166,10.093,9.86,1.14,0.2299432966698595,0.8353278870462478,0.21920034952582285,0.6585216428564525,0.24662669663568215,0.7787421822614176
167,10.154,9.92,1.12,0.2306842403191771,0.834597845664289,0.22001650635489442,0.6583887030368849,0.24690271181245108,0.7801506537585295
168,10.195,9.97,1.04,0.2313864360176703,0.8338386716659508,0.2207950304147674,0.6582098907835036,0.24714989942144489,0.7815094077177543
169,10.257,10.03,1.1,0.23204959845175954,0.8330510765231824,0.22153569517470229,0.6579859321506438,0.2473683291786549,0.7828186642742642
170,10.319,10.08,1.12,0.232673466930673,0.8322357814672368,0.22223829827931652,0.657717575235015,0.24755808199425636,0.7840786841610253
171,10.401,10.14,1.03,0.23325780548298056,0.8313935167568084,0.22290266159264574,0.6574055894618364,0.24771924985635932,0.7852897676324363
172,10.421,10.19,1.06,0.23380240293056653,0.8305250209515385,0.22352863121983402,0.6570507648666228,0.24785193571156133,0.786452253370755
173,10.482,10.25,1.11,0.23430707294042324,0.8296310401910962,0.2241160775067917,0.656653911373228,0.24795625334273558,0.787566517376671
174,10.543,10.3,1.04,0.23477165405463873,0.8287123274802434,0.2246648950182114,0.6562158580687325,0.24803232724446853,0.7886329718454878
175,10.627,10.36,1.04,0.2351960096989016,0.8277696419805997,0.22517500249436648,0.6557374524756886,0.248080292496538,0.7896520640304359
176,10.647,10.41,1.08,0.235580028169786,0.8268037483101157,0.22564634278714069,0.6552195598221684,0.24810029463580102,0.7906242750946079
177,10.71,10.47,1.04,0.23592362260104588,0.8258154158513785,0.22607888277575935,0.6546630623099519,0.24809248952684795,0.7915501189528599
178,10.771,10.52,1.0,0.23622673090915047,0.8248054180697592,0.22647261326271026,0.6540688583810388,0.2480570432317526,0.7924301411048692
179,10.832,10.58,1.06,0.23648931571832246,0.8237745318421145,0.22682754885034198,0.6534378619825268,0.24799413187922312,0.7932649174603745
180,10.894,10.63,1.09,0.2367113642654105,0.8227235367963134,0.2271437277986271,0.6527710018297912,0.2479039415334306,0.7940550531575272
181,10.934,10.69,1.03,0.2368928882850028,0.8216532146614205,0.22742121186458636,0.6520692206678347,0.24778666806276606,0.7948011813753033
182,10.994,10.74,1.07,0.23703392387523164,0.8205643486281925,0.2276600861238671,0.6513334745308044,0.24764251700876624,0.7955039621410311
183,11.056,10.8,1.11,0.23713453134473741,0.8194577227196068,0.22786045877497266,0.6505647319999027,0.24747170345545805,0.7961640811342126
184,11.14,10.85,1.01,0.23719479504128152,0.8183341211713447,0.2280224609266564,0.6497639734601942,0.2472744518993879,0.796782248487932
185,11.161,10.91,1.0,0.23721482316252687,0.8171943278223812,0.22814624636902128,0.6489321903570472,0.24705099612060935,0.7973591975892822
186,11.202,10.96,1.08,0.23719474754954875,0.8160391255160344,0.22823199132889085,0.6480703844531469,0.2468015790548986,0.797895683880351
187,11.263,11.02,1.01,0.23713472346370262,0.8148692955118381,0.22827989421005046,0.6471795670870735,0.24652645266744594,0.7983924836614232
188,11.325,11.07,0.96,0.237034929347539,0.8136856169084331,0.22829017531897158,0.6462607584343653,0.24622587782823044,0.7988503928981178
189,11.387,11.13,1.04,0.23689556657048358,0.8124888660773932,0.22826307657662157,0.6453149867718193,0.2459001241892465,0.7992702260341292
190,11.429,11.18,1.05,0.23671685916000107,0.8112798161075727,0.22819886121694244,0.6443432877455071,0.24554947006371236,0.7996528148110544
191,11.533,11.24,0.98,0.23649905351892714,0.8100592362593015,0.22809781347256322,0.6433467036426633,0.24517420230735518,0.7999990070965916
192,11.554,11.29,1.04,0.23624241812959537,0.8088278914276309,0.22796023824827877,0.6423262826673971,0.24477461620183807,0.8003096657222522
193,11.594,11.35,1.08,0.2359472432453489,0.8075865416138623,0.22778646078280168,0.641283078220117,0.2443510153403863,0.8005856673316337
194,11.655,11.4,0.99,0.23561384057001394,0.8063359414047111,0.22757682629929293,0.6402181481806172,0.24390371151567128,0.8008279012402871
195,11.697,11.46,1.06,0.23524254292590863,0.8050768394587253,0.22733169964518712,0.6391325541949271,0.2434330246100121,0.8010372683083016
196,11.757,11.51,1.11,0.23483370391094802,0.803809977999964,0.2270514649218446,0.6380273609662539,0.2429392824879666,0.8012146798268
197,11.818,11.57,1.05,0.23438769754538472,0.802536092319369,0.2267365251045788,0.6369036355505846,0.2424228208913939,0.8013610564195852
198,11.879,11.62,1.02,0.2339049179086766,0.8012559102847179,0.22638730165358564,0.6357624466577917,0.2418839833370908,0.8014773269611021
199,11.921,11.68,1.1,0.23338577876691138,0.7999701518604357,0.22600423411624967,0.6346048639593763,0.2413231210171265,0.8015644275117129
200,11.983,11.73,1.05,0.2328307131911782,0.7986795286386901,0.22558777972123514,0.6334319574041576,0.2407405927020199,0.8016233002710512
201,12.046,11.79,0.97,0.23224017316726867,0.7973847433830606,0.2251384129647196,0.6322447965431947,0.24013676464689906,0.8016548925500294
202,12.109,11.84,1.01,0.23161462919711268,0.7960864895857478,0.22465662518907914,0.6310444498651183,0.2395120105007699,0.8016601557619247
203,12.129,11.9,1.02,0.23095456989240892,0.7947854510388451,0.224142924154311,0.6298319841428907,0.23886671121899059,0.8016400444328573
204,12.192,11.95,0.92,0.23026050156095831,0.7934823014198201,0.22359783360247595,0.6286084637928272,0.23820125497900485,0.8015955152319721
205,12.233,12.01,0.97,0.22953294778621222,0.7921777038912208,0.22302189281544524,0.6273749502465867,0.2375160370993235,0.801527526021743
206,12.295,12.06,1.02,0.2287724490004978,0.7908723107147488,0.22241565616622766,0.6261325013367951,0.2368114599616898,0.801437034928935
207,12.357,12.12,0.96,0.2279795620523261,0.7895667628800593,0.2217796926641456,0.6248821706969605,0.2360879329363117,0.8013249994368686
208,12.419,12.17,0.95,0.22715485976813848,0.7882616897489007,0.22111458549411772,0.623625007176359,0.23534587231001017,0.8011923754997099
209,12.46,12.23,1.03,0.22629893050883346,0.7869577087154199,0.2204209315503106,0.6223620542706038,0.23458570121712,0.8010401166795106
210,12.542,12.28,0.99,0.2254123777214453,0.7856554248834954,0.21969934096448634,0.6210943495684844,0.2338078495729782,0.8008691733066189
211,12.604,12.34,0.94,0.2244958194863942,0.7843554307618076,0.21895043662948233,0.6198229242153667,0.23301275400983773,0.800680491663929
212,12.625,12.39,0.99,0.223549888060773,0.7830583059770778,0.21817485371837572,0.6185488023930713,0.23220085781504676,0.8004750131952324
213,12.686,12.45,1.01,0.22257522941816898,0.7817646170055408,0.2173732391999651,0.6172730008158224,0.231372610871336,0.8002536737377295
214,12.727,12.5,0.91,0.22157250278553586,0.7804749169224052,0.21654625135121755,0.6159965282416664,0.23052846959904583,0.8000174027786435
215,12.79,12.56,0.96,0.2205423801776068,0.7791897451689166,0.21569455926730366,0.6147203849988013,0.22966889690010422,0.7997671227358543
216,12.852,12.61,0.98,0.21948554592930034,0.7779096273366645,0.21481884236978854,0.6134455625264577,0.22879436210355356,0.7995037482624892
217,12.914,12.67,0.89,0.2184026962265329,0.7766350749688964,0.21391978991351127,0.6121730429302052,0.22790534091239767,0.799228185575454
218,12.977,12.72,0.88,0.21729453863580867,0.7753665853787738,0.21299810049264434,0.6109037985517554,0.22700231535150903,0.7989413318079578
219,13.038,12.78,0.94,0.2161617916329272,0.7741046414846487,0.21205448154639492,0.6096387915534398,0.2260857737162938,0.7986440743861325
220,13.079,12.83,0.9,0.21500518413114914,0.7728497116623927,0.21108964886478906,0.6083789735174967,0.2251562105217649,0.7983372904298641
221,13.141,12.89,0.86,0.2138254550091734,0.7716022496145637,0.21010432609495422,0.6071252850601242,0.22421412645161679,0.798021846177947
222,13.204,12.94,0.96,0.21262335263928728,0.7703626942558869,0.2090992442482657,0.6058786554600716,0.22326002830685074,0.7976985964376127
223,13.245,13.0,0.97,0.21139963441605553,0.7691314696141636,0.20807514120867876,0.6046400023013309,0.22229442895347773,0.7973683840583571
224,13.348,13.05,0.9,0.21015506628590902,0.7679089847454693,0.20703276124253098,0.603410231129293,0.22131784726881445,0.7970320394298867
225,13.368,13.11,0.95,0.20889042227797475,0.7666956336624131,0.20597285451007696,0.6021902351196267,0.22033080808590366,0.7966903800039148
226,13.408,13.16,0.99,0.20760648403648124,0.765491795274323,0.2048961765790155,0.6009808947591533,0.21933384213561802,0.7963442098394855
227,13.449,13.22,0.89,0.20630404035508243,0.7642978333383955,0.20380348794029077,0.5997830775380577,0.21832748598603835,0.795994319171521
228,13.51,13.27,0.92,0.2049838867134517,0.763114096421126,0.20269555352647411,0.5985976376529557,0.21731228197871164,0.7956414840024224
229,13.571,13.33,0.99,0.20364682481649005,0.7619409178696567,0.2015731422330547,0.5974254157205665,0.21628877816140527,0.7952864657167416
230,13.611,13.38,0.93,0.20229366213646802,0.7607786157930184,0.20043702644298997,0.5962672385019295,0.2152575282169705,0.7949300107191246
231,13.713,13.44,0.89,0.2009252114583465,0.7596274930536132,0.19928798155485972,0.5951239186372583,0.21421909138792036,0.7945728500958671
232,13.735,13.49,0.97,0.1995422904284026,0.7584878372696768,0.1981267855149196,0.5939962543916595,0.2131740323963286,0.7942156993003953
233,13.776,13.55,0.93,0.19814572110617654,0.7573599208296415,0.1969542183532829,0.5928850294119636,0.21212292135865915,0.7938592578628085
234,13.837,13.6,0.85,0.19673632951967063,0.7562440009192184,0.19577106172438982,0.5917910124947987,0.21106633369513358,0.7935042091233485
235,13.897,13.66,0.91,0.19531494522368395,0.7551403195616929,0.19457809845185814,0.5907149573658397,0.21000485003322963,0.7931512199894216
236,13.94,13.71,0.95,0.19388240086116443,0.7540491036714584,0.1933761120777684,0.5896576024699165,0.20893905610489105,0.7928009407156115
237,14.0,13.77,0.88,0.1924395317274997,0.7529705651203354,0.1921658864164187,0.5886196707714019,0.2078695426370035,0.792454004706115
238,14.104,13.82,0.94,0.19098717533771475,0.7519049008159451,0.19094820511256824,0.5876018695641742,0.20679690523467514,0.792111028339202
239,14.125,13.88,1.0,0.18952617099658642,0.7508522927913446,0.18972385120416757,0.5866048902905188,0.20572174425686418,0.7917726108134879
240,14.165,13.93,0.97,0.1880573593717172,0.7498129083052941,0.1884936066895761,0.5856294083684972,0.20464466468392528,0.7914393340159913
241,14.227,13.99,0.95,0.18658158206962427,0.7487868999528297,0.18725825209928126,0.5846760830275319,0.20356627597669336,0.7911117624120498
242,14.291,14.04,1.04,0.1850996812149185,0.7477744057861047,0.18601856607216002,0.5837455571521585,0.2024871919267861,0.790790442957163
243,14.331,14.1,1.0,0.1836124990327091,0.7467755494454735,0.18477532493637067,0.5828384571339528,0.20140803049787687,0.7904759050306853
244,14.393,14.15,0.93,0.18212087743444969,0.7457904403005193,0.18352930229500633,0.5819553927315447,0.20032941365775062,0.7901686603911067
245,14.475,14.21,0.99,0.18062565760750504,0.7448191736003315,0.18228126861666022,0.5810969569385117,0.19925196720100624,0.789869203152452
246,14.495,14.26,1.0,0.1791276796087645,0.7438618306319291,0.18103199083105245,0.5802637258588369,0.19817632056231127,0.7895780097811658
247,14.557,14.32,0.89,0.17762778196263407,0.7429184788854365,0.1797822319298556,0.5794562585895493,0.19710310662013394,0.7892955391128039
248,14.618,14.37,0.93,0.1761268012636934,0.7419891722245527,0.17853275057282572,0.5786750971102158,0.19603296149088154,0.789022232387923
249,14.658,14.43,0.97,0.17462557178422125,0.7410739510610215,0.1772843006993138,0.5779207661791116,0.19496652431337055,0.788758513306695
250,14.74,14.48,0.9,0.17312492508671803,0.7401728425320274,0.17603763114521684,0.5771937732360536,0.19390443702354443,0.7885047881019154
251,14.8,14.54,0.9,0.17162568964147923,0.7392858606797112,0.17479348526541194,0.5764946083120193,0.1928473441193423,0.7882614456302052
252,14.821,14.59,1.0,0.17012869044922338,0.7384130066322159,0.17355260056169736,0.575823743945795,0.19179589241561873,0.7880288574812281
253,14.882,14.65,0.96,0.1686347486687599,0.7375542687857819,0.17231570831625315,0.5751816351078894,0.19075073078902924,0.7878073781046794
254,14.943,14.7,0.92,0.16714468124969442,0.7367096229873571,0.1710835332306308,0.5745687191318154,0.18971250991281735,0.7875973449547007
255,14.983,14.76,1.01,0.1656593005701947,0.735879032717023,0.1698567930702748,0.5739854156526784,0.18868188198148322,0.7873990786512238
256,15.046,14.81,1.02,0.1641794140798802,0.7350624492693004,0.16863619831457993,0.5734321265528325,0.18765950042537458,0.7872128831575763
257,15.107,14.87,0.94,0.16270582394792896,0.7342598119322015,0.16742245181249163,0.5729092359142559,0.18664601961530272,0.7870390459735723
258,15.168,14.92,0.99,0.1612393267164944,0.7334710481629106,0.16621624844365948,0.5724171099773167,0.18564209455734623,0.7868778383432945
259,15.229,14.98,1.04,0.15978071295951243,0.7326960737591627,0.16501827478517792,0.5719560971057301,0.1846483805780705,0.7867295154767825
260,15.291,15.03,0.93,0.15833076694697173,0.7319347930256842,0.16382920878400142,0.5715265277576388,0.18366553300044489,0.7865943167849272
261,15.311,15.09,0.92,0.15689026631471362,0.7311870989354078,0.1626497194351807,0.5711287144628884,0.18269420681078585,0.786472466126988
262,15.394,15.14,0.98,0.15545998173982134,0.7304528732854962,0.16148046646612146,0.5707629518067047,0.18173505631709108,0.7863641720702634
263,15.435,15.2,0.91,0.15404067662166093,0.7297319868484513,0.16032210002711647,0.5704295164200258,0.18078873479914945,0.7862696281615579
264,15.539,15.25,0.87,0.15263310676861835,0.7290242995187519,0.1591752603884207,0.5701286669767336,0.17985589415081046,0.7861890132101851
265,15.56,15.31,0.95,0.15123802009053444,0.7283296604555728,0.15804057764411233,0.5698606441980208,0.17893718451478743,0.7861224915822715
266,15.602,15.36,0.94,0.1498561562967884,0.7276479082220942,0.15691867142292673,0.5696256708640666,0.1780332539103681,0.7860702135059904
267,15.664,15.42,0.87,0.148488246599935,0.7269788709217175,0.1558101506061821,0.5694239518330793,0.17714474785440565,0.7860323153871712
268,15.746,15.47,0.93,0.1471350134247632,0.7263223663312551,0.1547156130528549,0.569255674067651,0.17627230897598467,0.7860089201345293
269,15.766,15.53,0.96,0.14579717012264817,0.7256782020308932,0.15363564533184307,0.5691210066682644,0.1754165766251885,0.7860001374935899
270,15.827,15.58,0.87,0.14447542069111732,0.7250461755304916,0.1525708224614878,0.5690201009136705,0.17457818647643697,0.7860060643883582
271,15.909,15.64,0.91,0.1431704594985958,0.7244260743917771,0.1515217076564714,0.5689530903078736,0.17375777012689939,0.7860267852698652
272,15.929,15.69,0.96,0.14188297101431666,0.7238176763462367,0.15048885208225626,0.5689200906336018,0.17295595469052794,0.786062372470852
273,15.991,15.75,0.92,0.14061362954336798,0.7232207494089693,0.14947279461725976,0.5689212000123529,0.17217336238829517,0.7861128865659761
274,16.051,15.8,0.88,0.13936309896679952,0.7226350519892916,0.14847406162297513,0.5689564989712849,0.1714106101352542,0.7861783767370248
275,16.113,15.86,0.95,0.13813203248664802,0.7220603329993857,0.14749316672223456,0.5690260505173624,0.17066830912508418,0.7862588811426041
276,16.174,15.91,0.89,0.13692107237570533,0.7214963319624921,0.14653061058579886,0.569129900219158,0.16994706441283292,0.7863544272916301
277,16.215,15.97,0.78,0.13573084973186147,0.7209427791220743,0.14558688072744452,0.5692680762965793,0.16924747449660646,0.7864650324197405
278,16.276,16.02,0.81,0.13456198423688695,0.7203993955530916,0.14466245130770325,0.5694405897186146,0.1685701308989777,0.7865907038675515
279,16.317,16.08,0.8,0.1334150839195757,0.7198658932761156,0.14375778294641048,0.5696474343089841,0.16791561774887828,0.7867314394595706
280,16.399,16.13,0.7,0.13229074492321347,0.7193419753746633,0.14287332254423615,0.5698885868593502,0.16728451136469089,0.7868872278826338
281,16.42,16.19,0.73,0.13118955127733029,0.7188273361160008,0.14200950311338123,0.5701640072496028,0.1666773798391845,0.7870580490629453
282,16.482,16.24,0.77,0.1301120746736468,0.7183216610757885,0.1411667436176217,0.570473638574717,0.16609478262686342,0.7872438745410294
283,16.524,16.3,0.73,0.12905887424607201,0.7178246272671646,0.14034544882187622,0.570817407277703,0.16553727013424327,0.7874446678441199
284,16.587,16.35,0.72,0.12803049635456945,0.7173359032751329,0.13954600915146115,0.5711952232882342,0.16500538331352843,0.7876603848556788
285,16.649,16.41,0.8,0.12702747437270265,0.7168551493973596,0.1387688005611828,0.5716069801666009,0.16449965326016167,0.7878909741817746
286,16.691,16.46,0.75,0.12605032847871564,0.7163820177925794,0.138014184414418,0.5720525552526028,0.16402060081473446,0.7881363775139517
287,16.751,16.52,0.69,0.12509956545007758,0.7159161526377329,0.13728250737233696,0.5725318098188575,0.16356873616977846,0.7883965299880363
288,16.812,16.57,0.74,0.12417567846150014,0.7154571902947336,0.13657410129342012,0.5730445892278289,0.16314455848199041,0.7886713605381016
289,16.874,16.63,0.74,0.12327914688651052,0.7150047594874374,0.13588928314342621,0.5735907230916959,0.16274855549047182,0.7889607922446239
290,16.914,16.68,0.65,0.12241043610270402,0.7145584814890802,0.1352283549159674,0.5741700254340615,0.16238120314156773,0.7892647426758163
291,17.036,16.74,0.68,0.12156999730078702,0.7141179703203713,0.13459160356382227,0.5747822948526148,0.16204296522088157,0.7895831242212151
292,17.056,16.79,0.7,0.12075826729748794,0.7136828329585194,0.13397930094107338,0.5754273146822083,0.16173429299303135,0.7899158444167445
293,17.097,16.85,0.61,0.11997566835239487,0.7132526695576583,0.13339170375612103,0.5761048531582263,0.16145562484969672,0.7902628062606563
294,17.158,16.9,0.57,0.11922260798877368,0.7128270736812994,0.13282905353560437,0.5768146635804408,0.16120738596647752,0.7906239085199138
295,17.198,16.96,0.65,0.11849947881843781,0.712405632547535,0.1322915765992554,0.5775564844776926,0.16098998796904998,0.7909990460266973
296,17.24,17.01,0.57,0.11780665837078587,0.7119879272876046,0.1317794840457175,0.5783300397736733,0.16080382860905917,0.791388109964749
297,17.301,17.07,0.54,0.1171445089261728,0.7115735332181455,0.13129297174935883,0.5791350389538403,0.16064929145012505,0.7917909881452685
298,17.384,17.12,0.63,0.11651337735381483,0.7111620201270704,0.13083222036807796,0.5799711772332442,0.1605267455642873,0.7922075652719702
299,17.405,17.18,0.64,0.11591359495445071,0.7107529525725808,0.1303973953620631,0.5808381357247782,0.16043654523917314,0.7926377231947431
300,17.466,17.23,0.56,0.1153454773079877,0.7103458901945048,0.1299886470234307,0.5817355816071712,0.16037902969615067,0.7930813411511894
301,17.528,17.29,0.62,0.11480932412634798,0.7099403880370233,0.1296061105166414,0.5826631682919919,0.16035452281973184,0.7935382959951983
302,17.571,17.34,0.66,0.11430541911172826,0.7095359968819465,0.12924990592959737,0.5836205355889993,0.16036333289851643,0.7940084624116421
303,17.631,17.4,0.56,0.1138340298205098,0.7091322635918909,0.12892013833536395,0.5846073098692519,0.16040575237799623,0.7944917131163313
304,17.692,17.45,0.56,0.11339540753308712,0.7087287314629679,0.12861689786451283,0.585623104225506,0.16048205762555307,0.7949879190405313
305,17.755,17.51,0.61,0.11298978712991566,0.70832494058688,0.12834025978813135,0.5866675186296044,0.16059250870799088,0.7954969494995539
306,17.816,17.56,0.55,0.11261738697410024,0.7079204282226116,0.12809028461157743,0.5877401400867742,0.16073734918192942,0.7960186723451521
307,17.858,17.62,0.51,0.11227840880082418,0.7075147291782059,0.12786701817905585,0.5888405427870103,0.16091680589735594,0.796552954101693
308,17.92,17.67,0.59,0.11197303761385635,0.7071073762034477,0.1276704917890442,0.5899682882539826,0.1611310888145962,0.7970996600862098
309,17.98,17.73,0.56,0.11170144158930247,0.7066979003944203,0.1275007223205306,0.5911229254920315,0.16138039083493377,0.797658654512477
310,18.021,17.78,0.46,0.11146377198670608,0.7062858316108825,0.12735771236996044,0.5923039911317574,0.16166488764507855,0.7982298005791755
311,18.125,17.84,0.51,0.11126016306756098,0.7058706989072181,0.12724145039872087,0.5935110095745967,0.1619847375756593,0.798812960542103
312,18.145,17.89,0.53,0.11109073202128401,0.7054520309773781,0.1271519108909404,0.5947434931366125,0.16234008147388657,0.7994079957702817
313,18.187,17.95,0.44,0.11095557889871446,0.7050293566138779,0.1270890545213486,0.596000942191591,0.1627310425904847,0.8000147667858607
314,18.247,18.0,0.5,0.11085478655321608,0.7046022051806864,0.12705282833291995,0.5972828453135117,0.16315772648093205,0.8006331332879345
315,18.31,18.06,0.57,0.11078842058946126,0.7041701070998655,0.1270431659240161,0.5985886794185852,0.16362022092100176,0.8012629541606933
316,18.372,18.11,0.53,0.11075652931998196,0.7037325943519798,0.1270599876447464,0.5999179099072566,0.16411859583656732,0.8019040874666064
317,18.414,18.17,0.51,0.11075914372958934,0.7032892009904737,0.1271032008022664,0.60126999080682,0.1646529032476312,0.8025563904255629
318,18.496,18.22,0.61,0.11079627744781709,0.7028394636702222,0.12717269987472526,0.6026443649155642,0.1652231772265562,0.8032197193809524
319,18.516,18.28,0.57,0.11086792672964281,0.7023829221902317,0.12726836673357006,0.6040404639495097,0.16582943387051446,0.8038939297535846
320,18.576,18.33,0.5,0.11097407044484381,0.7019191200501019,0.12739007087391951,0.6054577086927859,0.16647167128819726,0.8045788759842089
321,18.639,18.39,0.55,0.11111467007642052,0.701447605019537,0.12753766965272365,0.606895509152566,0.1671498696008506,0.8052744114652562
322,18.681,18.44,0.56,0.11128966972858115,0.7009679297198634,0.12771100853444334,0.6083532647192924,0.1678639909577085,0.805980388462333
323,18.743,18.5,0.48,0.11149899614481673,0.7004796522162678,0.12790992134400636,0.609830364332739,0.1686139795658796,0.8066966580260301
324,18.786,18.55,0.51,0.11174255873656964,0.6999823366194352,0.12813423052680864,0.6113261866543975,0.16939976173470986,0.8074230698947499
325,18.847,18.61,0.56,0.11202024962292687,0.6994755536954597,0.12838374741552866,0.6128401002467778,0.1702212459346092,0.8081594723893931
326,18.91,18.66,0.5,0.11233194368168782,0.6989588814831426,0.12865827250353032,0.6143714637603149,0.17107832287029326,0.8089057123008708
327,18.953,18.72,0.49,0.11267749861208581,0.6984319059180174,0.1289575957246289,0.6159196261286844,0.17197086556835503,0.8096616347714671
328,19.013,18.77,0.57,0.11305675500939212,0.697894221462587,0.12928149673898856,0.617483926773352,0.17289872947905413,0.8104270831710382
329,19.054,18.83,0.53,0.11346953645161442,0.6973454317422475,0.12962974522491733,0.6190636958181132,0.1738617525921962,0.8112018989688986
330,19.12,18.88,0.49,0.11391564959849688,0.6967851501862234,0.13000210117631147,0.6206582543142198,0.1748597555669573,0.811985921602088
331,19.224,18.94,0.55,0.11439488430302204,0.6962130006726277,0.13039831520547834,0.6222669144765239,0.1758925418755005,0.8127789883405724
332,19.245,18.99,0.57,0.11490701373561124,0.6956286181765112,0.13081812885104072,0.6238889799309084,0.17695989796022346,0.8135809341498409
333,19.287,19.05,0.5,0.11545179452121025,0.6950316494195702,0.13126127489061234,0.6255237459731262,0.17806159340446306,0.8143915915513715
334,19.329,19.1,0.56,0.11602896688941401,0.6944217535201432,0.13172747765791645,0.6271704998391341,0.1791973811164714,0.8152107904815745
335,19.391,19.16,0.6,0.11663825483775009,0.6937986026422738,0.13221645336402169,0.628828520987087,0.18036699752647137,0.8160383581500015
336,19.453,19.21,0.52,0.1172793663082115,0.6931618826428407,0.1327279104223975,0.630497081391255,0.18157016279659796,0.8168741188977716
337,19.494,19.27,0.51,0.11795199337710556,0.6925112937160305,0.1332615497775308,0.6321754458482332,0.1828065810435272,0.8177178940573376
338,19.618,19.32,0.59,0.11865581245827646,0.6918465510346344,0.1338170652368821,0.633862872295905,0.18407594057358517,0.8185695018147896
339,19.639,19.38,0.53,0.11939048451977473,0.6911673853876809,0.13439414380599934,0.6355586121456279,0.18537791413010837,0.8194287570759567
340,19.68,19.43,0.49,0.12015565531406662,0.6904735438137796,0.13499246602662895,0.6372619106279906,0.1867121591527867,0.8202954713375714
341,19.743,19.49,0.59,0.12095095562187258,0.6897647902293278,0.135611706317656,0.638972007152344,0.18807831804868025,0.8211694525646603
342,19.804,19.54,0.6,0.12177600150969907,0.6890409060504398,0.13625153331866838,0.6406881356801135,0.18947601847456763,0.8220505050751254
343,19.824,19.6,0.54,0.12263039460107118,0.6883016908071807,0.13691161023589077,0.6424095251117691,0.19090487363025535,0.822938429432209
344,19.886,19.65,0.62,0.12351372236139932,0.6875469627485388,0.13759159519017136,0.6441353996873335,0.19236448256246563,0.8238330223453091
345,19.969,19.71,0.66,0.12442555839635948,0.6867765594365199,0.1382911415666685,0.6458649794003801,0.1938544304789308,0.8247340765793932
346,19.989,19.76,0.57,0.12536546276365265,0.6859903383277846,0.1390098983658929,0.647597480425539,0.19537428907233634,0.8256413808731837
347,20.05,19.82,0.59,0.1263329822980135,0.685188177341389,0.13974751055579446,0.6493321155595762,0.19692361685376883,0.8265547198663381
348,20.113,19.87,0.66,0.12732765094935392,0.6843699754114051,0.14050361942462425,0.6510680946761986,0.19850195949533303,0.8274738740359486
349,20.176,19.93,0.62,0.1283489901339382,0.6835356530234212,0.14127786293433942,0.6528046251947769,0.20010885018159796,0.8283986196428169
350,20.237,19.98,0.62,0.12939650909846473,0.682685152734209,0.14206987607432706,0.6545409125632432,0.20174380996951286,0.8293287286880837
351,20.32,20.04,0.72,0.13046970529686513,0.6818184396741308,0.1428792912151983,0.6562761607554476,0.20340634815641934,0.8302639688808067
352,20.341,20.09,0.69,0.1315680647795574,0.6809355020320261,0.14370573846237444,0.6580095727831807,0.2050959626557851,0.8312041036169475
353,20.381,20.15,0.6,0.13269106259482594,0.6800363515222689,0.14454884600916648,0.6597403512228541,0.20681214038029538,0.8321488919699929
354,20.443,20.2,0.65,0.13383816320195197,0.6791210238334606,0.14540824048903914,0.6614676987565862,0.20855435763195368,0.8330980886931718
355,20.505,20.26,0.68,0.1350088208957074,0.6781895790578483,0.14628354732676058,0.663190818727198,0.2103220804988484,0.8340514442330009
356,20.546,20.31,0.59,0.13620248024183923,0.6772421021001265,0.1471743910881645,0.6649089157064298,0.21211476525821363,0.8350087047538287
357,20.608,20.37,0.64,0.1374185765231599,0.6762787030640314,0.1480803958282576,0.6666211960756618,0.2139318587853577,0.835969612173138
358,20.69,20.42,0.71,0.13865653619580734,0.6752995176151578,0.1490011854373899,0.6683268686185584,0.21577279896797963,0.8369339042075082
359,20.711,20.48,0.68,0.13991577735515479,0.6743047073186753,0.14993638398518322,0.6700251451252206,0.21763701512534897,0.8379013144292847
360,20.773,20.53,0.67,0.14119571021074026,0.6732944599510672,0.15088561606189427,0.6717152410075825,0.21952392843179297,0.838871572334141
361,20.813,20.59,0.78,0.1424957375694875,0.6722689897855214,0.1518485071168677,0.6733963759258879,0.22143295234392987,0.8398444034197672
362,20.874,20.64,0.76,0.1438152553264403,0.6712285378509424,0.15282468379373673,0.6750677744260764,0.22336349303109962,0.8408195292758511
363,20.935,20.7,0.7,0.1451536529622287,0.670173372164641,0.15381377426203124,0.6767286665877841,0.22531494980846217,0.8417966676853721
364,20.995,20.75,0.77,0.14651031404651246,0.6691037879386297,0.1548154085448581,0.6783782886825063,0.22728671557225547,0.8427755327370565
365,21.079,20.81,0.79,0.14788461674670442,0.6680201077591795,0.15582921884233134,0.6800158838412974,0.22927817723672647,0.8437558349486791
366,21.099,20.86,0.71,0.14927593434133346,0.6669226817390369,0.1568548398504626,0.681640702731235,0.2312887161722502,0.844737281400876
367,21.162,20.92,0.76,0.15068363573741986,0.6658118876416709,0.15789190907524403,0.6832520042398615,0.23331770864413584,0.8457195758812491
368,21.224,20.97,0.81,0.15210708599120631,0.664688130977128,0.15894006714167916,0.6848490561669242,0.23536452625160267,0.846702419038717
369,21.306,21.03,0.76,0.153545646831544,0.6635518450693764,0.1599989580975468,0.6864311359228233,0.2374285363663842,0.8476855085482595
370,21.327,21.08,0.75,0.15499867718518054,0.6624034910953578,0.1610682297117032,0.6879975312332457,0.23950910257039204,0.8486685392863588
371,21.369,21.14,0.85,0.15646553370314825,0.6612435580962629,0.16214753376673446,0.6895475408494884,0.24160558509184954,0.8496512035174708
372,21.431,21.19,0.84,0.15794557128742198,0.6600725629617029,0.16323652634577046,0.6910804752638998,0.2437173412392868,0.8506331910917737
373,21.514,21.25,0.81,0.1594381436169963,0.6588910503873907,0.1643348681132512,0.69259565742969,0.24584372583277195,0.85161418965424
374,21.534,21.3,0.91,0.16094260367252985,0.6576995928067165,0.16544222458938287,0.6940924234841991,0.24798409163174964,0.8525938848648528
375,21.595,21.36,0.96,0.16245830425873264,0.6564987902962094,0.1665582664179432,0.6955701234746032,0.2501377897588768,0.8535719606295324
376,21.657,21.41,0.89,0.16398459852371663,0.6552892704545035,0.16768266962701472,0.6970281220850321,0.25230417011927064,0.8545480993412036
377,21.699,21.47,0.98,0.16552084047456758,0.6540716882542132,0.16881511588216383,0.6984657993642145,0.2544825818146286,0.8555219821304108
378,21.801,21.52,1.05,0.16706638548843025,0.6528467258660992,0.16995529273157062,0.6998825514529865,0.2566723735517302,0.8564932891249417
379,21.821,21.58,0.98,0.16862059081844685,0.6516150924550071,0.1711028938426589,0.7012777913111372,0.2588728940448891,0.8574616997180268
380,21.862,21.63,0.99,0.1701828160939275,0.6503775239472743,0.17225761922984253,0.702650949443132,0.26108349241197154,0.8584268928448023
381,21.924,21.69,1.08,0.1717524238141724,0.64913478276956,0.17341917547308017,0.7040014746222039,0.2633035185636536,0.8593885472667867
382,21.985,21.74,1.04,0.17332877983542716,0.6478876575591551,0.17458727592700873,0.7053288346121229,0.265532323585624,0.8603463418641022
383,22.046,21.8,1.0,0.17491125385051887,0.6466369628457456,0.1757616409204828,0.7066325168856792,0.2677692601134593,0.8612999559351272
384,22.108,21.85,1.09,0.17649921986076997,0.645383538704381,0.1769419979463641,0.7079120293386095,0.27001368269990544,0.8622490695031366
385,22.189,21.91,1.1,0.178092056639814,0.6441282503790886,0.17812808184140344,0.7091669009974099,0.2722649481743045,0.8631933636292739
386,22.21,21.96,1.04,0.17968914818893297,0.6428719878762866,0.1793196349560346,0.7103966827192312,0.27452241599390426,0.8641325207309919
387,22.251,22.02,1.12,0.18128988418348999,0.6416156655270507,0.18051640731385782,0.7116009478820383,0.27678544858678317,0.8650662249049269
388,22.312,22.07,1.18,0.18289366040998034,0.6403602215173719,0.1817181567605516,0.7127792930633297,0.2790534116861361,0.8659941622530167
389,22.373,22.13,1.1,0.18449987919318558,0.6391066173857737,0.18292464910194922,0.7139313387058869,0.28132567465567937,0.8669160212106262
390,22.416,22.18,1.12,0.18610794981288933,0.6378558374879902,0.1841356582310405,0.71505672976918,0.28360161080596064,0.8678314928755176
391,22.477,22.24,1.21,0.1877172889096103,0.6366088884287501,0.18535096624370215,0.7161551363652056,0.2858805977013808,0.8687402713366669
392,22.519,22.29,1.18,0.18932732087882712,0.6353667984610003,0.18657036354301285,0.7172262543776229,0.2881620174577576,0.869642054002155
393,22.6,22.35,1.16,0.1909374782531819,0.6341306168531997,0.1877936489320418,0.7182698060631422,0.2904452570302641,0.8705365419256238
394,22.662,22.4,1.28,0.1925472020721488,0.6329014132255467,0.18902062969499897,0.7192855406342057,0.29272970849158936,0.8714234401309165
395,22.703,22.46,1.29,0.19415594223867114,0.6316802768560591,0.19025112166662742,0.7202732348219991,0.2950147693001959,0.8723024579345282
396,22.786,22.51,1.22,0.1957631578623215,0.6304683159572362,0.19148494928971527,0.7212326934187062,0.29729984255857705,0.8731733092653856
397,22.807,22.57,1.29,0.19736831758860643,0.6292666569237462,0.19272194566060935,0.7221637497977647,0.2995843372614727,0.8740357129813402
398,22.891,22.62,1.32,0.19897089991412484,0.6280764435512628,0.19396195256264404,0.7230662664107209,0.30186766853404523,0.8748893931815972
399,22.911,22.68,1.19,0.2005703934873806,0.6268988362263114,0.19520482048745594,0.7239401352591015,0.3041492578600592,0.8757340795142431
400,22.974,22.73,1.25,0.2021662973951003,0.6257350110869421,0.1964504086442075,0.7247852783396448,0.30642853330011494,0.8765695074780793
401,23.015,22.79,1.35,0.20375812143390892,0.6245861591542217,0.19769858495677442,0.7256016480612872,0.3087049296999743,0.8773954187180742
402,23.075,22.84,1.31,0.2053453863671871,0.6234534854348434,0.19894922604896764,0.7263892276324193,0.3109778888889842,0.8782115613138849
403,23.136,22.9,1.31,0.20692762416688076,0.6223382079955271,0.20020221721785633,0.7271480314170994,0.31324685986857465,0.8790176900610331
404,23.177,22.95,1.43,0.20850437823997459,0.6212415570102581,0.20145745239523502,0.7278781052591319,0.31551129899080727,0.8798135667443476
405,23.281,23.01,1.42,0.2100752036393224,0.6201647737816068,0.20271483409726368,0.7285795267730485,0.3177706701269884,0.8805989604031849
406,23.3,23.06,1.36,0.21163966725855654,0.6191091097373489,0.20397427336230803,0.7292524056010345,0.32002444482641734,0.881373647587784
407,23.341,23.12,1.44,0.21319734801087323,0.6180758254033618,0.20523568967701505,0.7298968836347886,0.32227210246539634,0.8821374126059498
408,23.423,23.17,1.47,0.21474783699161878,0.6170661893533844,0.20649901089068975,0.7305131352012145,0.3245131303866881,0.8828900477591194
409,23.465,23.23,1.39,0.2162907376247447,0.6160814771358096,0.2077641731181005,0.7311013672107342,0.32674702402963596,0.8836313535668546
410,23.526,23.28,1.43,0.21782566579330379,0.615122970177504,0.20903112063090246,0.7316618192669714,0.3289732870511789,0.8843611389789224
411,23.567,23.34,1.48,0.2193522499542101,0.6141919546647462,0.21029980573792192,0.7321947637366459,0.331191431438,0.8850792215742707
412,23.629,23.39,1.42,0.2208701312374841,0.613289720401693,0.21157018865459723,0.7327005057786066,0.33340097761004417,0.8857854277463748
413,23.692,23.45,1.4,0.22237896353016146,0.6124175596471942,0.21284223736190602,0.7331793833310482,0.3356014545156283,0.8864795928745604
414,23.732,23.5,1.49,0.2238784135449861,0.611576765931174,0.21411592745512845,0.733631767056062,0.3377923997183534,0.8871615614809423
415,23.793,23.56,1.46,0.22536816087397896,0.6107686328519415,0.21539124198280446,0.7340580602406832,0.3399733594760117,0.8878311873725288
416,23.853,23.61,1.42,0.2268478980269651,0.6099944528557018,0.2166681712762266,0.7344586986535465,0.34214388881165564,0.8884883337678963
417,23.915,23.67,1.5,0.22831733045515173,0.6092555159992628,0.21794671276976635,0.7348341503561688,0.3443035515769717,0.889132873407683
418,23.999,23.72,1.54,0.22977617655987498,0.6085531086965827,0.2192268708122899,0.7351849154677973,0.346451920508092,0.8897646886480414
419,24.018,23.78,1.48,0.23122416768665743,0.6078885124495289,0.220508656469885,0.7355115258827993,0.34858857727396275,0.8903836715362095
420,24.06,23.83,1.55,0.23266104810471624,0.6072630025632382,0.22179208732007447,0.735814544939951,0.3507131125173929,0.8909897238675341
421,24.122,23.89,1.61,0.23408657497204416,0.6066778468467499,0.22307718723765213,0.7360945670436131,0.3528251258889248,0.8915827572234867
422,24.185,23.94,1.58,0.2355005182861862,0.6061343042999531,0.22436398617227374,0.7363522172373802,0.3549242260736981,0.8921626929904223
423,24.227,24.0,1.58,0.23690266082085654,0.6056336237882569,0.22565251991796442,0.7365881507312005,0.3570100308115102,0.8927294623590091
424,24.289,24.05,1.67,0.23829279804857828,0.6051770427066782,0.22694282987475436,0.7368030523832146,0.35908216691031475,0.8932830063042922
425,24.37,24.11,1.63,0.2396707380495935,0.6047657856351428,0.22823496280270802,0.7369976361376411,0.3611402702534398,0.8938232755462695
426,24.39,24.16,1.55,0.24103630140735505,0.6044010629867119,0.2295289705686495,0.7371726444199977,0.36318398580083483,0.8943502304906773
427,24.451,24.22,1.62,0.24238932109096156,0.6040840696502084,0.2308249098858828,0.7373288474908658,0.36521296758467453,0.8948638411494578
428,24.513,24.27,1.63,0.24372964232493327,0.6038159836283697,0.23212284204718547,0.737467042759298,0.3672268786996443,0.8953640870401898
429,24.554,24.33,1.55,0.24505712244673203,0.6035979646723144,0.2334228326513174,0.737588054056869,0.36922539128820253,0.8958509570636999
430,24.616,24.38,1.56,0.24637163075238372,0.6034311529129784,0.23472495132323276,0.7376927308733954,0.3712081865210612,0.8963244493591767
431,24.678,24.44,1.66,0.2476730483304916,0.603316667490259,0.23602927142813954,0.7377819475554889,0.3731749545730794,0.8967845711362659
432,24.761,24.49,1.59,0.24896126788486161,0.603255605180867,0.2373358697795321,0.7378566024692604,0.375125394594709,0.8972313384839309
433,24.781,24.55,1.6,0.2502361935459099,0.6032490390262667,0.2386448263413301,0.737917617128617,0.3770592146790817,0.8976647761562905
434,24.844,24.6,1.7,0.2514977406710085,0.6032980169624562,0.23995622392428967,0.7379659352906845,0.37897613182479506,0.8980849173361186
435,24.886,24.66,1.65,0.252745835633965,0.6034035604535418,0.24127014787691495,0.7380025220198552,0.38087587189444383,0.8984918033770684
436,24.949,24.71,1.63,0.2539804156039078,0.60356666313104,0.24258668577116424,0.7380283627218402,0.38275816956894027,0.898885483525919
437,25.012,24.77,1.74,0.25520142831392184,0.603788289440676,0.24390592708328732,0.738044462148986,0.3846227682976737,0.8992660146262202
438,25.095,24.82,1.75,0.25640883181984747,0.6040693732981773,0.24522796287015958,0.7380518433779657,0.38646942024456526,0.8996334608046649
439,25.116,24.88,1.69,0.2576025942497008,0.6044108167552918,0.24655288544149215,0.7380515467608095,0.3882978862300761,0.8999878931414369
440,25.158,24.93,1.75,0.2587826935441935,0.6048134886770968,0.2478807880282975,0.7380446288501943,0.3901079356692422,0.9003293893257085
441,25.22,24.99,1.78,0.25994911718885283,0.6052782234316352,0.2492117644479926,0.7380321612999766,0.39189934650583,0.9006580332973593
442,25.282,25.04,1.7,0.2611018619382631,0.6058058195929923,0.25054590876653754,0.7380152297420404,0.39367190514272876,0.9009739148759566
443,25.344,25.1,1.71,0.2622409335329485,0.606397038659156,0.2518833149580176,0.7379949326406388,0.3954254063686856,0.9012771293780804
444,25.404,25.15,1.81,0.2633663464093955,0.6070526037862849,0.2532240765620692,0.7379723801255197,0.3971596532814818,0.9015677772241301
445,25.465,25.21,1.78,0.26447812340367993,0.6077731985412635,0.2545682863395417,0.7379486928051885,0.39887445720761155,0.9018459635357879
446,25.485,25.26,1.77,0.2655762954491074,0.6085594656746428,0.2559160359267474,0.7379250005617546,0.40056963761849657,0.9021117977252788
447,25.547,25.32,1.88,0.26666090126821435,0.60941200591622,0.2572674154886053,0.7379024413289422,0.4022450220432551,0.9023653930774328
448,25.61,25.37,1.89,0.26773198705945234,0.6103313767955091,0.258622513370935,0.7378821598549195,0.40390044597805946,0.9026068663252971
449,25.672,25.43,1.83,0.26878960617889,0.6113180914891713,0.2599814157521428,0.7378653064515546,0.40553575279214615,0.9028363372198176
450,25.714,25.48,1.91,0.26983381881731777,0.6123726176972213,0.26134420629454663,0.7378530357316105,0.4071507936305807,0.9030539280939197
451,25.777,25.54,1.96,0.2708646916732281,0.6134953765494986,0.2627109657956322,0.7378465053352399,0.4087454273139252,0.9032597634211874
452,25.858,25.59,1.88,0.2718822976222563,0.6146867415435795,0.2640817718396198,0.7378468746469558,0.4103195202349927,0.903453969369336
453,25.878,25.65,1.92,0.27288671538375425,0.6159470375151749,0.2654566984498099,0.7378553035041414,0.41187294625289994,0.9036366733487536
454,25.939,25.7,1.97,0.2738780291852057,0.6172765396421559,0.2668358157422408,0.7378729508982053,0.41340558658465476,0.9038080035565225
455,26.0,25.76,1.91,0.27485632842517654,0.6186754724836282,0.26821918958122853,0.7379009736696316,0.4149173296945272,0.9039680885164603
456,26.042,25.81,1.88,0.2758217073354102,0.6201440090559082,0.26960688123735466,0.7379405251984095,0.4164080711814517,0.9041170566158608
457,26.103,25.87,1.96,0.2767742646425388,0.6216822699477451,0.27099894704842525,0.7379927540915661,0.4178777136646902,0.9042550356396444
458,26.205,25.92,1.93,0.27771410322974815,0.6232903224774387,0.27239543808387867,0.7380588028696183,0.4193261666679636,0.904382152302561
459,26.225,25.98,1.88,0.27864132979862627,0.6249681798945079,0.27379639981307563,0.7381398066536705,0.42075334650221746,0.9044985317799438
460,26.267,26.03,1.95,0.27955605453136695,0.6267158006283372,0.27520187177785704,0.7382368918547078,0.4221591761471542,0.9046042972373411
461,26.329,26.09,2.0,0.280458390753501,0.6285330875857965,0.27661188726973723,0.7383511748663898,0.42354358513162815,0.9046995693592039
462,26.39,26.14,1.92,0.2813484545973723,0.6304198874993862,0.2780264730121171,0.7384837607623815,0.4249065094129792,0.9047844658767737
463,26.431,26.2,2.0,0.2822263646666265,0.6323759903271866,0.27944564884794176,0.7386357419991001,0.4262478912553601,0.9048591010954508
464,26.513,26.25,2.07,0.2830922417020221,0.6344011287058432,0.28086942743327065,0.7388081971247816,0.4275676791071131,0.904923585422114
465,26.576,26.31,2.04,0.283946208248909,0.6364949774579296,0.2822978139372852,0.7390021894958922,0.4288658274772672,0.9049780248930962
466,26.596,26.36,2.04,0.2847883883267392,0.6386571531552707,0.28373080574930815,0.7392187660021214,0.4301422968112482,0.9050225207036953
467,26.659,26.42,2.13,0.2856189071009902,0.6408872137400543,0.28516839219343676,0.7394589558014387,0.431397053365936,0.905057168740148
468,26.701,26.47,2.1,0.2864378905579144,0.6431846582056777,0.28661055425142645,0.7397237690668169,0.4326300690842523,0.9050820591148799
469,26.764,26.53,2.04,0.2872454651825586,0.645548926339198,0.28805726429447587,0.7400141957462248,0.43384132146950305,0.9050972757056898
470,26.826,26.58,2.1,0.28804175764051154,0.6479793985270389,0.2895084858245522,0.7403312043374454,0.43503079345973156,0.9051028956993852
471,26.888,26.64,2.12,0.28882689446384907,0.6504753956252712,0.29096417322587587,0.7406757406791944,0.4361984733023523,0.9050989891402835
472,26.93,26.69,2.03,0.289601001741744,0.6530361788954403,0.2924242715271599,0.741048726759903,0.4373443544293294,0.9050856184840366
473,26.99,26.75,2.08,0.2903642048161707,0.6556609500067356,0.29388871617517165,0.7414510595454777,0.4384684353331396,0.9050628381573703
474,27.051,26.8,2.15,0.2911166279830726,0.6583488511053142,0.2953574328201494,0.7418836098273963,0.4395707194437339,0.9050306941244908
475,27.112,26.86,2.1,0.2918583941992906,0.661098964951731,0.2968303371135805,0.7423472210925925,0.4406512150066858,0.9049892234610397
476,27.174,26.91,2.11,0.2925896247954658,0.6639103151276918,0.2983073345188072,0.7428427084167313,0.4417099349626898,0.9049384539365923
477,27.195,26.97,2.21,0.29331043919505384,0.6667818663136585,0.2997883201348964,0.7433708573826254,0.4427468968285682,0.9048784036067122
478,27.318,27.02,2.19,0.2940209546395447,0.6697125246390442,0.3012731785341999,0.7439324230255764,0.44376212257996056,0.9048090804155126
479,27.339,27.08,2.14,0.2947212859199934,0.6727011381067004,0.30276178361404943,0.7445281288073217,0.4447556385358951,0.9047304818095873
480,27.379,27.13,2.22,0.29541154511502793,0.6757464970930687,0.3042539984630398,0.7451586656201261,0.44572747524548073,0.9046425943640538
481,27.441,27.19,2.24,0.29609184133561384,0.6788473349247349,0.3057496752423648,0.7458246908223939,0.4466776673769946,0.9045453934213605
482,27.503,27.24,2.17,0.2967622804769794,0.6820023285313972,0.30724865508266325,0.7465268273070917,0.4476062536096632,0.9044388427435187
483,27.546,27.3,2.23,0.29742296497818244,0.6852100991747403,0.3087507679967968,0.7472656626043973,0.4485132765284504,0.9043228941785509
484,27.585,27.35,2.27,0.2980739935898413,0.6884692132524997,0.3102558328089507,0.7480417480202535,0.4493987825221824,0.9041974873421115
485,27.667,27.41,2.19,0.29871546115056546,0.6917781831770179,0.31176365710044895,0.7488555978127791,0.450262821685354,0.904062549315396
486,27.688,27.46,2.17,0.29934745837261634,0.6951354683277492,0.3132740371726986,0.7497076884086663,0.451105447723966,0.9039179943606388
487,27.749,27.52,2.24,0.29997007163731904,0.6985394760773214,0.31478675802769984,0.7505984576618024,0.45192671786574146,0.9037637236556032
488,27.833,27.57,2.18,0.3005833828007437,0.701988562890793,0.3163015933665787,0.7515283041563475,0.452726692775048,0.9035996250485604
489,27.915,27.63,2.14,0.30118746901016263,0.7054810354976377,0.31781830560657726,0.7524975865564366,0.4535054364728117,0.9034255728352933
490,27.936,27.68,2.25,0.3017824025317511,0.7090151521357896,0.3193366459168843,0.7535066230046298,0.45426301626165677,0.9032414275596313
491,27.978,27.74,2.27,0.30236825058995376,0.71258912386676,0.3208563542736025,0.7545556905711153,0.4549995026564626,0.903047035838879
492,28.038,27.79,2.21,0.3029450752188922,0.7162011159604378,0.32237715953407325,0.7556450247554783,0.4557149693204984,0.9028422302153265
493,28.101,27.85,2.29,0.30351293312615224,0.7198492493478291,0.3238987795307075,0.7567748190426672,0.45640949300729117,0.90262682903483
494,28.163,27.9,2.33,0.30407187556929033,0.7235316021396595,0.32542092118442717,0.7579452245146494,0.45708315350841805,0.9024006363532542
495,28.205,27.96,2.24,0.3046219482454326,0.7272462112084956,0.3269432806378265,0.7591563495191205,0.4577360336074547,0.9021634418714568
496,28.267,28.01,2.28,0.30516319119437285,0.730991073831946,0.32846554340817397,0.7604082593965695,0.45836821904034597,0.9019150208995454
497,28.308,28.07,2.37,0.3056956387155806,0.7347641493945735,0.3299873845603952,0.7617009762669948,0.45897979846249354,0.9016551343512155
498,28.349,28.12,2.31,0.30621931929951635,0.738563361146325,0.3315084689001959,0.763034478877555,0.45957086342286674,0.9013835287691087
499,28.411,28.18,2.29,0.306734255573593,0.7423865980155211,0.333028451187474,0.764408702512468,0.46014150834545453,0.9010999363821677
500,28.472,28.23,2.38,0.3072404642630344,0.7462317164746821,0.3345469763701213,0.7658235389665111,0.46069183051839113,0.9008040751958649
501,28.554,28.29,2.34,0.30773795616681204,0.7500965424574976,0.3360636798382546,0.7672788365834151,0.4612219300911105,0.9004956491159144
502,28.575,28.34,2.25,0.3082267361487962,0.7539788733249959,0.3375781876988529,0.7687744003602331,0.4617319100798979,0.9001743481057348
503,28.638,28.4,2.31,0.30870680314425036,0.7578764798785287,0.3390901170707229,0.7703099921184883,0.46222187638221135,0.8998398483775866
504,28.678,28.45,2.28,0.30917815018181993,0.7617871084166007,0.34059907639967574,0.7718853307425597,0.46269193780013673,0.8994918126169894
505,28.78,28.51,2.19,0.3096407644212113,0.7657084828319949,0.3421046657937862,0.7735000924853759,0.46314220607329964,0.8991298902398286
506,28.8,28.56,2.25,0.310094627206762,0.7696383067452766,0.3436064773785926,0.7751539113410989,0.4635727959214922,0.8987537176815337
507,28.841,28.62,2.3,0.3105397141370713,0.773574265670683,0.3451040956720777,0.7768463794841348,0.4639838250971951,0.8983629187177843
508,28.922,28.67,2.25,0.3109759951508019,0.7775140292105357,0.3465970979792407,0.7785770477734573,0.4643754144481013,0.897957104816344
509,28.962,28.73,2.23,0.31140343462869224,0.7814552532745914,0.3480850548060523,0.780345426320977,0.4647476879896918,0.8975358755197863
510,29.023,28.78,2.33,0.311821991511768,0.7853955823210537,0.3495675302925394,0.7821509851225416,0.46510077298788693,0.8970988188589278
511,29.084,28.84,2.29,0.3122316194357283,0.7893326516161061,0.3510440826647334,0.7839931547499593,0.4654348000517935,0.8966455117967191
512,29.145,28.89,2.21,0.3126322668814935,0.793264089508806,0.3525142647051921,0.7858713271021863,0.4657499032365591,0.8961755207022057
513,29.185,28.95,2.28,0.3130238773419006,0.7971875197180397,0.3539776242417702,0.7877848562135382,0.4660462201563398,0.895688401853997
514,29.248,29.0,2.29,0.3134063895045273,0.8011005636280425,0.35543370465426893,0.7897330591165339,0.4663238921073743,0.8951837019725272
515,29.31,29.06,2.19,0.3137797374505998,0.8050008425888141,0.35688204539855356,0.7917152167567945,0.46658306420112305,0.8946609587803708
516,29.352,29.11,2.24,0.314143850869865,0.8088859802178244,0.35832218254766024,0.7937305749574205,0.4668238855073837,0.8941197015899599
517,29.413,29.17,2.27,0.3144986552912018,0.8127536046996857,0.3597536493493594,0.7957783454304136,0.4670465092072469,0.893559451918174
518,29.516,29.22,2.17,0.31484407232863915,0.816601351080853,0.3611759767995976,0.7978577068328448,0.4672510927557079,0.8929797241273251
519,29.537,29.28,2.14,0.3151800199423637,0.8204268635567615,0.3625886942312195,0.7999678058656006,0.46743779805369273,0.8923800260920914
520,29.578,29.33,2.23,0.3155064127142337,0.8242277977490429,0.3639913299173203,0.802107758412622,0.4676067916292014,0.8917598598918378
521,29.618,29.39,2.17,0.31582316213728173,0.8280018229704832,0.3653834116885442,0.8042766507185367,0.4677582448271991,0.8911187225276201
522,29.681,29.44,2.13,0.31613017691865614,0.831746624475226,0.3667644675635737,0.8064735406024228,0.46789233400779884,0.890456106663
523,29.763,29.5,2.24,0.31642736329540977,0.8354599056914732,0.3681340263919742,0.8086974587052381,0.4680092407521997,0.8897715013876306
524,29.784,29.55,2.25,0.3167146253625152,0.8391393904336216,0.3694916185084824,0.8109474097681906,0.468109152075781,0.8890643930024084
525,29.888,29.61,2.17,0.3169918654124629,0.8427828250904905,0.37083677639775403,0.8132223739391089,0.46819226064771463,0.8883342658248778
526,29.909,29.66,2.23,0.3172589842857727,0.8463879807861923,0.37216903536851503,0.8155213081037982,0.4682587650164315,0.8875806030135391
527,29.949,29.72,2.27,0.3175158817317458,0.8499526555102526,0.3734879342360086,0.8178431472394369,0.46830886984028053,0.8868028874096963
528,30.01,29.77,2.17,0.31776245677878817,0.8534746762137717,0.3747930160116076,0.820186805787194,0.4683427861227086,0.8860006023955518
529,30.074,29.83,2.17,0.31799860811365066,0.8569519008686943,0.3760838285984548,0.8225511790414008,0.46836073145127466,0.8851732327673859
530,30.115,29.88,2.24,0.3182242344689275,0.8603822204875683,0.3773599254919884,0.8249351445527866,0.46836293023978137,0.8843202656227901
531,30.178,29.94,2.19,0.3184392350181469,0.8637635611014559,0.37862086648420623,0.8273375635434205,0.4683496139727609,0.8834411912610235
532,30.261,29.99,2.13,0.318643509777742,0.8670938856939294,0.37986621837049134,0.8297572823310897,0.46832102145149196,0.8825355040956128
533,30.282,30.05,2.22,0.3188369600151144,0.8703711960893261,0.38109555565776043,0.8321931337609083,0.46827739904066173,0.8816027035782615
534,30.344,30.1,2.23,0.31901948866193375,0.8735935347935123,0.3823084612726278,0.8346439386418919,0.46821900091473734,0.8806422951329621
535,30.426,30.16,2.16,0.3191910007317655,0.8767589867852938,0.3835045272682126,0.8371085071860487,0.46814608930305357,0.8796537910990018
536,30.467,30.21,2.24,0.3193514037410885,0.8798656812563954,0.38468335552815947,0.8395856404473325,0.4680589347325881,0.8786367116813389
537,30.509,30.27,2.29,0.3195006081327691,0.8829117932976622,0.3858445584664154,0.8420741317575882,0.4679578162673659,0.8775905859065964
538,30.548,30.32,2.2,0.3196385277011171,0.8858955455288515,0.3869877597213205,0.8445727681564088,0.46784302174343,0.876514952582795
539,30.61,30.38,2.27,0.31976508001771475,0.8888152096692677,0.3881125948425969,0.8470803318117471,0.46771484799830837,0.8754093612609742
540,30.67,30.43,2.36,0.3198801868572768,0.8916691080465977,0.38921871196985425,0.8495956014282102,0.46757360109391133,0.8742733731969718
541,30.732,30.49,2.32,0.3199837746228407,0.8944556150416311,0.3903057725012672,0.8521173536401184,0.4674195965318113,0.8731065623117986
542,30.775,30.54,2.3,0.32007577476958227,0.8971731584670305,0.3913734517511021,0.8546443643866093,0.46725315945987295,0.871908516149187
543,30.838,30.6,2.41,0.32015612422651707,0.8998202208788417,0.39242143959477327,0.8571754102662932,0.4670746248692417,0.8706788368288889
544,30.9,30.65,2.39,0.3202247658153333,0.9023953408197468,0.393449441100107,0.8597092698691141,0.4668843377807491,0.86941714199417
545,30.982,30.71,2.32,0.3202816486656097,0.9048971139931301,0.39445717714350237,0.8622447250830935,0.4666826534198349,0.8681230657517491
546,31.002,30.76,2.38,0.3203267286256914,0.9073241943669414,0.3954443850096824,0.8647805623736281,0.4664699373791256,0.866796259602239
547,31.064,30.82,2.39,0.3203599686685157,0.9096752952061726,0.39641081897374575,0.867315574032985,0.4662465657678402,0.8654363933589584
548,31.104,30.87,2.3,0.3203813392916596,0.9119491900327035,0.39735625086425164,0.8698485593976315,0.4660129253472012,0.8640431560529476
549,31.165,30.93,2.37,0.32039081891079685,0.9141447135114618,0.3982804706060874,0.8723783260311648,0.46576941365101443,0.8626162568221504
550,31.225,30.98,2.44,0.32038839424565135,0.9162607622622431,0.39918328674188025,0.8749036908708304,0.46551643909056034,0.861155425782942
551,31.288,31.04,2.41,0.3203740606974494,0.9182962955969746,0.4000645269307483,0.877423481335862,0.4652544210429215,0.8596604148824298
552,31.349,31.09,2.42,0.3203478227168313,0.9202503361826768,0.4009240384232271,0.8799365363961278,0.46498378992187345,0.8581309987301465
553,31.391,31.15,2.54,0.32030969416116106,0.9221219706308335,0.40176168851124516,0.882441707599838,0.4647049872305003,0.856566975407821
554,31.431,31.2,2.51,0.3202596986402014,0.9239103500141996,0.40257736495208746,0.8849378600592414,0.4644184655947644,0.8549681672558518
555,31.492,31.26,2.48,0.3201978698491888,0.9256146903121687,0.40337097636536245,0.887423873393271,0.4641246887773378,0.8533344216350117
556,31.553,31.31,2.56,0.3201242518884338,0.9272342727856993,0.4041424526020601,0.8898986426260945,0.46382413167109166,0.8516656116617648
557,31.614,31.37,2.58,0.3200388995686946,0.9287684442825044,0.4048917450848769,0.892361079040477,0.46351728027172884,0.8499616369154882
558,31.737,31.42,2.49,0.3199418787016878,0.9302166174729251,0.40561882711905645,0.8948101109848831,0.463204631629119,0.8482224241158901
559,31.779,31.48,2.55,0.31983326637517306,0.9315782710168803,0.4063236941730614,0.8972446846334314,0.46288669377695696,0.8464479277690855
560,31.799,31.53,2.59,0.31971315121207583,0.9328529496625039,0.40700636412845015,0.899663764698166,0.4625639856404195,0.844638130781013
561,31.819,31.59,2.48,0.3195816336131262,0.9340402642774448,0.4076668774984124,0.9020663350934758,0.46223703692154106,0.8427930450371548
562,31.881,31.64,2.46,0.3194388259824922,0.9351398918142253,0.4083052976144963,0.9044513995528956,0.46190638796205347,0.8409127119478055
563,31.924,31.7,2.57,0.3192848529358818,0.9361515752114365,0.4089217107811157,0.9068179821989063,0.4615725895834535,0.8389972029584208
564,31.984,31.75,2.52,0.31911985149061234,0.9370751232327282,0.4095162263974805,0.9091651280665818,0.4612362029040564,0.8370466200248128
565,32.085,31.81,2.47,0.3189439712371627,0.9379104102455043,0.41008897704663316,0.9114919035819501,0.46089779913277945,0.8350610960531926
566,32.107,31.86,2.6,0.3187573744917431,0.938657375941049,0.41064011855129445,0.9137973969958474,0.4605579593393875,0.8330407953051269
567,32.147,31.92,2.63,0.3185602364294371,0.9393160249974928,0.411169829996233,0.9160807187739001,0.4602172742009623,0.8309859137674106
568,32.208,31.97,2.57,0.31835274519750995,0.9398864266867006,0.4116783137168943,0.9183410019431537,0.4598763437243963,0.8288966794867497
569,32.27,32.03,2.66,0.3181351020085212,0.9403687144259285,0.41216579525405406,0.9205774023958733,0.45953577694478437,0.8267733528690792
570,32.311,32.08,2.71,0.31790752121296156,0.9407630852749597,0.4126325232743351,0.922789099151123,0.45919619159968866,0.8246162269432618
571,32.475,32.14,2.61,0.31767023035123637,0.9410697993793852,0.41307876945655414,0.9249752945747941,0.45885821377936076,0.8224256275889162
572,32.496,32.19,2.65,0.31742347018490435,0.9412891793608285,0.4135048283440067,0.927135214558844,0.45852247755311354,0.8202019137282076
573,32.517,32.25,2.72,0.3171674947071419,0.9414216096551962,0.4139110171629352,0.9292681086606505,0.4581896245721297,0.817945477481557
574,32.538,32.3,2.66,0.31690257113242776,0.9414675358003929,0.41429767560754316,0.9313732502035357,0.457860303649079,0.8156567442873942
575,32.599,32.36,2.63,0.31662897986543465,0.9414274636753369,0.4146651655920065,0.9334499363396834,0.4575351703149719,0.8133361729862225
576,32.661,32.41,2.72,0.3163470144490689,0.9413019586924795,0.4150138709699663,0.9354974880768887,0.45721488635374335,0.8109842558693189
577,32.701,32.47,2.69,0.3160569814915591,0.9410916449462089,0.415344197221998,0.9375152502707014,0.4569001193151115,0.8086015186922856
578,32.762,32.52,2.6,0.3157592005724822,0.9407972043194486,0.4156565711115533,0.9395025915834924,0.45659154200631147,0.8061885206534989
579,32.824,32.58,2.66,0.31545400412763386,0.9404193755504426,0.415951440309874,0.9414589044118683,0.4562898319633535,0.8037458543372722
580,32.866,32.63,2.69,0.31514173731272255,0.9399589532612539,0.4162292729904082,0.9433836047836965,0.45599567090249327,0.8012741456213932
581,32.928,32.69,2.6,0.3148227578459727,0.9394167869489939,0.41649055739332713,0.9452761322258538,0.45570974415263427,0.798774053548683
582,32.99,32.74,2.67,0.31449743582981043,0.9387937799405511,0.4167358013608035,0.9471359496038015,0.4554327400693965,0.7962462701624097
583,33.031,32.8,2.74,0.3141661535518802,0.9380908883116021,0.4169655318437864,0.9489625429342785,0.45516534943162273,0.7936915203056558
584,33.092,32.85,2.69,0.3138293052656955,0.9373091197709374,0.41718029438107496,0.9507554211726847,0.4549082648211396,0.7911105613849965
585,33.193,32.91,2.66,0.31348729695126176,0.936449532511531,0.4173806525515609,0.952514115977045,0.45466217998665626,0.7885041830990315
586,33.213,32.96,2.75,0.3131405460560377,0.9355132340301767,0.41756718740055965,0.9542381814507526,0.45442778919277116,0.785873207132342
587,33.254,33.02,2.7,0.31278948121665295,0.9345013799177029,0.4177404968412093,0.9559271938664141,0.45420578655514615,0.7832184868153111
588,33.315,33.07,2.64,0.3124345419618724,0.9334151726216985,0.41790119503198003,0.9575807513729608,0.4539968653629831,0.78054090675008
589,33.356,33.13,2.69,0.3120761783973574,0.9322558601834449,0.41804991173140044,0.9591984736877903,0.45380171739000097,0.7778413824027093
590,33.417,33.18,2.7,0.3117148508728255,0.9310247349504271,0.4181872916311754,0.9607800017751871,0.45362103219516403,0.7751208596614257
591,33.48,33.24,2.58,0.3113510296322315,0.9297231322655154,0.4183139936689196,0.9623249975118657,0.4534554964144478,0.7723803143607234
592,33.563,33.29,2.61,0.3109851944475652,0.9283524291338202,0.4184306903217245,0.9638331433404067,0.45330579304494795,0.7696207517710717
593,33.583,33.35,2.64,0.3106178342368164,0.9269140428683279,0.4185380668817512,0.9653041419115491,0.45317260072265064,0.7668432060540546
594,33.643,33.4,2.56,0.31024944666660836,0.925409429715614,0.4186368207150158,0.9667377157165671,0.45305659299517875,0.7640487396828706
595,33.705,33.46,2.54,0.30988053773996865,0.9238400834631633,0.4187276605045084,0.9681336067111954,0.45295843759080984,0.7612384428282674
596,33.767,33.51,2.62,0.30951162136968435,0.9222075340299878,0.4188113054787738,0.9694915759327585,0.45287879568505196,0.7584134327100821
597,33.809,33.57,2.58,0.30914321893772806,0.9205133460422131,0.41888848462708017,0.9708114031121892,0.45281832116605614,0.7555748529145848
598,33.871,33.62,2.52,0.3087758588413041,0.9187591173950787,0.41895993590231895,0.9720928862824891,0.452777659900144,0.7527238726778216
599,33.933,33.68,2.62,0.30841007602614157,0.9169464778024725,0.41902640541279035,0.9733358413849722,0.4527574489987431,0.749861686135083
600,33.974,33.73,2.62,0.3080464115077448,0.9150770873347225,0.4190886466040339,0.974540101874405,0.45275831608804634,0.7469895115365046
601,34.035,33.79,2.51,0.3076854118813808,0.913152634945034,0.41914741943185985,0.9757055183239962,0.45278087858274946,0.7441085904287124
602,34.096,33.84,2.54,0.30732762882162895,0.91117483698479,0.4192034895277248,0.976831958031211,0.45282574296525363,0.7412201868023376
603,34.178,33.9,2.57,0.3069736185723658,0.9091454357079432,0.41925762735758665,0.9779193046255532,0.4528935040717638,0.738325586205167
604,34.198,33.95,2.44,0.3066239414281128,0.907066197764821,0.4193106073754122,0.9789674576796278,0.452984744386733,0.7354260948207416
605,34.323,34.01,2.41,0.30627916120772225,0.9049389126858537,0.41936320717255265,0.9799763323249614,0.4531000333470878,0.732523038512429
606,34.344,34.06,2.46,0.30593984472140234,0.9027653913559613,0.4194162066242402,0.9809458588741939,0.45323992665763857,0.7296177618332582
607,34.364,34.12,2.38,0.30560656123208546,0.9005474644805416,0.4194703870344835,0.9818759824512865,0.4534049656190141,0.7267116270020809
608,34.427,34.17,2.33,0.30527988191210353,0.8982869810442041,0.4195265302806357,0.9827666626313702,0.45359567646939153,0.7238060128468345
609,34.488,34.23,2.42,0.30496037929605363,0.8959858067635493,0.419585417958853,0.9836178730918,0.4538125697412092,0.7209023137157681
610,34.53,34.28,2.4,0.30464862673066273,0.8936458225352332,0.41964783053159554,0.9844296012758442,0.45405613963398916,0.7180019383573975
611,34.591,34.34,2.32,0.3043451978224109,0.8912689228802773,0.4197145464782265,0.9852018480702054,0.45432686340434153,0.7151063087697913
612,34.655,34.39,2.37,0.30405066588365615,0.8888570143852197,0.41978634144969856,0.9859346274972965,0.4546252007741943,0.7122168590196057
613,34.675,34.45,2.38,0.30376560337804587,0.8864120141403065,0.4198639874282853,0.9866279664228829,0.45495159335827573,0.7093350340311605
614,34.736,34.5,2.28,0.30349058136608636,0.883935848174559,0.4199482518933515,0.9872819042793441,0.455306464111861,0.7064622883458629
615,34.799,34.56,2.31,0.30322616895183285,0.8814304498873988,0.4200398969942144,0.9878964928046017,0.4556902167997686,0.7036000848524856
616,34.84,34.61,2.37,0.3029729327317094,0.8788977584766319,0.42013967873118596,0.9884717957967045,0.45610323548755466,0.7007498934890792
617,34.9,34.67,2.3,0.30273143624647875,0.8763397173628878,0.4202483461459153,0.9890078888841299,0.45654588405581564,0.6979131899175799
618,35.024,34.72,2.25,0.30250223943733845,0.8737582726110449,0.42036664052213324,0.9895048593119491,0.45701850573846686,0.6950914541723886
619,35.045,34.78,2.31,0.3022858981070454,0.871155371349613,0.420495294597857,0.9899628057441212,0.45752142268583434,0.6922861692842545
620,35.088,34.83,2.26,0.30208296338689283,0.8685329601893702,0.42063503179005696,0.9903818380821661,0.4580549355533663,0.6894988198807134
621,35.149,34.89,2.17,0.30189398121028976,0.8658929836426891,0.4207865654327331,0.9907620773003037,0.458619323116725,0.6867308907642022
622,35.19,34.94,2.19,0.3017194917936356,0.8632373825449484,0.4209505980292835,0.9911036552968965,0.45921484191395395,0.6839838654688478
623,35.23,35.0,2.18,0.30156002912515634,0.8605680924791916,0.42112782051998726,0.9914067147617539,0.4598417259153442,0.6812592247968662
624,35.291,35.05,2.07,0.3014161204623524,0.8578870422048972,0.42131891156537765,0.9916714090586012,0.4605001862215203,0.6785584453355776
625,35.394,35.11,2.11,0.3012882858386621,0.8551961520916295,0.4215245368462272,0.9918979021219007,0.46119041079014744,0.6758829979562903
626,35.415,35.16,2.16,0.30117703757984815,0.8524973325585113,0.42174534838082534,0.9920863683672446,0.4619125641915372,0.6732343462966135
627,35.457,35.22,2.11,0.3010828798305133,0.8497924825208084,0.42198198386020386,0.9922369926145685,0.4626667873933063,0.6706139452280987
628,35.52,35.27,2.08,0.30100630809104767,0.8470834878453649,0.4222350660019563,0.992349970023475,0.46345319757414694,0.6680232393113857
629,35.582,35.33,2.17,0.30094780876523164,0.8443722198170304,0.4225052019232858,0.9924255060399785,0.4642718879666946,0.6654636612411767
630,35.623,35.38,2.12,0.30090785871868925,0.8416605336184391,0.4227929825339284,0.9924638163539126,0.46512292772943487,0.6629366302833677
631,35.665,35.44,2.06,0.30088692484838414,0.838950266825476,0.42309898194960327,0.992465126866071,0.46600636184754246,0.6604435507066235
632,35.768,35.49,2.14,0.30088546366334834,0.8362432379205906,0.42342375692662176,0.9924296736639582,0.46692221106250137,0.6579858102106032
633,35.789,35.55,2.12,0.300903920876834,0.8335412448258573,0.42376784631825415,0.9923577030048043,0.4678704718303022,0.6555647783529771
634,35.83,35.6,2.04,0.30094273101005997,0.8308460634574243,0.4241317705534082,0.9922494713042919,0.4688511163079514,0.6531818049773788
635,35.892,35.66,2.09,0.30100231700768837,0.8281594463028905,0.4245160311380997,0.9921052451293739,0.4698640923679568,0.6508382186445062
636,35.953,35.71,2.15,0.30108308986513116,0.8254831210231656,0.4249211101801357,0.9919253011936313,0.470909323640388,0.6485353250686797
637,35.994,35.77,2.06,0.3011854482677721,0.8228187890804342,0.42534746993739225,0.9917099263537086,0.47198670958203653,0.6462744055622739
638,36.054,35.82,2.05,0.30130977824217214,0.8201681243939749,0.4257955523900246,0.9914594176055109,0.473096125572128,0.6440567154905518
639,36.138,35.88,2.14,0.3014564528193029,0.8175327720257048,0.42626577883688654,0.9911740820789995,0.47423742303398214,0.6418834827394966
640,36.179,35.93,2.11,0.3016258317098449,0.8149143468973822,0.4267585495163776,0.9908542370304941,0.4754104295819558,0.6397559061992817
641,36.22,35.99,2.1,0.30181826099156833,0.8123144325413337,0.4272742432518716,0.9905002098313682,0.4766149491929389,0.6376751542660813
642,36.282,36.04,2.2,0.30203407280879435,0.8097345798864495,0.42781321712182074,0.9901123379519835,0.4778507624016226,0.6356423633649426
643,36.344,36.1,2.24,0.30227358508393076,0.8071763060809614,0.4283758061545827,0.9896909689396814,0.4791176265187303,0.6336586364963755
644,36.407,36.15,2.19,0.30253710124108874,0.804641093353269,0.42896232304798615,0.9892364603896258,0.48041527587140054,0.6317250418092143
645,36.488,36.21,2.28,0.3028249099418123,0.8021303879118731,0.42957305791363865,0.9887491799073157,0.48174342206492854,0.6298426112021793
646,36.509,36.26,2.32,0.303137284833006,0.7996455988853235,0.43020827804598555,0.9882295050616602,0.48310175426511415,0.6280123389564396
647,36.55,36.32,2.25,0.30347448430720786,0.7971880973029968,0.43086822771616146,0.9876778233276143,0.48448993950050917,0.6262351804014322
648,36.612,36.37,2.28,0.3038367512754212,0.7947592151174904,0.4315531279906989,0.9870945320175972,0.48590762298389234,0.6245120506162634
649,36.674,36.43,2.36,0.3042243129527623,0.7923602442695016,0.4322631765751847,0.9864800382012449,0.48735442845232846,0.6228438231691614
650,36.734,36.48,2.32,0.30463738065722096,0.7899924357961456,0.43299854768297474,0.9858347586133281,0.4888299585251804,0.6212313288976282
651,36.815,36.54,2.31,0.30507614962182694,0.787656998983822,0.4337593919290899,0.9851591195499034,0.4903337950794378,0.6196753547321099
652,36.899,36.59,2.4,0.30554079882046714,0.7853551005669819,0.43454583624938153,0.9844535567529581,0.49186549964172577,0.6181766425660777
653,36.919,36.65,2.38,0.3060314908075241,0.7830878639743241,0.4353579838450008,0.9837185152839188,0.49342461379636743,0.6167358881753278
654,36.96,36.7,2.33,0.30654837157144144,0.7808563686239467,0.4361959141521391,0.9829544493863583,0.49501065960888035,0.6153537401891271
655,37.023,36.76,2.4,0.3070915704022737,0.7786616492688079,0.43705968283693103,0.9821618223381207,0.49662314006429187,0.6140307991156055
656,37.065,36.81,2.44,0.3076611997732806,0.7765046953934855,0.43794932181537055,0.9813411062929057,0.49826153951966096,0.6127676164235649
657,37.105,36.87,2.4,0.3082573552366558,0.7743864506628366,0.43886483929807196,0.9804927821111875,0.4999253241701886,0.6115646936827628
658,37.167,36.92,2.47,0.30888011533351745,0.7723078124229357,0.43980621985969715,0.9796173391803001,0.5016139425282901,0.61042248176473
659,37.228,36.98,2.54,0.3095295415183064,0.770269631254698,0.44077342453285934,0.9787152752236892,0.503326825915012,0.6093413801062222
660,37.269,37.03,2.52,0.3102056780977561,0.7682727105808023,0.44176639092629805,0.9777870960995584,0.5050633889632031,0.608321736037393
661,37.311,37.09,2.53,0.31090855218459756,0.7663178063268461,0.4427850333671114,0.9768333155894193,0.5068230301318969,0.6073638441766718
662,37.372,37.14,2.62,0.31163817366616264,0.7644056266380009,0.4438292430668149,0.9758544551772536,0.5086051322314252,0.6064679458940554
663,37.435,37.2,2.6,0.31239453518805543,0.7625368316525829,0.44489888831099345,0.9748510438200239,0.5104090629588572,0.6056342288441181
664,37.517,37.25,2.56,0.3131776121530719,0.7607120333338965,0.4459938146723185,0.9738236177100859,0.5122341754434137,0.6048628265695773
665,37.537,37.31,2.62,0.31398736273555444,0.7589317953614597,0.447113845246692,0.9727727200298014,0.5140798088015641,0.6041538181757615
666,37.619,37.36,2.62,0.31482372791136953,0.7571966330823514,0.4482587809122634,0.9716989006984034,0.5159452887015558,0.6035072280758651
667,37.661,37.42,2.5,0.315686631503678,0.7555070135230444,0.44942840061104383,0.9706027161109918,0.5178299279371384,0.6029230258065565
668,37.701,37.47,2.56,0.3165759802446206,0.7538633554618113,0.4506224616527875,0.9694847288695421,0.5197330270102429,0.6024011259133857
669,37.867,37.53,2.61,0.3174916638529807,0.7522660295616441,0.45184070004076593,0.9683455075059245,0.5216538747223449,0.6019413879054857
670,37.887,37.58,2.55,0.3184335551278386,0.750715358563519,0.453082830819021,0.967185626197044,0.5235917487741862,0.6015436162792626
671,37.908,37.64,2.56,0.3194015100581877,0.7492116175397924,0.4543485484406693,0.9660056644723025,0.5255459163734699,0.6012075606110197
672,37.97,37.69,2.65,0.3203953679484583,0.7477550342074922,0.4556375271568075,0.9648062069136757,0.5275156348501019,0.6009329157186136
673,37.99,37.75,2.62,0.3214149515598954,0.7463457893011693,0.45694942142555706,0.9635878428487737,0.5295001522785342,0.6007193218922631
674,38.03,37.8,2.6,0.32246006726776344,0.7449840170047755,0.45828386634075585,0.9623511660373274,0.5314987081067608,0.6005663651945531
675,38.091,37.86,2.69,0.3235305052343735,0.7436698054417852,0.45964047807976965,0.9610967743515489,0.5335105337915259,0.6004735778295074
676,38.173,37.91,2.7,0.32462603959794706,0.7424031972224824,0.46101885436987394,0.9598252694507173,0.535534853439325,0.6004404385803365
677,38.214,37.97,2.64,0.32574642867732945,0.7411841900470673,0.46241857497263733,0.9585372564501923,0.5375708844527985,0.6004663733152107
678,38.275,38.02,2.69,0.32689141519254616,0.7400127373630848,0.4638392021857132,0.9572333435850108,0.5396178381821323,0.6005507555601722
679,38.336,38.08,2.72,0.3280607265011745,0.7388887490756553,0.46528028136141797,0.9559141418683216,0.5416749205811083,0.6006929071380805
680,38.378,38.13,2.63,0.3292540748504823,0.7378120923090277,0.46674134144146856,0.954580264745039,0.5437413328674519,0.6008920988723448
681,38.439,38.19,2.65,0.33047115764525686,0.7367825922180907,0.46822189550724436,0.9532323277412513,0.545816272187114,0.6011475513541424
682,38.502,38.24,2.71,0.33171165773120354,0.7358000328485809,0.46972144134495086,0.9518709481100447,0.5478989322821053,0.601458435771805
683,38.543,38.3,2.66,0.33297524369373255,0.7348641580448263,0.4712394620250542,0.9504967444744878,0.549988504161442,0.6018238748010524
684,38.605,38.35,2.66,0.3342615701718635,0.7339746724039677,0.47277542649532517,0.9491103364686359,0.5520841767747195,0.6022429435547287
685,38.708,38.41,2.76,0.33557027818686413,0.7331312422756837,0.4743287901867501,0.9477123443775475,0.554185137687776,0.6027146705905768
686,38.728,38.46,2.76,0.3369009954851561,0.7323334968063636,0.4758989956314751,0.9463033887773753,0.5562905737598867,0.6032380389753481
687,38.79,38.52,2.7,0.3382533368949798,0.7315810290263577,0.47748547309187067,0.9448840901765259,0.558399671821923,0.6038119874032661
688,38.81,38.57,2.77,0.3396269046963208,0.7308733969784834,0.4790876411997534,0.943455068658763,0.5605116193549222,0.604435411366582
689,38.871,38.63,2.81,0.3410212890036505,0.7302101248854788,0.48070490760479057,0.9420169435289856,0.5626256051685338,0.6051071643757524
690,38.933,38.68,2.75,0.3424360681611035,0.7295907043536581,0.48233666963116706,0.9405703329622263,0.5647408200788103,0.6058260592267136
691,38.994,38.74,2.8,0.34387080914976365,0.729014595609833,0.48398231494166793,0.9391158536563031,0.5668564575848172,0.6065908693128205
692,39.077,38.79,2.86,0.34532506800674295,0.7284812287686013,0.4856412222084074,0.9376541204885208,0.5689717145435217,0.6074003299791421
693,39.098,38.85,2.81,0.3467983902557097,0.7279900051273358,0.48731276178949484,0.9361857461768189,0.5710857918424369,0.6082531399169041
694,39.138,38.9,2.78,0.34829031134845995,0.7275402984865282,0.48899629641096914,0.9347113409457589,0.5731978950694887,0.6091479625958935
695,39.201,38.96,2.85,0.3498003571170584,0.7271314564934411,0.49069118185335564,0.9332315121976442,0.5753072351795826,0.6100834277325519
696,39.241,39.01,2.78,0.35132804423602704,0.7267628020070713,0.49239676764221,0.9317468641888098,0.5774130291573323,0.6110581327913052
697,39.303,39.07,2.73,0.3528728806940254,0.7264336344822736,0.49411239774199434,0.9302579977108073,0.5795145006753809,0.6120706445164736
698,39.366,39.12,2.8,0.35443436627441693,0.7261432313705896,0.49583741125254527,0.9287655097759826,0.5816108807476871,0.6131195004919243
699,39.47,39.18,2.84,0.3560119930440594,0.7258908495350087,0.49757114310729733,0.9272699933068019,0.5837014083770727,0.6142032107255108
700,39.51,39.23,2.78,0.3576052458495893,0.7256757266756677,0.499312924772343,0.9257720368281935,0.5857853311962508,0.6153202592553768
701,39.532,39.29,2.85,0.3592136028203836,0.7254970827635239,0.5010620849453586,0.9242722241621997,0.5878619061014805,0.616469105775372
702,39.571,39.34,2.92,0.36083653587731623,0.7253541214792505,0.5028179502534023,0.9227711341243973,0.5899303998779682,0.6176481872770508
703,39.633,39.4,2.87,0.3624735112464093,0.725246031654884,0.5045798459486059,0.9212693402217548,0.5919900898161283,0.6188559197059675
704,39.713,39.45,2.88,0.3641239899764858,0.7251719887160655,0.5063470966008167,0.919767410351827,0.5940402643178214,0.6200906996301938
705,39.817,39.51,2.98,0.36578742845997114,0.7251311561230025,0.5081190267862772,0.9182659065034102,0.5960802234917093,0.6213509059191439
706,39.838,39.56,2.95,0.3674632789560437,0.7251226868084423,0.5098949617714891,0.9167653844588938,0.5981092797368782,0.622634901430882
707,39.879,39.62,2.92,0.3691509901153922,0.7251457246109255,0.5116742281914402,0.915266393498507,0.6001267583138927,0.6239410347061422
708,39.919,39.67,3.0,0.3708500075058841,0.7251994057014435,0.5134561547213903,0.9137694761065556,0.6021319979024549,0.6252676416672808
709,39.981,39.73,3.01,0.37255977413847446,0.7252828600013725,0.515240072741408,0.9122751676795751,0.604124351144851,0.6266130473203154
710,40.022,39.78,2.93,0.37427973099269946,0.7253952125893348,0.5170253169928315,0.9107839962361822,0.6061031851743729,0.6279755674581655
711,40.063,39.84,3.01,0.3760093175410634,0.7255355850945423,0.5188112262257891,0.9092964821284082,0.6080678821278849,0.629353510363223
712,40.166,39.89,3.06,0.37774797227159895,0.7257030970742302,0.5205971438369025,0.9078131377544087,0.6100178396417006,0.6307451785074016
713,40.206,39.95,3.0,0.3794951332078476,0.7258968673729222,0.5223824184962995,0.906334467272586,0.6119524713299118,0.6321488702479007
714,40.227,40.0,3.03,0.3812502384254953,0.7261160154614806,0.5241664047630935,0.9048609663173132,0.6138712072442967,0.63356288151705
715,40.289,40.06,3.12,0.38301272656488744,0.7263596627541422,0.5259484636885107,0.9033931217165987,0.6157734943149307,0.6349855075047576
716,40.351,40.11,3.06,0.38478203733866173,0.726626933902015,0.5277279634058818,0.9019314112121132,0.6176587967706259,0.6364150443322277
717,40.411,40.17,3.07,0.38655761203372085,0.726916958061821,0.5295042797067367,0.9004763031820596,0.619526596538329,0.6378497907157828
718,40.452,40.22,3.19,0.38833889400674243,0.7272288701389807,0.5312767966022363,0.8990282563674389,0.6213763936206192,0.6392880496197849
719,40.533,40.28,3.22,0.3901253291724153,0.7275618120042825,0.5330449068691758,0.8975877196023114,0.62320770645046,0.640728129897813
720,40.573,40.33,3.23,0.39191636648359496,0.7279149336833275,0.5348080125797883,0.8961551315486506,0.6250200722223784,0.6421683479214128
721,40.616,40.39,3.31,0.3937114584026112,0.7282873945177923,0.5365655256145646,0.8947309204363945,0.6268130471992966,0.6436070291957683
722,40.696,40.44,3.33,0.3955100613630218,0.7286783642973192,0.5383168681573369,0.8933155038092763,0.6285862069943233,0.6450425099614834
723,40.738,40.5,3.25,0.39731163622119436,0.7290870243605712,0.5400614731719238,0.8919092882769265,0.6303391468269227,0.6464731387813605
724,40.8,40.55,3.31,0.3991156486971695,0.7295125686638045,0.5417987848597211,0.8905126692736849,0.6320714817529706,0.6478972781107998
725,40.839,40.61,3.38,0.40092156980429366,0.7299542048152958,0.5435282590976868,0.8891260308245899,0.6337828468682719,0.6493133058502852
726,40.901,40.66,3.38,0.4027288762671036,0.7304111550740994,0.5452493638562205,0.8877497453190601,0.6354728974851477,0.6507196168784262
727,40.962,40.72,3.39,0.4045370509268873,0.7308826573119259,0.5469615795964612,0.8863841732928512,0.6371413092817123,0.6521146245640993
728,41.023,40.77,3.48,0.4063455831342849,0.7313679659372752,0.5486643996465166,0.8850296632189669,0.6387877784235018,0.6534967622561957
729,41.085,40.83,3.47,0.40815396912825674,0.7318663527811267,0.55035733055614,0.8836865513082095,0.6404120216571735,0.6548644847492926
730,41.147,40.88,3.44,0.4099617124007822,0.7323771079434007,0.5520398924293906,0.8823551613199369,0.6420137763760845,0.6562162697233301
731,41.167,40.94,3.53,0.41176832404673147,0.7328995405991304,0.5537116192348625,0.8810358043833922,0.6435928006576279,0.6575506191551975
732,41.27,40.99,3.56,0.4135733230984722,0.7334329797629082,0.5553720590931598,0.8797287788297082,0.6451488732722881,0.658866060700077
733,41.291,41.05,3.5,0.415376236844908,0.7339767750098483,0.5570207745414086,0.8784343700344495,0.646681793664436,0.6601611490404882
734,41.352,41.1,3.56,0.41717660113473953,0.7345302971512231,0.5586573427747068,0.8771528502705078,0.6481913819049445,0.6614344672011453
735,41.415,41.16,3.61,0.41897396066379033,0.7350929388631595,0.5602813558644978,0.8758844785713334,0.6496774786157689,0.6626846278279397
736,41.456,41.21,3.58,0.42076786924624965,0.7356641152671655,0.5618924209539208,0.8746295006047299,0.651139944866693,0.6639102744295611
737,41.518,41.27,3.55,0.42255789006968086,0.7362432644617204,0.5634901604302345,0.8733881485576943,0.6525786620444902,0.6651100825804361
738,41.56,41.32,3.63,0.4243435959336377,0.7368298480045321,0.5650742120744248,0.8721606410330107,0.6539935316947982,0.6662827610837093
739,41.643,41.38,3.58,0.42612456947174504,0.7374233513452543,0.566644229188111,0.8709471829584435,0.6553844753370548,0.6674270530928864
740,41.664,41.43,3.56,0.42790040335711677,0.7380232842084669,0.5681998806978305,0.869747965509437,0.6567514342528662,0.6685417371906296
741,41.724,41.49,3.65,0.42967070049097406,0.7386291809266238,0.5697408512367336,0.8685631660461994,0.6580943692482025,0.6696256284230571
742,41.785,41.54,3.69,0.431435074174312,0.7392406007225388,0.5712668412036809,0.867392948065857,0.6594132603898237,0.6706775792877971
743,41.825,41.6,3.63,0.4331931482624428,0.7398571279408637,0.5727775667997326,0.8662374611699887,0.6607081067163639,0.6716964806740019
744,41.887,41.65,3.69,0.43494455730222653,0.7404783722280776,0.5742727600420384,0.8650968410475174,0.6619789259245435,0.6726812627525526
745,41.949,41.71,3.76,0.436688946651799,0.7411039686607477,0.5757521687551739,0.8639712094728323,0.6632257540310471,0.6736308958147843
746,42.032,41.76,3.71,0.43842597258264177,0.7417335778221876,0.5772155565400084,0.8628606743191459,0.664448645010675,0.6745443910582415
747,42.051,41.82,3.72,0.4401553023638829,0.7423668858280883,0.5786627027202548,0.8617653295873472,0.665647670411455,0.6754208013182177
748,42.114,41.87,3.8,0.4418766143288023,0.7430036043020487,0.5800934022669044,0.8606852554508608,0.6668229189474605,0.6762592217440196
749,42.176,41.93,3.74,0.44358959792362523,0.7436434703020652,0.5815074657008487,0.8596205183170912,0.6679744960701638,0.677058790418996
750,42.238,41.98,3.69,0.44529395373882164,0.7442862461989032,0.5829047189740603,0.8585711709059073,0.6691025235191997,0.6778186889234369
751,42.3,42.04,3.77,0.44698939352324224,0.7449317195070329,0.5842850033297856,0.8575372523454077,0.6702071388534631,0.6785381428394783
752,42.381,42.09,3.76,0.44867564018150524,0.7455797026685218,0.5856481751422372,0.856518788284944,0.6712884949634933,0.6792164221971824
753,42.401,42.15,3.68,0.4503524277550897,0.7462300327900594,0.586994105736295,0.855515791025176,0.672346759566109,0.6798528418610612
754,42.442,42.2,3.69,0.4520195013875705,0.7468825713332341,0.588322681187715,0.8545282596648804,0.67338211468225,0.6804467618564638
755,42.505,42.26,3.73,0.4536766172743943,0.7475372037582824,0.5896338021043421,0.853556180264275,0.674394756098986,0.6809975876354047
756,42.548,42.31,3.65,0.45532354259755886,0.7481938391217107,0.5909273833888454,0.8525995260246589,0.6753848928166317,0.6815047702816381
757,42.629,42.37,3.67,0.4569600554455429,0.7488524096284446,0.592203353983544,0.8516582574841851,0.6763527464818754,0.6819678066550979
758,42.649,42.42,3.76,0.4585859447188411,0.7495128701394389,0.5934616565979425,0.8507323227295729,0.6772985508077889,0.6823862394761737
759,42.751,42.48,3.72,0.4602010100214928,0.7501751976359768,0.5947022474196871,0.8498216576234746,0.6782225509815656,0.6827596573506386
760,42.792,42.53,3.71,0.4618050615390118,0.7508393906422246,0.595925095809709,0.8489261860470942,0.6791250030608215,0.6830876947363484
761,42.813,42.59,3.82,0.4633979199031258,0.7515054686079545,0.5971301839823621,0.8480458201575937,0.6800061733593203,0.6833700318529975
762,42.875,42.64,3.82,0.46497941604374726,0.7521734712535564,0.5983175066713766,0.847180460659742,0.6808663378230249,0.6836063945362083
763,42.936,42.7,3.76,0.4665493910286305,0.7528434578794512,0.599487070782473,0.846329997091127,0.6817057813974415,0.6837965540371407
764,42.999,42.75,3.81,0.4681076958912168,0.7535155066419025,0.6006388950335003,0.8454943081201315,0.6825247973872853,0.6839403267686572
765,43.039,42.81,3.82,0.46965419144724607,0.7541897137970395,0.601773009583002,0.8446732618557833,0.6833236868095741,0.6840375739989434
766,43.101,42.86,3.71,0.4711887481008038,0.7548661929147169,0.6028894556481511,0.8438667161685153,0.6841027577412963,0.6840882014934238
767,43.161,42.92,3.73,0.47271124564053013,0.7555450740637826,0.6039882851130428,0.843074519020879,0.6848623246628256,0.6840921591058738
768,43.222,42.97,3.8,0.4742215730267425,0.7562265029704568,0.6050695601283391,0.8422965088073644,0.6856027077982382,0.684049440319748
769,43.264,43.03,3.75,0.4757196281701816,0.7569106401517998,0.6061333527032704,0.841532514702593,0.686324232453664,0.6839600817409035
770,43.325,43.08,3.74,0.4772053177030086,0.7575976600266369,0.6071797442909739,0.8407823570172742,0.6870272283547556,0.6838241625430319
771,43.386,43.14,3.82,0.47867855674256965,0.7582877500067174,0.6082088253680953,0.8400458475614431,0.6877120289843378,0.6836418038671016
772,43.428,43.19,3.8,0.48013926864836454,0.7589811095710767,0.6092206950095197,0.839322790014589,0.6883789709213064,0.6834131681759525
773,43.488,43.25,3.74,0.48158738477264335,0.7596779493265122,0.6102154604590414,0.8386129803022755,0.6890283931818608,0.6831384585649743
774,43.53,43.3,3.79,0.4830228442050907,0.7603784900568376,0.6111932366967501,0.8379162069788088,0.6896606365641781,0.6828179180296129
775,43.59,43.36,3.81,0.48444559351214334,0.7610829617632308,0.6121541460039139,0.8372322516153894,0.6902760429976669,0.6824518286903293
776,43.674,43.41,3.72,0.48585558647159544,0.7617916026976841,0.6130983175261905,0.8365608891930507,0.6908749548979376,0.6820405109756764
777,43.694,43.47,3.75,0.4872527838032287,0.7625046583914216,0.6140258868360342,0.8359018884996772,0.691457714528628,0.6815843227643705
778,43.755,43.52,3.79,0.4886371528962426,0.7632223806802318,0.6149369954951838,0.8352550125305697,0.6920246633712032,0.6810836584875273
779,43.837,43.58,3.72,0.4900086675342565,0.7639450267288947,0.6158317906180997,0.8346200188922632,0.6925761415038273,0.6805389481925319
780,43.858,43.63,3.67,0.4913673076185925,0.7646728580572211,0.6167104244371874,0.8339966602095615,0.693112486990381,0.6799506565702621
781,43.92,43.69,3.74,0.4927130588904709,0.7654061395705656,0.6175730538705795,0.8333846845359439,0.6936340352806606,0.6793192819475053
782,43.981,43.74,3.7,0.4940459126526738,0.7661451385977796,0.6184198400931933,0.8327838357675303,0.6941411186227584,0.6786453552464164
783,44.041,43.8,3.63,0.4953658654911841,0.7668901239394127,0.6192509481117126,0.8321938540606224,0.6946340654885682,0.6779294389128177
784,44.104,43.85,3.69,0.49667291899727595,0.7676413649286111,0.6200665463440802,0.8316144762525907,0.6951132000132977,0.6771721258150799
785,44.165,43.91,3.71,0.49796707949052144,0.7683991305066953,0.620866806204055,0.8310454362856012,0.695578841449815,0.676374038115274
786,44.206,43.96,3.62,0.49924835774318843,0.7691636883149802,0.6216519016913606,0.8304864656324655,0.6960313036386053,0.6755358261143563
787,44.269,44.02,3.68,0.5005167687064874,0.7699353038042184,0.6224220089879424,0.8299372937238675,0.6964708944940565,0.6746581670733691
788,44.331,44.07,3.74,0.5017723312391067,0.7707142393631031,0.623177306060833,0.8293976483763469,0.6968979155077609,0.6737417640129016
789,44.351,44.13,3.7,0.5030150678384537,0.7715007534674576,0.6239179722721527,0.8288672562205439,0.6973126612694855,0.6727873444933068
790,44.414,44.18,3.68,0.5042450043750072,0.7722950998519854,0.624644187996806,0.828345843129299,0.6977154190064548,0.6717956593783485
791,44.475,44.24,3.75,0.5054621698301837,0.7730975267066339,0.6253561342484864,0.8278331346452544,0.6981064681415857,0.6707674815849618
792,44.597,44.29,3.7,0.5066665960381584,0.773908275899606,0.6260539923146395,0.8273288564075605,0.6984860798713278,0.6697036048216627
793,44.618,44.35,3.62,0.5078583174321155,0.7747275822288403,0.6267379434010528,0.8268327345771811,0.6988545167637593,0.6686048423179232
794,44.638,44.4,3.67,0.509037370795407,0.7755556727034638,0.6274081682867052,0.8263444962601784,0.6992120323775719,0.6674720255465951
795,44.7,44.46,3.66,0.5102037950180854,0.7763927658563524,0.6280648469894562,0.8258638699282428,0.6995588709025339,0.666306002941275
796,44.763,44.51,3.58,0.5113576308592119,0.777239071088615,0.6287081584430799,0.8253905858356136,0.6998952668219591,0.6651076386104297
797,44.824,44.57,3.63,0.5124989207152445,0.7780947880466668,0.6293382801860664,0.8249243764315375,0.7002214445976322,0.6638778110501463
798,44.866,44.62,3.68,0.5136277083946941,0.7789601060325887,0.6299553880625393,0.8244649767675212,0.7005376183775597,0.6626174118574524
799,44.97,44.68,3.63,0.5147440388991426,0.7798352034486151,0.6305596559355996,0.8240121248987599,0.7008439917268522,0.6613273444462467
800,44.99,44.73,3.64,0.5158479582106539,0.7807202472767962,0.6311512554133974,0.8235655622792001,0.7011407573819879,0.6600085227679734
801,45.011,44.79,3.71,0.5169395130856081,0.7816153925950324,0.6317303555882507,0.8231250341497222,0.701428097028672,0.6586618700391624
802,45.072,44.84,3.67,0.5180187508550482,0.7825207821306177,0.6322971227891586,0.8226902899188693,0.7017061811035066,0.6572883174778641
803,45.134,44.9,3.62,0.519085719231729,0.7834365458521815,0.6328517203480701,0.8222610835354496,0.7019751686196617,0.655888803050843
804,45.194,44.95,3.68,0.5201404661241572,0.7843628006005487,0.6333943083802486,0.821837173852252,0.7022352070167462,0.6544642702332248
805,45.236,45.01,3.7,0.5211830394579872,0.7852996497586062,0.633925043579032,0.8214183249800406,0.7024864320350496,0.6530156667821223
806,45.319,45.06,3.63,0.5222134870051847,0.7862471829598799,0.6344440790252301,0.8210043066310024,0.7027289676142995,0.6515439435257013
807,45.361,45.12,3.67,0.523231856221377,0.7872054758353059,0.634951564011311,0.8205948944510383,0.70296292581705,0.6500500531691614
808,45.403,45.17,3.69,0.5242381940917926,0.7881745897976555,0.6354476438804567,0.8201898703406404,0.7031884067767802,0.6485349491191118
809,45.465,45.23,3.6,0.5252325469861655,0.7891545718631438,0.6359324598805222,0.8197890227643959,0.7034054986707597,0.6469995843278341
810,45.505,45.28,3.58,0.5262149605229592,0.7901454545098809,0.6364061490329146,0.8193921470493256,0.7036142777176999,0.6454449101589527
811,45.568,45.34,3.66,0.5271854794432252,0.7911472555729291,0.6368688440164134,0.8189990456722747,0.7038148082001474,0.6438718752760532
812,45.628,45.39,3.62,0.5281441474943984,0.7921599781756697,0.6373206730659666,0.8186095285363681,0.7040071425115122,0.6422814245557977
813,45.689,45.45,3.59,0.5290910073243132,0.7931836106969785,0.6377617598865136,0.8182234132361773,0.7041913212275343,0.6406744980270431
814,45.75,45.5,3.69,0.530026100385696,0.7942181267734082,0.6381922235818631,0.8178405253108844,0.7043673732019365,0.6390520298373119
815,45.832,45.56,3.71,0.5309494668513649,0.7952634853352611,0.6386121785986215,0.817460698484454,0.7045353156859651,0.6374149472477241
816,45.853,45.61,3.65,0.5318611455403353,0.7963196306751654,0.6390217346851302,0.8170837748916682,0.704695154471504,0.6357641696572629
817,45.895,45.67,3.71,0.5327611738550014,0.7973864925476452,0.6394209968653359,0.8167096052889242,0.7048468840574481,0.6341006076570977
818,45.959,45.72,3.75,0.5336495877295673,0.7984639862981733,0.6398100654275203,0.8163380492488765,0.7049904878390345,0.6324251621155684
819,46.063,45.78,3.66,0.5345264215899214,0.7995520130203077,0.6401890359278481,0.8159689753381935,0.7051259383198539,0.6307387232944157
820,46.084,45.83,3.67,0.5353917083251654,0.800650459739754,0.6405579992087381,0.8156022612778883,0.7052531973462606,0.6290421699969055
821,46.124,45.89,3.73,0.5362454792710108,0.8017591996245058,0.640917041432081,0.8152377940859055,0.7053722163639037,0.6273363687485948
822,46.186,45.94,3.68,0.5370877642052552,0.8028780922204669,0.6412662441273385,0.8148754702018761,0.7054829366960664,0.6256221730115838
823,46.228,46.0,3.63,0.5379185913555171,0.80400698371217,0.6416056842545197,0.8145151955942134,0.7055852898434649,0.6239004224331715
824,46.31,46.05,3.71,0.5387379874193473,0.8051457072083406,0.6419354342819625,0.8141568858499606,0.7056791978051155,0.6221719421297925
825,46.35,46.11,3.71,0.5395459775967729,0.8062940830519892,0.6422555622787842,0.8138004662478933,0.705764573419834,0.6204375420069859
826,46.412,46.16,3.63,0.5403425856352848,0.80745191915446,0.6425661320217979,0.8134458718153226,0.7058413207278914,0.6186980161159746
827,46.475,46.22,3.71,0.5411278338872346,0.8086190113525453,0.6428672031166379,0.8130930473689956,0.7059093353523036,0.6169541420472714
828,46.537,46.27,3.75,0.5419017433795782,0.8097951437874841,0.6431588311327883,0.8127419475404392,0.7059685048992117,0.6152066803615395
829,46.577,46.33,3.66,0.5426643338958929,0.810980089304423,0.6434410677522001,0.8123925367860364,0.7060187093767816,0.6134563740578359
830,46.618,46.38,3.7,0.5434156240705816,0.8121736098708663,0.6437139609311978,0.8120447893821015,0.7060598216320328,0.6117039480793645
831,46.681,46.44,3.75,0.5441556314951572,0.8133754570127901,0.6439775550754061,0.8116986894052848,0.7060917078049985,0.6099501088569157
832,46.723,46.49,3.71,0.5448843728364734,0.8145853722673934,0.6442318912274658,0.8113542306987366,0.7061142277996016,0.6081955438902743
833,46.786,46.55,3.7,0.5456018639667245,0.8158030876518557,0.6444770072673138,0.8110114168246284,0.7061272357706115,0.6064409213679866
834,46.847,46.6,3.79,0.5463081201049715,0.817028326147864,0.6447129381247568,0.8106702610038642,0.7061305806260366,0.6046868898259177
835,46.908,46.66,3.76,0.5470031559699116,0.8182608022018323,0.6449397160040067,0.8103307860439609,0.7061241065443008,0.6029340778449317
836,46.969,46.71,3.69,0.5476869859435884,0.819500222240639,0.6451573706197921,0.809993024256062,0.7061076535055468,0.6011830937878803
837,47.01,46.77,3.75,0.5483596242457559,0.8207462852024003,0.645365929444626,0.809657017361939,0.7060810578364138,0.5994345255759082
838,47.072,46.82,3.75,0.5490210851186379,0.821998683081343,0.6455654179668021,0.809322816391652,0.7060441527676323,0.5976889405039496
839,47.154,46.88,3.65,0.5496713830219014,0.8232571014853528,0.6457558599587137,0.8089904815723624,0.7059967690037512,0.5959468850952542
840,47.175,46.93,3.7,0.5503105328376886,0.8245212202044561,0.6459372777550929,0.8086600822087392,0.7059387353042771,0.5942088849948434
841,47.216,46.99,3.75,0.5509385500855349,0.8257907137884124,0.6461096925407454,0.8083316965554932,0.7058698790754504,0.592475444901879
842,47.276,47.04,3.71,0.5515554511469277,0.827065252131751,0.646273124647334,0.8080054116826911,0.7057900269718327,0.5907470485409857
843,47.339,47.1,3.7,0.5521612534991436,0.8283445010648877,0.6464275938587198,0.8076813233345956,0.7056990055068253,0.5890241586726264
844,47.421,47.15,3.8,0.5527559759578865,0.8296281229503271,0.6465731197243189,0.8073595357828465,0.7055966416712143,0.5873072171425869
845,47.442,47.21,3.76,0.5533396389281765,0.8309157772831569,0.6467097218798942,0.8070401616747589,0.7054827635588263,0.5855966449704955
846,47.526,47.26,3.71,0.5539122646629162,0.8322071212950284,0.6468374203751686,0.8067233218773944,0.7053572009983778,0.5838928424771022
847,47.546,47.32,3.77,0.5544738775285893,0.8335018105606051,0.6469562360076186,0.8064091453179201,0.7052197861906125,0.582196189449839
848,47.61,47.37,3.79,0.5550245042776162,0.8347994996050911,0.6470661906618103,0.8060977688206259,0.7050703543498288,0.5805070453460119
849,47.67,47.43,3.71,0.5555641743269868,0.8360998425110588,0.6471673076536535,0.8057893369408462,0.70490874434889,0.5788257495329399
850,47.751,47.48,3.76,0.556092920042852,0.8374024935225886,0.647259612078977,0.8054840017960723,0.704734799366797,0.5771526215644632
851,47.771,47.54,3.81,0.5566107770307732,0.8387071076447775,0.6473431311658409,0.8051819228947129,0.7045483675378852,0.5754879614933782
852,47.833,47.59,3.75,0.55711778443132,0.8400133412368787,0.6474178946300359,0.804883266963134,0.704349302601692,0.5738320502194867
853,47.894,47.65,3.72,0.5576139852206706,0.8413208525976497,0.6474839350332349,0.8045882077717411,0.7041374645525268,0.5721851498730215
854,47.954,47.7,3.78,0.5580994265158149,0.8426293025418093,0.6475412881432596,0.8042969259609354,0.7039127202877656,0.5705475042331447
855,47.995,47.76,3.74,0.5585741598838971,0.8439383549666872,0.6475899932959185,0.8040096088677043,0.7036749442538712,0.5689193391810065
856,48.057,47.81,3.68,0.559038241655175,0.8452476774081615,0.6476300937578461,0.8037264503534088,0.7034240190891137,0.5673008631865976
857,48.118,47.87,3.75,0.5594917332389812,0.8465569415848345,0.6476616370897255,0.8034476506330914,0.7031598362619198,0.5656922678283481
858,48.158,47.92,3.77,0.5599347014419956,0.8478658239291587,0.6476846755092113,0.8031734161064111,0.7028822967037367,0.5640937283441827
859,48.26,47.98,3.71,0.5603672187880568,0.849174006104026,0.6476992662528056,0.8029039591901785,0.7025913114352497,0.5625054042126006
860,48.281,48.03,3.77,0.5607893638386474,0.8504811755034134,0.6477054719358674,0.8026394981525252,0.7022868021847695,0.5609274397623519
861,48.321,48.09,3.83,0.5612012215131021,0.8517870257360441,0.6477033609098841,0.8023802569489304,0.701968701997586,0.559359964809363
862,48.383,48.14,3.8,0.5616028834075426,0.8530912570915377,0.6476930076161262,0.8021264650604903,0.7016369558350948,0.5578030953196992
863,48.446,48.2,3.8,0.5619944481115449,0.8543935769889751,0.6476744929348337,0.8018783573349295,0.7012915211625244,0.5562569340974864
864,48.508,48.25,3.88,0.5623760215216066,0.8556937004080988,0.6476479045291365,0.8016361738308996,0.7009323685241191,0.5547215714967265
865,48.55,48.31,3.84,0.5627477171505915,0.8569913503033808,0.6476133371829733,0.8014001596660165,0.7005594821046871,0.5531970861558462
866,48.632,48.36,3.81,0.5631096564324424,0.8582862580010228,0.6475708931323378,0.80117056486885,0.7001728602764582,0.5516835457536559
867,48.674,48.42,3.87,0.5634619690215378,0.859578163578645,0.6475206823892212,0.8009476442347903,0.6997725161302387,0.550181007785218
868,48.716,48.47,3.88,0.5638047930861305,0.8608668162270683,0.6474628230576445,0.800731657185424,0.6993584779898732,0.5486895203559636
869,48.756,48.53,3.8,0.5641382755953228,0.8621519745932607,0.6473974416411911,0.8005228676308195,0.6989307899090392,0.5472091229923202
870,48.818,48.58,3.84,0.564462572599007,0.863433407103379,0.6473246733414361,0.8003215438341045,0.6984895121494152,0.5457398474671302
871,48.879,48.64,3.89,0.5647778495001586,0.8647108922648654,0.6472446623466437,0.8001279582778901,0.6980347216392611,0.5442817186382181
872,49.003,48.69,3.83,0.5650842813188297,0.865984218946677,0.6471575621100872,0.7999423875323164,0.6975665124114601,0.5428347552985725
873,49.024,48.75,3.85,0.5653820529471618,0.8672531866369075,0.6470635356173094,0.7997651121247407,0.6970849960200606,0.5413989710367496
874,49.044,48.8,3.95,0.5656713593947283,0.8685176056772039,0.6469627556416312,0.799596416411249,0.6965903019343599,0.5399743751061654
875,49.085,48.86,3.92,0.5659524060235404,0.869777297473435,0.646855404987224,0.7994365884501571,0.6960825779095923,0.5385609733019744
876,49.148,48.91,3.91,0.5662254087721013,0.8710320946819902,0.6467416767191024,0.7992859198775148,0.6955619903333201,0.5371587688442023
877,49.209,48.97,4.02,0.5664905943679635,0.8722818413709386,0.6466217743794214,0.7991447057844505,0.6950287245466799,0.5357677632656964
878,49.27,49.02,4.05,0.5667482005283283,0.8735263931550394,0.6464959121895029,0.7990132445959747,0.6944829851397226,0.5343879573032628
