,Time_Host,Time_Arduino,easingdata,CH1_Oxy,CH1_Deoxy,CH2_Oxy,CH2_Deoxy,CH3_Oxy,CH3_Deoxy
0,0.064,0.04,0.0,0.03156949336050919,0.1555356581608725,0.0,0.18037665661902444,0.0,0.14849363185340286
1,0.126,0.1,0.0,0.03362402772789614,0.15294052987832996,0.003221437145579874,0.17914315938145423,0.0012461507895835321,0.14680674559130616
2,0.188,0.15,0.0,0.035665542425109296,0.1503607567360705,0.0064292760616540615,0.17790888414144587,0.0024951426739968563,0.1451284721397544
3,0.271,0.21,0.0,0.037693005705729025,0.1477970322974184,0.009622164117058702,0.1766742060979599,0.0037464442167366796,0.14345945918857522
4,0.292,0.26,0.0,0.03970539401361951,0.1452500278334646,0.012798762363171448,0.17543949706756143,0.004999520993427597,0.14180034681568926
5,0.396,0.32,0.0,0.04170169305943072,0.1427203918507712,0.015957746935227796,0.17420512512651942,0.00625383611856942,0.1401517670364521
6,0.416,0.37,0.0,0.04368089889670778,0.14020874966686772,0.019097810440606454,0.17297145426346328,0.007508850780233344,0.13851434337589538
7,0.479,0.43,0.0,0.04564201899654591,0.1377157030339655,0.022217663332321325,0.17173884404330092,0.008764024782091578,0.1368886904648276
8,0.52,0.48,0.0,0.04758407331972207,0.13524182981117436,0.0253160352659699,0.17050764928307263,0.01001881709214269,0.1352754136607074
9,0.583,0.54,0.0,0.04950609538522669,0.1327876836853676,0.02839167643839682,0.169278219740385,0.011272686397471464,0.13367510869415572
10,0.624,0.59,0.03,0.0514071333341082,0.1303537939407056,0.03144335890633738,0.1680508998150432,0.012525091664357682,0.13208836134192797
11,0.686,0.65,0.07,0.053286250987529434,0.12794066527670392,0.03446987788330783,0.1668260282644774,0.01377549270302557,0.13051574712711747
12,0.749,0.7,0.05,0.05514252889791844,0.12554877767462128,0.03747005301300808,0.16560393793354758,0.015023350736311171,0.1289578310472911
13,0.811,0.76,0.05,0.056975065392085765,0.12317858631182717,0.040442729617506064,0.16438495549929508,0.016268128971526595,0.1274151673311472
14,0.871,0.81,0.07,0.058782977605188774,0.12083052152363002,0.04338677991850075,0.16316940123114798,0.017509293174814436,0.12588829922413208
15,0.912,0.87,0.08,0.06056540250444587,0.11850498881178705,0.046301104230024356,0.16195758876693817,0.018746312247297704,0.12437775880330104
16,0.995,0.92,0.07,0.06232149790151464,0.11620236889865658,0.04918463212103473,0.16074982490486872,0.019978658802329963,0.12288406682158817
17,1.014,0.98,0.07,0.06405044345242711,0.11392301782577423,0.052036323546445266,0.15954640941135034,0.021205809743142026,0.12140773258155284
18,1.157,1.03,0.13,0.06575144164393862,0.11166726709552449,0.054855169945232485,0.1583476348444612,0.022427246840172922,0.11994925383856211
19,1.178,1.09,0.1,0.06742371876510325,0.10943542385449224,0.05764019530433426,0.15715378639270658,0.023642457307363914,0.11850911673323729
20,1.198,1.14,0.1,0.06906652586284323,0.10722777111699375,0.060390457187093564,0.15596514172875825,0.024850934376686746,0.11708779575280699
21,1.218,1.2,0.13,0.07067913968023513,0.10504456802719356,0.06310504772501994,0.15478197087788576,0.026052177870176645,0.11568575372074573
22,1.28,1.25,0.12,0.0722608635762043,0.10288605015809787,0.0657830945716594,0.15360453610079008,0.027245694768743233,0.11430344181378661
23,1.34,1.31,0.1,0.07381102842529298,0.10075242984561446,0.06842376181738899,0.15243309179049708,0.028430999777028464,0.11294129960518082
24,1.402,1.36,0.12,0.07532899349614718,0.09864389655580669,0.07102625086398584,0.1512678843828917,0.02960761588356703,0.11159975513297359
25,1.485,1.42,0.13,0.07681414730735753,0.09656061728342438,0.0735898012578654,0.15010915228039207,0.03077507491548359,0.11027922499205278
26,1.505,1.47,0.11,0.07826590845929435,0.09450273697974408,0.07611369148092795,0.14895712578820333,0.031932918086934076,0.10898011444876428
27,1.566,1.53,0.13,0.07968372644058763,0.09247037900772194,0.078597239697979,0.14781202706258892,0.03308069654046857,0.1077028175769551
28,1.626,1.58,0.13,0.08106708240791098,0.0904636456224691,0.08103980445969457,0.14667407007065497,0.034217971880465416,0.10644771741436944
29,1.688,1.64,0.11,0.08241548993772142,0.08848261847511185,0.08344078536009546,0.14554346056123627,0.03534431669776023,0.1052151861383671
30,1.793,1.69,0.13,0.0837284957485744,0.08652735913819294,0.08579962364747669,0.144420396046578,0.03645931508456919,0.1040055852599391
31,1.812,1.75,0.16,0.08500568039257968,0.08459790965085455,0.08811580278770906,0.14330506579459643,0.037562563138780126,0.10281926583495477
32,1.852,1.8,0.19,0.08624665891449465,0.08269429308206755,0.09038884897880484,0.14219765083155825,0.03865366945665922,0.1016565686914994
33,1.894,1.86,0.2,0.08745108147685232,0.0808165141101821,0.09261833161561697,0.14109832395505356,0.039732255612999944,0.1005178246720778
34,1.934,1.91,0.23,0.08861863394939731,0.07896455961713668,0.09480386370352474,0.14000724975717296,0.04079795662773684,0.0994033548893778
35,1.996,1.97,0.26,0.08974903846100137,0.07713839929576327,0.09694510221997314,0.1389245846578207,0.041850421418062944,0.09831347099421901
36,2.057,2.02,0.26,0.09084205391219864,0.07533798626873416,0.09904174842278407,0.13785047694808938,0.04288931323511854,0.097248475454264
37,2.117,2.08,0.28,0.09189747644650574,0.07356325771783032,0.10109354810422472,0.13678506684363276,0.04391431008435208,0.09620866184204319
38,2.158,2.13,0.32,0.09291513987874256,0.0718141355223924,0.10310029178988873,0.1357284865480123,0.044925105128688816,0.09519431513082793
39,2.219,2.19,0.3,0.09389491607862395,0.07009052690599393,0.10506181488152247,0.13468086032603893,0.0459214070736735,0.09420571199686885
40,2.28,2.24,0.29,0.09483671530794245,0.06839232509049714,0.10697799774299982,0.13364230458716395,0.04690294053378064,0.09324312112649709
41,2.342,2.3,0.32,0.09574048650971316,0.06671940995668538,0.10884876572869877,0.13261292797900315,0.04786944637910667,0.09230680352656544
42,2.404,2.35,0.35,0.09660621754770268,0.06507164871061327,0.11067408915356779,0.1315928314911046,0.04882068206166845,0.09139701283670008
43,2.446,2.41,0.35,0.09743393539481965,0.06344889655472405,0.11245398320420184,0.13058210856909022,0.049756421920534304,0.09051399564186145
44,2.488,2.46,0.4,0.09822370626891269,0.061850997362726375,0.11418850779029248,0.12958084523932104,0.05067645746501855,0.08965799178377065
45,2.592,2.52,0.43,0.0989756357146202,0.06027778435724825,0.1158777673358894,0.12858912024425803,0.05158059763519031,0.088829234669838
46,2.613,2.57,0.41,0.09968986863003673,0.05872908078941144,0.11752191051000294,0.12760700518874193,0.05246866903898093,0.08802795157832405
47,2.653,2.63,0.44,0.10036658923708486,0.05720470061969062,0.11912112989615042,0.12663456469752987,0.05334051616521814,0.08725436395856347
48,2.715,2.68,0.47,0.10100602099459734,0.05570444919966187,0.12067566160048233,0.12567185658460914,0.054196001571959855,0.08650868772518004
49,2.777,2.74,0.52,0.10160842645323748,0.05422812395441292,0.12218578479813184,0.12471893203499657,0.05503500604954192,0.08579113354532386
50,2.839,2.79,0.52,0.10217410705151121,0.052775515065469895,0.12365182121746202,0.12377583579984822,0.0558574287577917,0.08510190711806317
51,2.9,2.85,0.54,0.10270340285224237,0.05134640615413564,0.12507413456199357,0.12284260640564258,0.0566631873369072,0.08444120944512394
52,2.961,2.9,0.57,0.10319669221899568,0.04994057496515432,0.12645312987001064,0.12191927637791998,0.05745221799156275,0.08380923709217018
53,2.981,2.96,0.6,0.1036543914320429,0.048557794050634685,0.12778925281211306,0.12100587247966946,0.058224475547868554,0.08320618243978259
54,3.043,3.01,0.61,0.10407695424357337,0.04719783145422719,0.12908298892721576,0.12010241596416768,0.058979933482873566,0.08263223392325719
55,3.103,3.07,0.65,0.1044648713719582,0.04586045139568343,0.13033486279765588,0.1192089228419856,0.059718583926364144,0.08208757626032603
56,3.164,3.12,0.67,0.10481866993498952,0.04454541495611409,0.13154543716418235,0.1183254041619129,0.060440437634780464,0.08157239066590798
57,3.227,3.18,0.67,0.10513891282212387,0.0432524807644673,0.1327153119817015,0.11745186630562374,0.06114552393714719,0.08108685505303671
58,3.309,3.23,0.71,0.10542619800586737,0.04198140568589883,0.13384512341674992,0.11658831129596932,0.06183389065299098,0.0806311442191797
59,3.329,3.29,0.73,0.10568115779257675,0.04073194551271079,0.13493554278778466,0.11573473711878904,0.06250560398229169,0.08020543001723515
60,3.391,3.34,0.73,0.10590445801312265,0.03950385565837884,0.13598727544954634,0.11489113805802825,0.06316074836758627,0.07980988151057455
61,3.431,3.4,0.76,0.1060967971540671,0.0382968918549325,0.13700105962297196,0.11405750504372626,0.06379942632841334,0.07944466511157325
62,3.492,3.45,0.77,0.10625890543022214,0.03711081085365994,0.13797766517240212,0.11323382601211521,0.06442175826835686,0.07910994470314084
63,3.553,3.51,0.75,0.10639154379967673,0.035945371128804145,0.13891789233210028,0.1124200862767348,0.06502788225501495,0.07880588174282782
64,3.595,3.56,0.75,0.10649550292258823,0.03480033358361449,0.13982257038433454,0.1116162689092083,0.06561795377328215,0.07853263534914863
65,3.721,3.62,0.77,0.10657160206522946,0.03367546225780613,0.14069255629145286,0.11082235512816098,0.06619214545238596,0.0782903623698156
66,3.742,3.67,0.76,0.1066206879509587,0.032570525035132636,0.14152873328454296,0.11003832469463536,0.06675064676715918,0.07807921743161866
67,3.763,3.73,0.77,0.10664363355993957,0.03148529434939234,0.14233200941139562,0.10926415631223312,0.0672936637140591,0.07789935297172358
68,3.805,3.78,0.8,0.10664133687960226,0.03041954788677988,0.14310331604660403,0.10849982803009944,0.06782141846247225,0.07775091925020415
69,3.865,3.84,0.82,0.10661471960802413,0.02937306928211065,0.14384360636673166,0.10774531764677275,0.06833414898187737,0.07763406434367567
70,3.949,3.89,0.81,0.10656472581260534,0.028345648806167554,0.1445538537935801,0.10700060311286679,0.06883210864548135,0.07754893411995346
71,3.97,3.95,0.8,0.10649232054660131,0.02733708404130964,0.14523505040867507,0.10626566293055513,0.06931556581099887,0.07749567219371753
72,4.072,4.0,0.84,0.10639848842623724,0.026347180542512977,0.1458882053421579,0.10554047654789199,0.06978480337930726,0.07747441986322628
73,4.092,4.06,0.83,0.106284232171272,0.025375752481129384,0.1465143431393193,0.10482502474611119,0.07024011833176633,0.07748531602821171
74,4.154,4.11,0.82,0.10615057111198246,0.024422623268831517,0.14711450210803656,0.1041192900181881,0.07068182124704057,0.07752849708920292
75,4.216,4.17,0.83,0.1059985396655976,0.023487626159476777,0.1476897326503781,0.10342325693709582,0.07111023579830462,0.07760409682861762
76,4.277,4.22,0.81,0.10582918578521983,0.02257060482695861,0.14824109558163592,0.10273691251229784,0.07152569823175485,0.07771224627399832
77,4.338,4.28,0.78,0.10564356938425172,0.021671413917460396,0.14876966044004156,0.10206024653308765,0.07192855682738614,0.07785307354376968
78,4.442,4.33,0.79,0.10544276073932278,0.02078991957479041,0.14927650379040525,0.10139325189744725,0.07231917134301609,0.07802670367589719
79,4.462,4.39,0.8,0.10522783887470606,0.019925999937613608,0.14976270752488202,0.10073592492518564,0.07269791244255094,0.0782332584398685
80,4.482,4.44,0.77,0.10499988993121669,0.019079545607470216,0.15022935716401123,0.10008826565425297,0.07306516110948903,0.07847285613250624
81,4.524,4.5,0.78,0.10476000552258083,0.01825046008657733,0.15067754016108706,0.09945027811931902,0.07342130804665781,0.07874561135823616
82,4.584,4.55,0.81,0.10450928108226153,0.017438660184566735,0.1511083442128244,0.09882197061193225,0.0737667530631872,0.0790516347945426
83,4.646,4.61,0.8,0.10424881420374323,0.01664407639347207,0.1515228555792118,0.09820335592178225,0.07410190444973482,0.07939103294343293
84,4.688,4.66,0.81,0.10397970297730572,0.015866653230402598,0.1519221574153931,0.09759445155874769,0.0744271783429977,0.07976390786979672
85,4.791,4.72,0.82,0.10370304432635073,0.015106349547417049,0.15230732811837636,0.0969952799555216,0.07474299808057397,0.08017035692756182
86,4.811,4.77,0.81,0.10341993234637,0.014363138808148405,0.1526794396913192,0.09640586865066714,0.07504979354727519,0.08061047247452093
87,4.853,4.83,0.78,0.1031314566496531,0.013637009330757906,0.15303955612808984,0.09582625045198184,0.07534800051403023,0.0810843415766601
88,4.914,4.88,0.78,0.10283870071883,0.012927964496839544,0.153388731820744,0.09525646358007556,0.07563805997055616,0.08159204570279974
89,4.976,4.94,0.78,0.10254274027232863,0.01223602292595866,0.15372800999249853,0.09469655179212726,0.07592041745299422,0.08213366041036646
90,5.057,4.99,0.74,0.1022446416447967,0.011561218615612151,0.1540584211587092,0.09414656448588964,0.07619552236771374,0.08270925502314894
91,5.077,5.05,0.71,0.10194546018547188,0.010903601046568888,0.15438098161826486,0.0936065567841559,0.07646382731247718,0.08331889230192689
92,5.159,5.1,0.74,0.10164623867739321,0.01026323525373423,0.1546966919777059,0.09307658960004317,0.07672578739613964,0.08396262810887482
93,5.18,5.16,0.73,0.10134800578025886,0.009640201862775623,0.1550065357102918,0.09255672968351543,0.07698185955803047,0.08464051106662211
94,5.241,5.21,0.72,0.1010517744996679,0.00903459709270971,0.1553114777521724,0.09204704964955326,0.0772325018881364,0.08535258221281558
95,5.303,5.27,0.73,0.1007585406854366,0.008446532724552813,0.1556124631377611,0.09154762798832662,0.07747817294918694,0.08609887465098179
96,5.364,5.32,0.73,0.10046928156164052,0.00787613603607983,0.15591041567634445,0.0910585490576935,0.07771933110174001,0.08687941319843673
97,5.406,5.38,0.71,0.1001849542909673,0.007323549702807262,0.15620623667190686,0.090579903058344,0.07795643383337159,0.08769421403195393
98,5.465,5.43,0.69,0.09990649457585284,0.006788931665532409,0.1565008036880892,0.0901117859919095,0.07818993709307968,0.08854328433188986
99,5.547,5.49,0.69,0.09963481529873126,0.006272454965037115,0.15679496936016568,0.08965429960230799,0.0784202946320171,0.08942662192547138
100,5.567,5.54,0.64,0.09937080520360285,0.00577430754477879,0.15708956025591006,0.08920755130048444,0.07864795735165916,0.09034421492997073
101,5.628,5.6,0.62,0.0991153276210225,0.005294692022489173,0.15738537578721315,0.08877165407257667,0.07887337266049023,0.09129604139652193
102,5.71,5.65,0.62,0.09886921923851795,0.004833825431599769,0.1576831871742832,0.08834672637142987,0.07909698384025655,0.09228206895536085
103,5.731,5.71,0.59,0.09863328891832361,0.004391938933371978,0.15798373646420777,0.0879328919912989,0.07931922942278152,0.09330225446330286
104,5.792,5.76,0.57,0.09840831656413955,0.003969277500607053,0.1582877356055672,0.08753027992552329,0.07954054257827987,0.09435654365431148
105,5.855,5.82,0.58,0.0981950520384043,0.0035660995738774695,0.158595865580662,0.08713902420696454,0.0797613505160458,0.09544487079404285
106,5.894,5.87,0.59,0.09799421413135923,0.003182676691321898,0.15890877559674718,0.08675926373106559,0.07998207389833331,0.09656715833926406
107,5.957,5.93,0.57,0.0978064895830088,0.002819293093164343,0.15922708233747387,0.08639114206152032,0.0802031262681983,0.097723316603051
108,6.018,5.98,0.57,0.09763253215894373,0.002476245302277137,0.15955136927550206,0.08603480721872481,0.08042491349203283,0.09891324342667068
109,6.06,6.04,0.6,0.09747296178088284,0.0021538416822872155,0.1598821860469692,0.08569041145139812,0.0806478332174992,0.10013682385904023
110,6.122,6.09,0.58,0.0973283637127027,0.0018524019748571217,0.16022004788821562,0.08535811099196124,0.080872274347553,0.1013939298446228
111,6.183,6.15,0.56,0.09719928780264969,0.0015722568178199135,0.16056543513492122,0.08503806579641425,0.0810986165312289,0.10268441992056587
112,6.307,6.2,0.57,0.09708624778235023,0.0013137472458215644,0.1609187927836196,0.08473043926954603,0.08132722967184812,0.10400813892380527
113,6.327,6.26,0.57,0.09698972062314938,0.0010772241750558683,0.16128053011542537,0.08443539797635312,0.0815584734532893,0.10536491770876445
114,6.367,6.31,0.51,0.09691014595020693,0.0008630478736122422,0.16165102038170173,0.08415311134056933,0.08179269688494221,0.10675457287621001
115,6.409,6.37,0.48,0.09684792551467387,0.0006715874189173839,0.1620306005512907,0.08388375133124855,0.08203023786592947,0.10817690651380014
116,6.451,6.42,0.47,0.09680342272418584,0.000503220143678375,0.16241957111883715,0.08362749213837681,0.08227142276913454,0.10963170594888362
117,6.513,6.48,0.42,0.09677696223185873,0.0003583310715617947,0.1628181959736775,0.08338450983845863,0.08251656604550674,0.1111187435141833
118,6.575,6.53,0.43,0.09676882958393172,0.00023731234361196193,0.16322670232871517,0.0831549820509349,0.08276596984902423,0.11263777632710867
119,6.638,6.59,0.47,0.09677927092613399,0.0001405626362294062,0.1636452807086417,0.08293908758619395,0.08301992368259586,0.11418854608353975
120,6.677,6.64,0.47,0.09680849276875159,6.84865714552085e-05,0.16407408499678,0.08273700608585635,0.08327870406508874,0.11577077886696513
121,6.74,6.7,0.47,0.0968566618102572,2.1494120316159086e-05,0.1645132325397479,0.08254891765591861,0.08354257421959656,0.1173841849738455
122,6.801,6.75,0.52,0.09692390481927371,0.0,0.1649628043090679,0.08237500249324596,0.08381178378302451,0.11902845875602175
123,6.884,6.81,0.53,0.0970103085745893,4.4230655484915426e-06,0.16542284511876795,0.08221544050585916,0.0840865685370556,0.12070327848091274
124,6.904,6.86,0.49,0.09711591986292682,3.518569654638328e-05,0.16589336389793724,0.0820704109274737,0.08436715016057021,0.12240830621016424
125,6.945,6.92,0.5,0.09724074553416567,9.27131790159727e-05,0.1663743340171463,0.08194009192673968,0.08465373600360132,0.12414318769731497
126,7.027,6.97,0.54,0.09738475261370706,0.00017743308247405426,0.16686569366765389,0.08182466021152307,0.08494651888291406,0.12590755230495607
127,7.067,7.03,0.51,0.09754786847165454,0.00028977463188890174,0.1673673462923641,0.08172429062839998,0.08524567689928948,0.12770101294179917
128,7.107,7.08,0.51,0.09772998104844278,0.0004301680740889543,0.16787916106752226,0.08163915575738771,0.08555137327657178,0.12952316602002922
129,7.169,7.14,0.52,0.09793093913648585,0.0005990440380092427,0.16840097343410854,0.08156942550185771,0.08586375622251695,0.13137359143325156
130,7.23,7.19,0.52,0.09815055271733834,0.0007968328879885636,0.16893258567782243,0.08151526667353538,0.08618295881146201,0.13325185255523717
131,7.273,7.25,0.5,0.09838859335376986,0.0010239640691717153,0.1694737675564643,0.0814768425724763,0.08650909888880962,0.13515749625955836
132,7.376,7.3,0.53,0.09864479463604173,0.001280865443998895,0.17002425697342266,0.08145431256192431,0.0868422789972943,0.13709005296011867
133,7.396,7.36,0.56,0.09891885268156766,0.0015679626188077572,0.17058376069588332,0.08144783163801464,0.08718258632496766,0.13904903667253593
134,7.436,7.41,0.55,0.09921042668704796,0.001885678259709066,0.17115195511629594,0.08145754999438164,0.08753009267481303,0.14103394509634504
135,7.539,7.47,0.57,0.09951913953209464,0.0022344313971003277,0.17172848705555926,0.08148361258186818,0.08788485445588305,0.14304425971801038
136,7.56,7.52,0.59,0.09984457843330605,0.0026146367184057017,0.1723129746063051,0.08152615866368629,0.08824691269585122,0.14507944593473052
137,7.602,7.58,0.55,0.10018629564770623,0.0030267038487962502,0.1729050080145927,0.08158532136650024,0.08861629307487592,0.14713895319895465
138,7.684,7.63,0.55,0.10054380922443339,0.0034710366197181664,0.17350415059826066,0.08166122722798334,0.08899300598068312,0.1492222151834573
139,7.746,7.69,0.56,0.10091660380353255,0.003948032325067991,0.17410993970012223,0.08175399574146945,0.08937704658476905,0.15132864996676088
140,7.787,7.74,0.56,0.10130413146067421,0.0044580809648457065,0.17472188767413663,0.08186373889839023,0.08976839493960598,0.15345766023866697
141,7.828,7.8,0.51,0.10170581259657292,0.005001564476134573,0.17533948290264828,0.08199056072925832,0.09016701609669818,0.15560863352564042
142,7.89,7.85,0.51,0.10212103686981103,0.005578855951346212,0.1759621908427479,0.08213455684403691,0.09057286024529886,0.15778094243578197
143,7.931,7.91,0.53,0.10254916417168468,0.006190318843835815,0.17658945509977447,0.08229581397283423,0.09098586287155669,0.15997394492313027
144,7.992,7.96,0.53,0.10298952564159003,0.006836306161203012,0.17722069852593555,0.08247440950796385,0.0914059449378101,0.16218698457107358
145,8.053,8.02,0.54,0.10344142472136021,0.007517159646820501,0.17785532434197168,0.0826704110485148,0.09183301308168869,0.16441939089470392
146,8.095,8.07,0.58,0.10390413824686423,0.008233208950348892,0.1784927172797275,0.08288387594867007,0.09226695983463437,0.1666704796619465
147,8.177,8.13,0.59,0.10437691757510446,0.008984770788176154,0.17913224474343695,0.08311485087104718,0.09270766385942861,0.16893955323323298
148,8.219,8.18,0.57,0.104858989745008,0.009772148094871895,0.1797732579875129,0.0833633713462877,0.09315499020630758,0.17122590091939022
149,8.26,8.24,0.59,0.10534955867008515,0.01059562916691142,0.18041509330863945,0.08362946134004869,0.09360879058725227,0.17352879935732896
150,8.342,8.29,0.61,0.10584780636111428,0.01145548680013382,0.18105707324998294,0.08391313282853154,0.09406890366804724,0.17584751290306752
151,8.383,8.35,0.61,0.10635289417698772,0.012351977422671578,0.1816985078153521,0.08421438538374518,0.09453515537770178,0.17818129404162023
152,8.466,8.4,0.61,0.10686396410181212,0.013285340225418461,0.1823386956911522,0.08453320576979292,0.09500735923482284,0.18052938381329733
153,8.487,8.46,0.64,0.10738014004630951,0.01425579629240002,0.18297692547401928,0.08486956755149747,0.09548531669052626,0.18289101225595716
154,8.548,8.51,0.62,0.10790052917153253,0.015263547733553595,0.18361247690210428,0.08522343071656628,0.09596881748747414,0.18526539886269586
155,8.609,8.57,0.62,0.10842422323288291,0.01630877682238879,0.18424462208808176,0.08559474131229157,0.09645764003462454,0.18765175305436713
156,8.651,8.62,0.65,0.10895029994238561,0.017391645140886123,0.1848726267520304,0.08598343109759764,0.09695155179727521,0.19004927466620006
157,8.712,8.68,0.61,0.10947782434710594,0.01851229273390834,0.18549575145235472,0.08638941721117374,0.09745030970197369,0.19245715444764405
158,8.774,8.73,0.61,0.11000585022151341,0.01967083727539234,0.18611325281289687,0.086812601856458,0.09795366055585016,0.19487457457447124
159,8.857,8.79,0.64,0.1105334214715154,0.0208673732486704,0.18672438474434228,0.08725287200434587,0.098461341479909,0.1973007091721502
160,8.877,8.84,0.67,0.11105957354782856,0.02210197114343673,0.187328399657977,0.0877100991146571,0.09897308035578703,0.19973472484959792
161,8.919,8.9,0.67,0.11158333486632607,0.02337467667212596,0.18792454966981953,0.0881841388775741,0.09948859628546029,0.20217578124257526
162,9.0,8.95,0.67,0.11210372823297965,0.024685510008780883,0.18851208779312206,0.0886748309764456,0.10000760006336762,0.20462303156612022
163,9.04,9.01,0.69,0.11261977227100345,0.026034465053788577,0.18909026911721577,0.08918199887351867,0.10052979466042422,0.207075623175452
164,9.102,9.06,0.69,0.11313048284780661,0.02742150872807598,0.18965835197066508,0.08970544962028269,0.10105487571941454,0.209532698134736
165,9.205,9.12,0.67,0.11363487449937586,0.02884658030042951,0.19021559906671287,0.09024497369414784,0.10158253206126458,0.21199339379301949
166,9.225,9.17,0.68,0.11413196184974923,0.030309590751499603,0.1907612786290488,0.09080034486312177,0.10211244620169961,0.2144568433665612
167,9.267,9.23,0.67,0.11462076102331539,0.03181042217776219,0.19129466549603025,0.0913713200799914,0.10264429487778672,0.21692217652669943
168,9.329,9.28,0.64,0.11510029104776046,0.033348927238335484,0.19181504220161663,0.09195763940730865,0.10317774958384511,0.21938851999236325
169,9.39,9.34,0.64,0.11556957524554846,0.03492492864723427,0.19232170003141452,0.0925590259742785,0.10371247711617602,0.22185499812632484
170,9.452,9.39,0.68,0.11602764261185765,0.036538218713410335,0.1928139400523674,0.09317518596646375,0.10424814012602358,0.22432073353431506
171,9.493,9.45,0.67,0.11647352917693309,0.03818855893069184,0.19329107411476212,0.09380580864902066,0.10478439768013419,0.2267848476661645
172,9.574,9.5,0.67,0.11690627935087912,0.03987567961944932,0.19375242582535618,0.09445056642396027,0.10532090582824402,0.22924646141819208
173,9.594,9.56,0.7,0.11732494724900593,0.041599279621517715,0.19419733149052476,0.09510911492174953,0.10585731817680123,0.23170469573610494
174,9.655,9.61,0.73,0.11772859799594375,0.04335902604966331,0.19462514102836995,0.09578109312747594,0.10639328646821906,0.2341586722176916
175,9.717,9.67,0.71,0.1181163090068257,0.045154554092782774,0.19503521884871677,0.09646612354182846,0.1069284611649526,0.23660751371460167
176,9.758,9.72,0.71,0.11848717124390712,0.046985466878074734,0.19542694469986754,0.09716381237728018,0.10746249203769187,0.23905034493251964
177,9.82,9.78,0.73,0.11884029044705093,0.048851335391544945,0.19579971448094052,0.09787374979000682,0.10799502875697131,0.24148629302904773
178,9.881,9.83,0.71,0.11917478833657091,0.05075169845826453,0.19615294101863165,0.09859551014813558,0.10852572148749873,0.24391448820864295
179,9.942,9.89,0.72,0.11948980378699246,0.05268606278372832,0.19648605480731993,0.09932865233683992,0.1090542214845014,0.24633406431400975
180,10.004,9.94,0.74,0.11978449397036547,0.0546539030574531,0.19679850471158214,0.10007272010057193,0.10958018169137392,0.2487441594134036
181,10.046,10.0,0.75,0.1200580354678442,0.05665466211964468,0.19708975863036055,0.10082724242240536,0.1101032573379001,0.251143916383285
182,10.088,10.05,0.75,0.12030962534832074,0.05868775119140625,0.19735930412220046,0.10159173394011935,0.11062310653831339,0.2535324834856734
183,10.149,10.11,0.77,0.12053848221295449,0.060752550168624776,0.19760664899110797,0.10236569539837388,0.1111393908884572,0.2559090149394146
184,10.211,10.16,0.78,0.1207438472044913,0.062848407979408,0.19783132183267124,0.10314861413615684,0.11165177606131264,0.2582726714844651
185,10.315,10.22,0.76,0.12092498498031724,0.06497464300479133,0.19803287254014784,0.10393996460862724,0.11215993240016707,0.2606226209382604
186,10.336,10.27,0.8,0.12108118464824565,0.06713054356238783,0.19821087277025556,0.10473920894249616,0.11266353550870178,0.2629580387432824
187,10.376,10.33,0.8,0.12121176066410212,0.06931536845263167,0.19836491636846665,0.10554579752408166,0.113162266837278,0.2652781085050459
188,10.419,10.38,0.79,0.12131605369025886,0.07152834756717853,0.19849461975371546,0.10635916961908125,0.11365581426469917,0.26758202251984864
189,10.479,10.44,0.78,0.12139343141436867,0.07376868255886665,0.19859962226255728,0.10717875402295687,0.11414387267472521,0.2698689822917259
190,10.542,10.49,0.8,0.12144328932765401,0.07603554757241258,0.19867958645293582,0.1080039697406732,0.11462614452661278,0.27213819903811515
191,10.582,10.55,0.79,0.12146505146222368,0.07832809003463492,0.198734198367835,0.1088342266943561,0.11510234041894876,0.2743888941837669
192,10.685,10.6,0.76,0.12145817108703415,0.08064543150240389,0.19876316775925812,0.10966892645718505,0.11557217964603035,0.2766202998424617
193,10.706,10.66,0.78,0.12142213136226773,0.08298666856577275,0.19876622827321808,0.11050746301148098,0.11603539074602523,0.2788316592861155
194,10.747,10.71,0.78,0.12135644595204552,0.08535087380301974,0.19874313759670661,0.1113492235285412,0.1164917120401231,0.2810222274008801
195,10.809,10.77,0.76,0.12126065959549792,0.08773709678378165,0.19869367756785725,0.11219358916741425,0.11694089216186056,0.28319127112991516
196,10.871,10.82,0.79,0.1211343486362716,0.0901443651161897,0.19861765425065261,0.11303993588962301,0.11738269057576825,0.2853380699026037
197,10.933,10.88,0.84,0.1209771215105816,0.09257168553389405,0.19851489797556104,0.11388763528685879,0.11781687808446048,0.28746191605012733
198,10.954,10.93,0.83,0.12078861919394882,0.09501804501897294,0.19838526334746415,0.11473605541879524,0.1182432373232686,0.2895621152074585
199,11.056,10.99,0.84,0.1205685156067982,0.09748241195686719,0.19822862922220255,0.11558456165832257,0.1186615632415176,0.2916379867019446
200,11.077,11.04,0.88,0.1203165179791214,0.09996373731962699,0.19804489865301989,0.11643251754165425,0.11907166356956408,0.29368886392868926
201,11.119,11.1,0.89,0.1200323671744265,0.10246095587388962,0.19783399880812944,0.11727928562091537,0.11947335927074618,0.29571409471290144
202,11.18,11.15,0.87,0.11971583797320921,0.10497298741013125,0.19759588086055543,0.11812422831699489,0.11986648497742652,0.29771304165932316
203,11.243,11.21,0.88,0.11936673931618684,0.10749873798987056,0.1973305198513259,0.11896670877063707,0.12025088941033847,0.29968508248878944
204,11.305,11.26,0.89,0.11898491450753736,0.11003710120765588,0.1970379145270193,0.11980609168994309,0.12062643578046771,0.3016296103619136
205,11.409,11.32,0.88,0.1185702413783729,0.11258695946485842,0.1967180871526111,0.12064174419263246,0.1209930021727146,0.3035460341898463
206,11.43,11.37,0.88,0.11812263241063697,0.11514718525252658,0.1963710833005117,0.12147303664158539,0.12135048191058226,0.30543377893204277
207,11.472,11.43,0.91,0.11764203482156511,0.1177166424407939,0.19599697161663232,0.1222993434723409,0.12169878390112715,0.3072922858809735
208,11.535,11.48,0.91,0.11712843060881824,0.12029418757250318,0.19559584356427812,0.1231200440113281,0.12203783295940075,0.30912101293372146
209,11.577,11.54,0.91,0.1165818365564078,0.12287867115878019,0.19516781314664547,0.12393452328362885,0.12236757011160787,0.31091943485041557
210,11.659,11.59,1.0,0.11600230420158515,0.12546893897426176,0.19471301660871823,0.12474217280901391,0.12268795287621509,0.3126870434994611
211,11.701,11.65,1.01,0.11538991976294637,0.12806383334961102,0.194231612119405,0.12554239138490197,0.12299895552226546,0.3144233480895332
212,11.783,11.7,1.0,0.11474480403008089,0.13066219445890664,0.19372377943481808,0.12633458585482638,0.12330056930419392,0.3161278753883181
213,11.804,11.76,1.02,0.11406711221514894,0.13326286159952702,0.1931897195436203,0.1271181718610113,0.12359280267249477,0.31780016992801385
214,11.845,11.81,1.05,0.11335703376681863,0.13586467446224268,0.19262965429536416,0.12789257457973693,0.12387568145966178,0.3194397941976363
215,11.906,11.87,1.02,0.11261479214702895,0.13846647438935517,0.19204382601274192,0.1286572294382725,0.1241492490408827,0.32104632882221107
216,11.946,11.92,1.01,0.11184064457106127,0.1410671056188669,0.19143249708865018,0.12941158281225854,0.12441356646901544,0.32261937272896357
217,12.008,11.98,1.04,0.11103488171139972,0.14366541651279913,0.19079594956894805,0.13015509270251363,0.12466871258340406,0.32415854330061517
218,12.068,12.03,1.04,0.11019782736584598,0.14626026076784504,0.19013448472175554,0.13088722939029945,0.12491478409211207,0.32566347651586197
219,12.151,12.09,1.04,0.10932983809033604,0.14885049860654068,0.18944842259409495,0.13160747607010426,0.12515189562716045,0.327133827077063
220,12.172,12.14,1.07,0.10843130279689338,0.1514349979470918,0.18873810155662393,0.13231532945904273,0.12538017977236718,0.32856926852511803
221,12.254,12.2,1.1,0.10750264231716229,0.15401263554994177,0.18800387783715222,0.13301030038202669,0.12559978706340463,0.3299694933414744
222,12.274,12.25,1.1,0.10654430893199943,0.15658229813917335,0.18724612504360136,0.13369191433192823,0.12581088595972187,0.33133421303720806
223,12.336,12.31,1.12,0.1055567858676389,0.1591428834969757,0.18646523367704831,0.1343597120040379,0.12601366278801915,0.33266315822916515
224,12.398,12.36,1.16,0.10454058675898191,0.16169330152964892,0.18566161063548806,0.135013249804219,0.1262083216570146,0.33395607870321853
225,12.459,12.42,1.15,0.10349625508059965,0.16423247530386098,0.18483567870894155,0.13565210033026773,0.126395084343299,0.3352127434647483
226,12.501,12.47,1.16,0.102424363546082,0.16675934205204396,0.18398787606651495,0.13627585282609797,0.12657419014813603,0.33643294077649155
227,12.563,12.53,1.19,0.10132551347640664,0.1692728541459413,0.18311865573597705,0.13688411360846545,0.1267458957251278,0.33761647818389046
228,12.645,12.58,1.19,0.10020033413803289,0.1717719800374092,0.18222848507637157,0.13747650646601,0.1269104748787289,0.33876318252800974
229,12.665,12.64,1.16,0.09904948205144017,0.1742557051656455,0.18131784524413647,0.13805267303042254,0.12706821833364879,0.33987289994602293
230,12.726,12.69,1.17,0.09787364027084074,0.17672303283003044,0.18038723065317325,0.13861227311953825,0.12721943347523393,0.34094549585919465
231,12.788,12.75,1.19,0.0966735176358142,0.17917298502771253,0.17943714842931427,0.13915498505212143,0.12736444406096242,0.3419808549482342
232,12.889,12.8,1.19,0.09544984799562725,0.18160460325501768,0.17846811785966316,0.13968050593406875,0.12750358990321456,0.34297888111589103
233,12.91,12.86,1.21,0.09420338940701016,0.184016949271793,0.17748066983729674,0.1401885519157826,0.12763722652350548,0.3439394974366974
234,12.952,12.91,1.23,0.0929349233061688,0.186409105827941,0.17647534630181036,0.14067885842055647,0.1277657247783972,0.34486264609382106
235,13.014,12.97,1.24,0.09164525365583463,0.1887801773515897,0.17545269967617644,0.14115118034390792,0.1278894704573529,0.34574828830303544
236,13.077,13.02,1.24,0.0903352060681967,0.1911292905985185,0.1744132923003741,0.14160529222385165,0.1280088638528498,0.3465964042238642
237,13.139,13.08,1.26,0.08900562690461353,0.19345559526257966,0.17335769586223654,0.14204098838211848,0.12812431930312876,0.3474069928579988
238,13.159,13.13,1.27,0.08765738235306798,0.19575826454690387,0.17228649082595396,0.14245808303632615,0.12823626470802146,0.34818007193512407
239,13.24,13.19,1.26,0.08629135748439083,0.19803649569570758,0.1712002658586669,0.14285641038312538,0.12834514101835623,0.34891567778632593
240,13.281,13.24,1.27,0.08490845528832194,0.20028951048659388,0.17009961725556705,0.14323582465242626,0.12845140169950217,0.34961386520531296
241,13.342,13.3,1.28,0.0835095956905021,0.20251655568336502,0.1689851483639005,0.1435962001329521,0.12855551216966568,0.350274707297746
242,13.424,13.35,1.25,0.08209571455149205,0.20471690344953397,0.16785746900624213,0.14393743116954216,0.12865794921360516,0.35089829531904876
243,13.464,13.41,1.24,0.08066776264890159,0.20688985172291685,0.1667171949033755,0.14425943213279635,0.12875920037247424,0.3514847385011505
244,13.527,13.46,1.28,0.07922670464368704,0.20903472455187486,0.16556494709707711,0.1445621373618054,0.12885976331054097,0.35203416386868
245,13.548,13.52,1.27,0.07777351803165015,0.21115087239389665,0.1644013513730889,0.144845501080795,0.12896014515955814,0.3525467160451594
246,13.609,13.57,1.26,0.07630919208114663,0.21323767237725388,0.1632270376845934,0.14510949729049671,0.1290608618415838,0.3530225570497311
247,13.671,13.63,1.31,0.07483472675799392,0.21529452852644454,0.16204263957660744,0.14535411963492795,0.12916243737108257,0.35346186608489
248,13.733,13.68,1.32,0.07335113163857622,0.2173208719520866,0.16084879361185597,0.14557938124406605,0.12926540313718177,0.3538648393156084
249,13.796,13.74,1.31,0.07185942481218503,0.2193161610058904,0.15964613879882186,0.14578531455273439,0.12937029716701262,0.3542316896401819
250,13.837,13.79,1.3,0.07036063177369645,0.221279881401374,0.1584353160227324,0.1459719710959596,0.12947766337112915,0.3545626464530983
251,13.899,13.85,1.34,0.06885578430775996,0.2232115463010811,0.1572169674802591,0.14613942128109936,0.12958805077207153,0.35485795540023
252,13.982,13.9,1.31,0.06734591936575163,0.22511069637117026,0.15599173611868863,0.14628775413713366,0.129702012717203,0.3551178781266814
253,14.003,13.96,1.3,0.06583207793680527,0.22697689980434976,0.15476026508027857,0.14641707704164614,0.12982010607700575,0.35534269201766694
254,14.044,14.01,1.33,0.06431530391427938,0.22880975231220882,0.1535231971524527,0.1465275154261777,0.12994289043006912,0.3555326899328194
255,14.105,14.07,1.3,0.06279664295904662,0.23060887708799793,0.15228117422442478,0.14661921246077178,0.13007092723604796,0.35568817993429497
256,14.147,14.12,1.27,0.06127714136101505,0.23237392474084437,0.15103483675078946,0.1466923287186184,0.13020477899790808,0.3558094850089641
257,14.209,14.18,1.26,0.059757844900292054,0.23410457320230868,0.14978482322257414,0.1467470418217475,0.13034500841480415,0.3558969427848735
258,14.271,14.23,1.26,0.058239797709386885,0.2358005276061374,0.14853176964620038,0.14678354606875377,0.1304921775269561,0.35595090524207845
259,14.353,14.29,1.23,0.05672404113781244,0.23746152014206362,0.14727630903075548,0.14680205204558727,0.13064684685389763,0.35597173841790397
260,14.373,14.34,1.23,0.055211612620401085,0.23908730988455992,0.14601907088390673,0.14680278622053636,0.13080957452746622,0.35595982210670957
261,14.435,14.4,1.27,0.05370354455061538,0.24067768259753075,0.14476068071672926,0.1467859905246379,0.13098091542090112,0.35591554955428256
262,14.477,14.45,1.25,0.05220086316013918,0.24223245051598552,0.14350175955767713,0.14675192191882505,0.13116142027541636,0.3558393271470483
263,14.558,14.51,1.24,0.05070458740607919,0.24375145210572327,0.14224292347592035,0.14670085194914656,0.13135163482562803,0.3557315740963409
264,14.599,14.56,1.25,0.04921572786717275,0.24523455180199635,0.1409847831142775,0.1466330662913743,0.13155209892523978,0.3555927221179913
265,14.641,14.62,1.25,0.04773528565045463,0.24668163972803667,0.13972794323199245,0.14654886428627398,0.1317633456744222,0.35542321510746605
266,14.723,14.67,1.21,0.046264251309863565,0.24809263139426968,0.13847300225761489,0.14644855846677213,0.1319859005503538,0.3552235088107546
267,14.763,14.73,1.21,0.044803603778257754,0.24946746737905204,0.13722055185224044,0.14633247407824213,0.1322202805424145,0.354994070491199
268,14.804,14.78,1.21,0.04335430931427449,0.2508061129918413,0.13597117648335003,0.1462009485931569,0.1324669932935384,0.3547353785924684
269,14.866,14.84,1.19,0.04191732046542484,0.25210855791980713,0.13472545300947808,0.14605433122138275,0.13272653624923636,0.35444792239791795
270,14.929,14.89,1.16,0.04049357504877263,0.25337481585898236,0.13348395027594265,0.14589298241739723,0.13299939581579184,0.3541322016865959
271,14.971,14.95,1.17,0.039083995150508054,0.25460492413108987,0.13224722872189154,0.14571727338568702,0.13328604652912404,0.3537887263861425
272,15.073,15.0,1.14,0.03768948614568986,0.2557989432871361,0.13101583999894248,0.14552758558551931,0.13358695023580341,0.35341801622274555
273,15.093,15.06,1.11,0.036310935739389434,0.2569569566987424,0.12979032660170425,0.14532431023620074,0.13390255528769,0.3530206003682189
274,15.153,15.11,1.12,0.03494921303043448,0.2580790701380011,0.12857122151044145,0.14510784782386862,0.13423329575164605,0.3525970170841842
275,15.214,15.17,1.11,0.03360516759893307,0.25916541134643445,0.1273590478461048,0.1448786076108074,0.13457959063574984,0.3521478133633025
276,15.256,15.22,1.08,0.03227962861876047,0.26021612959344326,0.12615431853789874,0.14463700714826763,0.13494184313340732,0.35167354456752786
277,15.318,15.28,1.08,0.03097340399619671,0.2612313952245135,0.12495753600349756,0.14438347179378622,0.1353204398867315,0.3511747740634275
278,15.38,15.33,1.06,0.02968727953590746,0.26221139919942515,0.12376919184197609,0.1441184342340155,0.13571575027052993,0.3506520728546941
279,15.461,15.39,1.04,0.028422018135454558,0.2631563526207689,0.12258976653952207,0.14384233401399993,0.13612812569821522,0.3501060192120663
280,15.481,15.44,1.02,0.027178359009491018,0.2640664862532331,0.12141972918804422,0.14355561707367412,0.13655789895092083,0.34953719830095165
281,15.524,15.5,1.03,0.025957016944734762,0.2649420500343335,0.120259537216864,0.1432587352921332,0.13700538353106695,0.3489462018071078
282,15.585,15.55,1.0,0.02475868158673335,0.26578331257742843,0.11910963613775587,0.14295214603998174,0.1374708730415806,0.348333627560751
283,15.648,15.61,0.96,0.023584016759336593,0.2665905606679398,0.11797045930365417,0.14263631173984137,0.13795464059193271,0.3477000791594166
284,15.71,15.66,0.95,0.02243365981769495,0.2673640987536803,0.1168424276813628,0.14231169943491553,0.13845693823211425,0.3470461655898052
285,15.771,15.72,0.94,0.021308221035513632,0.2681042484300656,0.11572594963859995,0.14197878036537623,0.13897799641562553,0.3463725008487403
286,15.852,15.77,0.91,0.02020828302721742,0.26881134792084244,0.11462142074569727,0.14163802955224494,0.139518023492494,0.3456797035632965
287,15.873,15.83,0.9,0.019134400205621706,0.2694857515548484,0.11352922359225642,0.1412899253883928,0.14007720523326447,0.3449683966101641
288,15.914,15.88,0.91,0.018087098275674483,0.2701278292392707,0.1124497276190543,0.14093494923628117,0.14065570438483294,0.34423920673438085
289,15.976,15.94,0.88,0.01706687376483861,0.27073796592987287,0.11138328896549217,0.1405735850320858,0.14125366025892613,0.3434927641676765
290,16.036,15.99,0.86,0.016074193590699712,0.27131656109868796,0.110330250332883,0.14020631889589474,0.14187118835396348,0.3427297022467817
291,16.097,16.05,0.87,0.015109494666387916,0.2718640281997315,0.10929094086384626,0.13983363874773824,0.1425083800109789,0.34195065703212996
292,16.138,16.1,0.85,0.01417318354438621,0.2723807941333067,0.10826567603803844,0.13945603392926514,0.1431653021042225,0.3411562669274224
293,16.178,16.16,0.81,0.013265636099267866,0.2728672987094568,0.10725475758439666,0.13907399483091132,0.14384199676699966,0.34034717230055367
294,16.24,16.21,0.82,0.012387197249860758,0.27332399411106223,0.10625847341002241,0.1386880125244214,0.1445384811532381,0.33952401510642327
295,16.301,16.27,0.81,0.011538180721275493,0.2737513443570157,0.10527709754578718,0.13829857840059986,0.14525474723520487,0.33868743851217203
296,16.363,16.32,0.77,0.010718868847150521,0.2741498247658658,0.10431089010869726,0.13790618381219807,0.14599076163771751,0.3378380865254039
297,16.404,16.38,0.77,0.009929512412359433,0.2745199214203307,0.10336009728100039,0.13751131972189626,0.1467464655091177,0.3369766036259576
298,16.485,16.43,0.79,0.00917033053631117,0.27486213063312503,0.10242495130596775,0.13711447635539353,0.14752177442919406,0.3361036344017805
299,16.547,16.49,0.77,0.008441510596875694,0.2751769584145668,0.1015056705002612,0.1367161428596354,0.14831657835416615,0.335219823189461
300,16.568,16.54,0.76,0.0077432081948958014,0.27546491994242833,0.10060245928279694,0.13631680696617438,0.14913074159876055,0.33432581371999687
301,16.63,16.6,0.79,0.007075547159199605,0.27572653903447164,0.09971550822002526,0.13591695465959744,0.14996410285534037,0.33342224877040244
302,16.69,16.65,0.78,0.0064386195920005575,0.27596234762403776,0.09884499408755448,0.1355170698508767,0.1508164752499882,0.3325097698217623
303,16.732,16.71,0.76,0.005832485954544235,0.2761728852389695,0.09799107994804729,0.1351176340554243,0.15168764643538177,0.3315890167243396
304,16.794,16.76,0.78,0.0052571751928162614,0.2763586984840816,0.09715391524530247,0.13471912607558847,0.15257737872024882,0.33066062737034924
305,16.856,16.82,0.79,0.004712684903062424,0.2765203405273708,0.09633363591440883,0.13432202168732635,0.15348540923513404,0.3297252373750005
306,16.919,16.87,0.78,0.004198981536794453,0.2766583705901906,0.0955303645078164,0.1339267933308437,0.1544114501341578,0.3287834797664189
307,16.98,16.93,0.75,0.00371600064486584,0.2767733534416839,0.09474421033710806,0.13353390980510785,0.155355188832391,0.3278359846850429
308,17.021,16.98,0.79,0.0032636471601110205,0.2768658588978222,0.09397526963017669,0.13314383596628326,0.15631628827841212,0.3268833790930428
309,17.082,17.04,0.78,0.0028417957179598333,0.27693646132539435,0.09322362570344069,0.13275703243023707,0.15729438726155598,0.3259262864942264
310,17.124,17.09,0.77,0.0024502910143715966,0.2769857391512039,0.0924893491486751,0.13237395527927476,0.1582891007532988,0.32496532666480354
311,17.185,17.15,0.81,0.0020889482003829023,0.2770142743766129,0.09177249803400014,0.13199505577320905,0.1593000202821638,0.32400111539532167
312,17.289,17.2,0.81,0.0017575533125335015,0.27702265209743976,0.09107311811855284,0.13162078006477057,0.1603267143414759,0.32303426424403664
313,17.31,17.26,0.89,0.001455863738416092,0.27701146002913146,0.0903912430803713,0.13125156891927264,0.16136872882925013,0.32206538030197746
314,17.35,17.31,0.89,0.0011836087165737542,0.27698128803711897,0.08972689475703632,0.13088785743836498,0.16242558751946728,0.3210950659699216
315,17.392,17.37,0.91,0.000940489869943207,0.27693272767231647,0.08908008339863617,0.13053007478767384,0.1634967925639783,0.3201239187473824
316,17.453,17.42,0.88,0.0007261817720088604,0.27686637171183626,0.08845080793263203,0.13017864392813908,0.16458182502428914,0.31915253103347513
317,17.515,17.48,0.86,0.0005403325447802352,0.27678281370514374,0.08783905624018701,0.12983398135092772,0.16568014543249385,0.3181814899392608
318,17.556,17.53,0.88,0.0003825644876303972,0.27668264752603255,0.08724480544348284,0.12949649681589206,0.1667911943806177,0.31721137711095926
319,17.658,17.59,0.87,0.00025247473594630903,0.27656646693090187,0.08666802220350023,0.1291665930935986,0.16791439313759737,0.316242768563341
320,17.678,17.64,0.85,0.00014963594844951298,0.27643486512382887,0.08610866302768212,0.12884466571096734,0.16904914429306084,0.31527623452260206
321,17.721,17.7,0.89,7.359702195763109e-05,0.27628843432888833,0.08556667458683745,0.12853110270055254,0.17019483242700018,0.3143123392780369
322,17.783,17.75,0.9,2.3883832291636535e-05,0.2761277653700802,0.0850419940405849,0.1282262843534861,0.17135082480436253,0.31335164104184193
323,17.843,17.81,0.9,0.0,0.27595344725914134,0.08453454937059318,0.12793058297610652,0.17251647209352441,0.31239469181642243
324,17.885,17.86,0.92,1.4276795599530558e-06,0.27576606679148113,0.08404425972084302,0.12764436265032741,0.1736911091075662,0.3114420372686519
325,17.947,17.92,1.0,2.762837071849925e-05,0.27556620815052535,0.08357103574412822,0.12736797899784663,0.17487405556723168,0.31049421661061866
326,18.029,17.97,0.98,7.804375064107728e-05,0.27535445252084834,0.08311477995403062,0.1271017789483332,0.1760646168844349,0.3095517624864509
327,18.049,18.03,0.98,0.00015209652553016388,0.2751313777106062,0.08267538708163193,0.12684610051175785,0.17726208496516938,0.3086152008648027
328,18.111,18.08,1.02,0.00024919130035935995,0.27489755778389074,0.08225274443623945,0.12660127255505746,0.1784657390306832,0.3076850509364718
329,18.172,18.14,1.0,0.0003687154653470572,0.27465356270366337,0.08184673226940238,0.12636761458333626,0.17967484645579387,0.30676182501644456
330,18.234,18.19,0.97,0.0005100400977624466,0.2743999579858882,0.08145722414147796,0.1261454365258026,0.18088866362321412,0.3058460284495126
331,18.297,18.25,1.01,0.0006725208776143733,0.27413730436541367,0.08108408728998029,0.1259350385266243,0.18210643679273678,0.3049381595185195
332,18.421,18.3,1.02,0.0008554990157361429,0.27386615747404747,0.08072718299893326,0.12573671074085796,0.18332740298408465,0.30403870935428384
333,18.442,18.36,1.02,0.001058302192762543,0.27358706753116085,0.08038636696845256,0.12555073313559037,0.18455079087218418,0.3031481618462956
334,18.462,18.41,1.04,0.0012802455075013903,0.27330057904708527,0.08006148968378177,0.12537737529645893,0.1857758216935715,0.3022669935533988
335,18.504,18.47,1.09,0.0015206324332330565,0.27300723053955384,0.07975239678299693,0.1252168962398052,0.18700171016260483,0.3013956736138147
336,18.546,18.52,1.09,0.0017787557805253272,0.2727075542634507,0.07945892942259207,0.12506954423080988,0.1882276653961335,0.3005346636540139
337,18.607,18.58,1.09,0.0020538986652136083,0.2724020759541341,0.07918092464017576,0.12493555660801603,0.1894528918452603,0.2996844176960798
338,18.668,18.63,1.14,0.0023453354802545163,0.27209131458456093,0.0789182157135505,0.12481515961465507,0.190676590232834,0.2988453820632885
339,18.79,18.69,1.15,0.0026523328702108668,0.27177578213634723,0.0786706325155035,0.12470856823714746,0.19189795849531593,0.2980179952836597
340,18.81,18.74,1.14,0.0029741507071662033,0.2714559833847643,0.07843800186369804,0.1246159860510868,0.19311619272766495,0.2972026879912455
341,18.852,18.8,1.17,0.003310043066890113,0.2711324156975562,0.07822014786509142,0.12453760507498492,0.19433048812989107,0.29639988282492147
342,18.913,18.85,1.19,0.003659259204078124,0.2708055688474152,0.078016892254318,0.12447360563207611,0.19554003995392666,0.2956099943244377
343,18.934,18.91,1.21,0.004021044525474444,0.27047592483795946,0.07782805472546837,0.12442415622054022,0.19674404444946356,0.294833428823491
344,18.997,18.96,1.23,0.0043946415596638954,0.27014395774311667,0.0776534532566785,0.12438941339259414,0.1979416998073991,0.29407058433961614
345,19.06,19.02,1.28,0.00477929092231692,0.26981013355988,0.07749290442692566,0.12436952164299918,0.19913220709953255,0.29332185046073317
346,19.121,19.07,1.29,0.005174232275703231,0.269474910074442,0.07734622372443502,0.1243646133076006,0.20031477121316604,0.2925876082282405
347,19.161,19.13,1.32,0.005578705281342732,0.26913873674172506,0.07721322584612654,0.12437480847253536,0.20148860177928551,0.2918682300165878
348,19.202,19.18,1.36,0.005991950544711897,0.268802054578329,0.07709372498757147,0.12440021489472425,0.20265291409303132,0.2911640794093081
349,19.265,19.24,1.38,0.006413210550954695,0.26846529606890346,0.07698753512297692,0.12444092793420716,0.20380693002520714,0.2904755110715288
350,19.327,19.29,1.37,0.0068417305905596965,0.26812888508593014,0.07689447027477575,0.12449703049880141,0.20494987892361707,0.28980287061902954
351,19.388,19.35,1.41,0.007276759673971931,0.267793236822895,0.076814344772461,0.12456859300148274,0.20608099850306458,0.28914649448397667
352,19.428,19.4,1.42,0.007717551434121107,0.26745875774084854,0.07674697350036738,0.1246556733308283,0.20719953572288322,0.2885067097775425
353,19.489,19.46,1.41,0.00816336501586115,0.26712584552839813,0.07669217213416309,0.12475831683483446,0.20830474765090232,0.2878838341497059
354,19.551,19.51,1.45,0.008613465951317468,0.26679488907525556,0.07664975736585555,0.12487655631843252,0.2093959023127697,0.28727817564661057
355,19.613,19.57,1.51,0.00906712702013426,0.2664662684595199,0.07661954711714584,0.12501041205503688,0.21047227952557565,0.28669003256590564
356,19.696,19.62,1.51,0.00952362909361956,0.2661403549488788,0.07660136074100213,0.1251598918124131,0.21153317171474037,0.2861196933105083
357,19.737,19.68,1.53,0.009982261961807286,0.2658175110158545,0.07659501921137606,0.12532499089301727,0.21257788471316016,0.285567436241195
358,19.758,19.73,1.58,0.010442325142496742,0.2654980903671366,0.07660034530104896,0.12550569218877392,0.2136057385416532,0.2850335295283719
359,19.86,19.79,1.61,0.010903128671389904,0.26518243798695906,0.07661716374764595,0.12570196625009805,0.2146160681698081,0.2845182310033136
360,19.88,19.84,1.59,0.011363993872510992,0.26487089019441934,0.0766453014078785,0.12591377136889106,0.21560822425639664,0.2840217880091504
361,19.92,19.9,1.64,0.011824254108150054,0.2645637747146437,0.0766845874000568,0.1261410536752672,0.2165815738685771,0.2835444372519088
362,20.043,19.95,1.66,0.012283255507626791,0.26426141076374565,0.07673485323488029,0.12638374724785856,0.2175355011791748,0.28308640465194673
363,20.063,20.01,1.66,0.012740357674223655,0.26396410914757285,0.07679593293449385,0.12664177423764406,0.2184694081413859,0.28264790519616056
364,20.084,20.06,1.65,0.013194934369677901,0.26367217237428897,0.0768676631398014,0.12691504500531442,0.2193827151403012,0.2822291427913722
365,20.147,20.12,1.69,0.013646374175648807,0.2633858947808609,0.07694988320605535,0.12720345827220197,0.22027486162069396,0.2818303101193174
366,20.23,20.17,1.65,0.014094081131595177,0.2631055626734859,0.07704243528680044,0.12750690128475667,0.22114530669055418,0.2814515884936474
367,20.251,20.23,1.64,0.014537475348507347,0.2628314544818895,0.07714516440633372,0.12782524999243716,0.2219935296998801,0.2810931477193331
368,20.332,20.28,1.68,0.014975993597936483,0.2625638409272804,0.07725791852093233,0.1281583692387473,0.22281903079424986,0.28075514595483025
369,20.393,20.34,1.72,0.01540908987576788,0.26230298520357015,0.07738054856918022,0.12850611296500608,0.2236213314426996,0.2804377295773349
370,20.435,20.39,1.72,0.015836235940210188,0.26204914317129274,0.07751290851178469,0.12886832442631868,0.2243999749394381,0.2801410330514674
371,20.497,20.45,1.74,0.016256921823519056,0.26180256356356235,0.07765485536131497,0.1292448364191355,0.22515452687894275,0.2798651788017699
372,20.598,20.5,1.8,0.016670656317038377,0.26156348820338965,0.07780624920232596,0.12963547151975394,0.22588457560402092,0.27961027708945896
373,20.619,20.56,1.8,0.01707696742922357,0.26133215223167955,0.07796695320235916,0.13004004233311564,0.22658973262648,0.2793764258939206
374,20.66,20.61,1.81,0.017475402816404795,0.26110878434517243,0.07813683361433568,0.1304583517512803,0.2272696330201165,0.27916371079945995
375,20.721,20.67,1.86,0.017865530186142158,0.2608936070434647,0.078315759770878,0.1308901932209835,0.22792393578580955,0.27897220488778224
376,20.763,20.72,1.86,0.018246937673102127,0.26068683688408684,0.0785036040711149,0.13133535101970314,0.2285523241885813,0.27880196863658346
377,20.826,20.78,1.84,0.018619234187430885,0.2604886847444897,0.0787002419605159,0.13179360053967132,0.22915450606656132,0.27865304982448663
378,20.886,20.83,1.84,0.01898204973562132,0.26029935608969146,0.07890555190425964,0.13226470857931238,0.22973021411186398,0.2785254834423988
379,20.947,20.89,1.85,0.0193350357138856,0.2601190512442437,0.07911941535458468,0.13274843364164848,0.2302792061234418,0.27841929161121337
380,21.008,20.94,1.81,0.019677865174057396,0.2599479656671017,0.07934171671252384,0.13324452623926655,0.23080126523202293,0.2783344835056667
381,21.049,21.0,1.83,0.020010233062044483,0.2597862902279774,0.07957234328438485,0.13375272920548684,0.23129620009725543,0.27827105528409074
382,21.091,21.05,1.86,0.020331856428833894,0.2596342114838279,0.07981118523330329,0.1342727780114202,0.23176384507719125,0.2782289900237587
383,21.131,21.11,1.79,0.02064247461403853,0.25949191195421645,0.08005813552615917,0.13480440108864003,0.23220406037024124,0.2782082576615112
384,21.193,21.16,1.79,0.02094184940198336,0.25935957039434987,0.08031308987611746,0.1353473201572164,0.23261673212973616,0.27820881493936733
385,21.255,21.22,1.81,0.021229765150367667,0.2592373620646259,0.08057594668102822,0.1359012505588436,0.23300177255123297,0.27823060535487804
386,21.357,21.27,1.83,0.021506028891599034,0.25912545899550743,0.0808466069579226,0.13646590159473454,0.23335911993269742,0.27827355911605556
387,21.399,21.33,1.83,0.02177047040695671,0.2590240302465029,0.08112497427385176,0.13704097686786917,0.23368873870768533,0.2783375931008334
388,21.419,21.38,1.85,0.022022942273794477,0.25893324215801455,0.08141095467332293,0.13762617462911647,0.2339906194516376,0.2784226108211368
389,21.461,21.44,1.87,0.022263319886041338,0.2588532585948461,0.08170445660258326,0.13822118812671397,0.2342647788614247,0.2785285023917537
390,21.523,21.49,1.84,0.022491501448302302,0.2587842411802278,0.08200539083099027,0.138825705958608,0.23451125970831457,0.27865514450427137
391,21.607,21.55,1.83,0.022707407943895138,0.25872634951933987,0.08231367036969296,0.1394394124272106,0.23473013076458046,0.2788024004063879
392,21.627,21.6,1.84,0.022910983077178582,0.2586797414114522,0.08262921038783828,0.14006198789618776,0.23492148670400687,0.2789701198869392
393,21.688,21.66,1.81,0.02310219319053775,0.2586445730499054,0.0829519281265289,0.14069310914889735,0.2350854479765764,0.2791581392669983
394,21.75,21.71,1.8,0.023281027156387944,0.25862099920920506,0.08328174281077284,0.1413324497480424,0.23522216065762588,0.27936628139741393
395,21.811,21.77,1.82,0.02344749624453799,0.2586091734184897,0.08361857555967184,0.14197968039603034,0.23533179627175022,0.27959435566313473
396,21.853,21.82,1.82,0.023601633965225112,0.25860924812057545,0.08396234929508468,0.14263446929545695,0.23541455159171784,0.2798421579946171
397,21.916,21.88,1.83,0.02374349588810009,0.2586213748157446,0.08431298864897588,0.14329648250908983,0.23547064841264784,0.280109470886571
398,21.979,21.93,1.87,0.023873159437408763,0.2586457041895163,0.08467041986962089,0.14396538431872052,0.23550033330169265,0.28039606342428114
399,22.08,21.99,1.9,0.02399072366359853,0.2586823862238365,0.0850345707268069,0.1446408375822886,0.23550387732348874,0.2807016913177592
400,22.1,22.04,1.89,0.02409630899159099,0.25873157029138055,0.08540537041614789,0.14532250408874348,0.235481575741669,0.2810260969440181
401,22.141,22.1,1.89,0.024190056946007288,0.2587934052328965,0.0857827494626101,0.14601004491019856,0.2354337476967841,0.2813690093977924
402,22.183,22.15,1.93,0.02427212985370278,0.25886803941767195,0.08616663962330633,0.14670312075102387,0.2353607358610431,0.28173014455104284
403,22.244,22.21,1.91,0.024342710524048967,0.2589556207872876,0.08655697378957203,0.14740139229356872,0.2352629060703465,0.282109205121579
404,22.306,22.26,1.89,0.02440200190747787,0.2590562968828248,0.08695368588829606,0.14810452054019146,0.23514064693414002,0.2825058807511173
405,22.388,22.32,1.9,0.024450226732868317,0.25917021485563263,0.08735671078245429,0.1488121671512373,0.23499436942366142,0.282919848093051
406,22.428,22.37,1.89,0.024487627124400217,0.25929752146166474,0.08776598417078672,0.14952399477858103,0.23482450643918812,0.2833507709101398
407,22.448,22.43,1.85,0.02451446419852053,0.25943836303931483,0.08818144248654881,0.15023966739436073,0.23463151235690935,0.2837983001822893
408,22.51,22.48,1.84,0.024531017641654308,0.25959288547066095,0.08860302279524095,0.15095885061458095,0.23441586255605407,0.28426207422458805
409,22.571,22.54,1.83,0.024537585269268018,0.25976123412605223,0.0890306626911917,0.15168121201732757,0.23417805292688965,0.2847417188158206
410,22.612,22.59,1.82,0.024534482566860076,0.25994355379201856,0.08946430019286115,0.15240642145538008,0.23391859936019002,0.28523684733773935
411,22.694,22.65,1.84,0.024522042213404642,0.26013998858259224,0.08990387363673931,0.15313415136302594,0.23363803721873422,0.28574706092544544
412,22.735,22.7,1.88,0.02450061358770769,0.2603506818343128,0.09034932156973537,0.15386407705688954,0.23333692079137372,0.28627194862926864
413,22.797,22.76,1.86,0.024470562258063894,0.2605757759854211,0.09080058263999059,0.1545958770305634,0.23301582273019322,0.2868110875885289
414,22.899,22.81,1.86,0.024432269455551714,0.26081541243996,0.09125759548609658,0.15532923324276848,0.2326753334713074,0.2873640432175129
415,22.92,22.87,1.92,0.024386131531291176,0.2610697314176506,0.09172029862475116,0.1560638313986891,0.23231606063986798,0.28793036940391087
416,22.961,22.92,1.93,0.02433255939801982,0.26133887179047643,0.09218863033692624,0.15679936122404994,0.23193862843990334,0.2885096087198629
417,23.001,22.98,1.9,0.024271977956401073,0.26162297090692627,0.09266252855265154,0.15753551673144117,0.2315436770296624,0.2891012926456717
418,23.061,23.03,1.92,0.02420482550654793,0.2619221644048536,0.09314193073453574,0.15827199647837445,0.2311318618831911,0.28970494180613876
419,23.166,23.09,1.91,0.024131553145313837,0.2622365860139441,0.09362677376017037,0.1590085038165575,0.23070385313892813,0.2903200662193867
420,23.186,23.14,1.89,0.024052624149958114,0.2625663673488631,0.09411699380360479,0.15974474713189718,0.23026033493615497,0.29094616555797165
421,23.228,23.2,1.87,0.02396851334881856,0.2629116376943053,0.09461252621613517,0.16048044007477405,0.229802004740164,0.291582729422075
422,23.288,23.25,1.88,0.023879706479623064,0.26327252378334026,0.09511330540669978,0.16121530178017943,0.229329572657025,0.29222923762455993
423,23.351,23.31,1.83,0.023786699536061124,0.2636491495705511,0.09561926472221041,0.16194905707734256,0.22884376073883295,0.2928851604876636
424,23.392,23.36,1.8,0.023689998103221192,0.2640416360014654,0.09613033632817242,0.16268143668849466,0.22834530228031735,0.2935499591510541
425,23.454,23.42,1.83,0.023590116682480993,0.26445010077968095,0.09664645108995266,0.16341217741641378,0.227834941107677,0.29422308589092433
426,23.558,23.47,1.83,0.023487578006423093,0.264874658132918,0.09716753845504696,0.16414102232039274,0.2273134308604832,0.2949039844497348
427,23.579,23.53,1.81,0.023382912344343285,0.26531541857905355,0.0976935263366687,0.16486772088028975,0.22678153426746528,0.2955920903761869
428,23.62,23.58,1.82,0.023276656798930317,0.2657724886930679,0.09822434099894306,0.16559202914836726,0.22624002241698007,0.29628683137500594
429,23.702,23.64,1.84,0.02316935459473148,0.2662459708758001,0.0987599069439694,0.16631370988867747,0.22568967402296436,0.29698762766612674
430,23.724,23.69,1.82,0.023061554359078425,0.2667359631254153,0.09930014680102524,0.16703253270379262,0.22513127468718655,0.2976938923528931
431,23.784,23.75,1.81,0.022953809396215268,0.26724255881252307,0.0998449812182102,0.16774827414870164,0.224565616158632,0.2984050317989224
432,23.825,23.8,1.82,0.022846676955435855,0.26776584645991847,0.10039432875684878,0.16846071783171113,0.2239934955908795,0.2991204460133181
433,23.927,23.86,1.79,0.02274071749410196,0.2683059095279204,0.10094810578897731,0.16916965450220423,0.22341571479834707,0.2998395290439322
434,23.949,23.91,1.76,0.02263649393648564,0.26886282620622065,0.10150622639823295,0.1698748821251346,0.22283307951229775,0.300561669378396
435,24.01,23.97,1.76,0.0225345709294599,0.2694366692130211,0.10206860228444432,0.17057620594217143,0.2222463986374973,0.3012862503526386
436,24.071,24.02,1.74,0.022435514096149106,0.2700275056020327,0.10263514267221208,0.1712734385194545,0.2216564835104022,0.3020126505666278
437,24.133,24.08,1.7,0.022339889288723724,0.27063539657769087,0.10320575422377141,0.1719663997819495,0.2210641471597349,0.30274024430711144
438,24.174,24.13,1.71,0.022248261841566464,0.2712603973187794,0.10378034095644233,0.17265491703440733,0.22047020357026795,0.30346840197719177
439,24.278,24.19,1.68,0.0221611958260384,0.2719025568105558,0.10435880416500211,0.17333882496891087,0.21987546695060214,0.3041964905326121
440,24.299,24.24,1.65,0.022079253308028117,0.2725619176854461,0.10494104234935273,0.17401796565895344,0.219280751005687,0.30492387392463594
441,24.341,24.3,1.63,0.022002993609374834,0.2732385160724198,0.1055269511478768,0.17469218853997823,0.21868686821479089,0.30564991354936605
442,24.382,24.35,1.69,0.02193297257415273,0.2739323814552221,0.10611642327686682,0.17536135037633452,0.21809462911559055,0.30637396870331285
443,24.443,24.41,1.67,0.02186974184073751,0.2746435365396696,0.10670934847639038,0.17602531521463144,0.21750484159500608,0.30709539704501576
444,24.505,24.46,1.66,0.0218138481205633,0.2753719971301937,0.1073056134629446,0.17668395432346704,0.2169183101873759,0.3078135550625402
445,24.546,24.52,1.68,0.02176583248450786,0.2761177720157471,0.10790510188926003,0.17733714611950063,0.21633583538055592,0.30852779854667983
446,24.649,24.57,1.68,0.02172622965790436,0.2768808628650689,0.10850769431162997,0.17798477607983512,0.21575821293053324,0.3092374830696661
447,24.671,24.63,1.66,0.02169556732525224,0.2776612641311685,0.10911326816513227,0.17862673664072395,0.2151862331851577,0.3099419644691712
448,24.712,24.68,1.66,0.02167436544576208,0.27845896296479705,0.10972169774704874,0.17926292708273694,0.21462068041760196,0.3106405993374
449,24.773,24.74,1.67,0.021663135580901025,0.27927393913668697,0.11033285420868374,0.17989325340270088,0.21406233217017037,0.31133274551508383
450,24.814,24.79,1.64,0.021662380235101187,0.2801061649684173,0.11094660555568382,0.18051762817291658,0.2135119586090821,0.31201776259020286
451,24.876,24.85,1.6,0.021672592210754977,0.28095560527186536,0.11156281665688775,0.1811359703883082,0.21297032189085283,0.312695012401242
452,24.937,24.9,1.62,0.02169425397856349,0.2818222172972475,0.11218134926168537,0.18174820530225605,0.21243817554089,0.313363859544728
453,25.021,24.96,1.6,0.021727837064241192,0.28270595068968846,0.11280206202582105,0.1823542642518942,0.21191626384489595,0.31402367188671
454,25.06,25.01,1.58,0.02177380145251509,0.2836067474541094,0.11342481054552667,0.1829540844736419,0.21140532125363637,0.3146738210777628
455,25.101,25.07,1.59,0.021832595009292417,0.28452454192805055,0.11404944739979886,0.18354760890974064,0.21090607180159723,0.3153136830710252
456,25.142,25.12,1.6,0.0219046529228272,0.28545926076188666,0.11467582220057153,0.18413478600658947,0.21041922854001643,0.3159426386427306
457,25.204,25.18,1.57,0.021990397164698652,0.28641082290580033,0.11530378165050245,0.18471556950569726,0.20994549298475704,0.3165600739146846
458,25.266,25.23,1.58,0.022090235971409078,0.287379139602892,0.11593316960809631,0.18528991822810603,0.20948555457946955,0.31716538087817564
459,25.328,25.29,1.6,0.022204563347397985,0.28836411438793114,0.11656382715992365,0.1858577958531871,0.2090400901744821,0.3177579579188572
460,25.368,25.34,1.58,0.022333758590246517,0.28936564309142365,0.11719559269977078,0.18641917069273908,0.20860976352185082,0.318337210342177
461,25.45,25.4,1.55,0.022478185838807948,0.2903836138488335,0.11782830201464511,0.18697401546131667,0.208195224786997,0.3189025508989349
462,25.512,25.45,1.58,0.022638193644949373,0.2914179071149201,0.11846178837763094,0.1875223070436856,0.20779711007735766,0.319453400310523
463,25.533,25.51,1.56,0.02281411456953638,0.2924683956832027,0.1190958826476283,0.18806402626024088,0.20741604098846936,0.31998918779334123
464,25.596,25.56,1.51,0.023006264803237437,0.2935349447105407,0.11973041337602275,0.18859915763113652,0.20705262416789566,0.3205093515818227
465,25.657,25.62,1.5,0.02321494381266791,0.2946174117467575,0.1203652069203359,0.1891276891397818,0.20670745089738418,0.32101333944944443
466,25.74,25.67,1.49,0.023440434012332208,0.29571564676915024,0.12100008756490573,0.18964961199626948,0.20638109669361418,0.32150060922704327
467,25.76,25.73,1.46,0.023683000462750004,0.29682949222166644,0.12163487764864608,0.19016492040122465,0.20607412092785218,0.3219706293177441
468,25.823,25.78,1.46,0.02394289059506257,0.2979587830585098,0.1222693976999318,0.1906736113105103,0.20578706646477954,0.32242287920783547
469,25.864,25.84,1.5,0.024220333962320227,0.29910334679197437,0.12290346657864945,0.1911756842012038,0.20552045932069293,0.3228568499729831
470,25.927,25.89,1.47,0.024515542017576906,0.3002630035443531,0.12353690162544231,0.19167114083925882,0.20527480834123027,0.3232720447792232
471,25.99,25.95,1.48,0.02482870791887687,0.3014375661037996,0.12416951881816055,0.19215998504927756,0.20505060489873528,0.3236679793781916
472,26.03,26.0,1.51,0.02516000636121126,0.30262683998403095,0.1248011329355078,0.1926422224868099,0.20484832260936064,0.32404418259600176
473,26.132,26.06,1.49,0.025509593435529127,0.3038306234877274,0.12543155772786455,0.1931178604135572,0.20466841707000613,0.3244001968150965
474,26.153,26.11,1.46,0.02587760651488201,0.30504870777344617,0.12606060609525813,0.1935869074758046,0.2045113256151904,0.32473557844828604
475,26.194,26.17,1.46,0.0262641641677517,0.30628087692584116,0.1266880902724214,0.19404937348639037,0.20437746709395668,0.32504989840409143
476,26.256,26.22,1.44,0.02666936609856647,0.3075269080289675,0.12731382202084515,0.19450526921056235,0.2042672416669073,0.3253427425424367
477,26.318,26.28,1.4,0.027093293115353603,0.3087865712424764,0.12793761282768348,0.19495460615615354,0.20418103062343643,0.32561371211972306
478,26.38,26.33,1.38,0.02753600712439634,0.31005962988058566,0.1285592741113178,0.19539739636861056,0.20411919621918806,0.3258624242223497
479,26.484,26.39,1.4,0.02799755115166169,0.31134584049385433,0.12917861743332776,0.19583365223150098,0.20408208153370908,0.32608851218781854
480,26.504,26.44,1.38,0.0284779493906519,0.31264495295393396,0.12979545471656664,0.19626338627315518,0.2040700103481997,0.32629162601262096
481,26.546,26.5,1.38,0.028977207276221086,0.31395671054158975,0.1304095984690082,0.19668661098006057,0.20408328704319514,0.3264714327461519
482,26.608,26.55,1.4,0.029495311583806836,0.3152808500383573,0.1310208620130183,0.19710333861752438,0.20412219651595825,0.32662761686990277
483,26.629,26.61,1.41,0.030032230553472504,0.3166171018222019,0.13162905971971123,0.1975135810579835,0.20418700411732085,0.3267598806611657
484,26.692,26.66,1.39,0.030587914038138323,0.3179651899674903,0.13223400724805595,0.1979173496172136,0.20427795560768458,0.3268679445404868
485,26.754,26.72,1.43,0.031162293675388242,0.3193248323495044,0.13283552178838612,0.19831465489863204,0.2043952771318754,0.32695154740212923
486,26.838,26.77,1.43,0.031755283082264225,0.3206957407536461,0.13343342230993951,0.19870550664589717,0.20453917521253379,0.3270104469268463
487,26.858,26.83,1.41,0.03236677807248044,0.3220776209894629,0.1340275298120354,0.19908991360404768,0.2047098367617225,0.32704441987630417
488,26.922,26.88,1.4,0.032996656895484616,0.3234701730096944,0.1346176675784946,0.19946788338945493,0.20490742911043167,0.32705326236854787
489,26.981,26.94,1.42,0.03364478049675983,0.32487309103469064,0.13520366143491924,0.19983942236887878,0.20513210005566204,0.32703679013396
490,27.023,26.99,1.38,0.03431099279870398,0.326286063682701,0.13578534000846482,0.2002045355478992,0.20538397792475122,0.3269948387512264
491,27.085,27.05,1.34,0.034995121001350056,0.3277087741066253,0.13636253498974887,0.20056322646895766,0.20566317165658476,0.3269272638628685
492,27.127,27.1,1.37,0.03569697590210354,0.3291409001378339,0.1369350813965295,0.20091549711917686,0.20596977089929305,0.3268339413699224
493,27.229,27.16,1.38,0.03641635223359211,0.3305821144375862,0.1375028178387571,0.20126134784805857,0.2063038461239866,0.32671476760534
494,27.25,27.21,1.37,0.0371530290186607,0.33203208465644113,0.13806558678454864,0.20160077729510997,0.20666544875402737,0.3265696594856958
495,27.291,27.27,1.43,0.03790676994151342,0.3334904736019492,0.1386232348265684,0.20193378232744275,0.20705461130928235,0.3263985546408163
496,27.373,27.32,1.44,0.038677323734007,0.3349569394148728,0.13917561294824068,0.20226035798741338,0.2074713475647769,0.3262014115209941
497,27.434,27.38,1.43,0.03946442457612926,0.3364311357542009,0.1397225767892036,0.2025804974503773,0.20791565272316317,0.325978209481493
498,27.475,27.43,1.43,0.04026779250973715,0.33791271199129036,0.14026398690941813,0.2028941919926118,0.20838750360043684,0.32572894884410575
499,27.577,27.49,1.46,0.04108713386467554,0.33940131341352225,0.14079970905137693,0.2032014309694202,0.2088868588243568,0.3254536509355876
500,27.597,27.54,1.44,0.041922141696442025,0.3408965814378971,0.14132961439989714,0.20350220180336165,0.20941365904503778,0.3251523581028657
501,27.638,27.6,1.43,0.04277249623459003,0.34239815383501154,0.14185357983903665,0.2037964899824532,0.20996782715718545,0.32482513370500604
502,27.721,27.65,1.47,0.04363786534106295,0.34390566496387825,0.14237148820572867,0.20408427906808135,0.21054926853343897,0.3244720620819669
503,27.742,27.71,1.47,0.044517904977628864,0.34541874601804445,0.14288322853977095,0.2043655507122465,0.21115787126827326,0.3240932485001717
504,27.783,27.76,1.48,0.045412259681548765,0.3469370252834142,0.1433886963298183,0.20464028468369247,0.211793506431909,0.323688819074896
505,27.865,27.82,1.52,0.046320563048589426,0.34846012840801305,0.14388779375500194,0.20490845890246204,0.21245602833367438,0.3232589206694097
506,27.97,27.87,1.56,0.04724243822252149,0.3499876786835859,0.14438042992176778,0.20517004948245648,0.2131452747942733,0.3228037207707576
507,28.01,27.93,1.56,0.0481774983903274,0.3515192973384699,0.14486652109550885,0.2054250307816306,0.21386106742643743,0.3223234073420489
508,28.03,27.98,1.59,0.049125347282446115,0.3530546038408269,0.14534599092657277,0.20567337545951886,0.21460321192347623,0.3218181886511571
509,28.071,28.04,1.62,0.05008557967747775,0.3545932162111396,0.14581877067024834,0.20591505454185668,0.21537149835529015,0.3212882930757715
510,28.132,28.09,1.61,0.05105778191085756,0.35613475134283334,0.14628479940036485,0.2061500374921239,0.216165701471467,0.3207339688847754
511,28.173,28.15,1.56,0.05204153238707751,0.3576788253299115,0.14674402421615373,0.2063782922898969,0.21698558101113224,0.3201554839959367
512,28.237,28.2,1.58,0.053036402095081085,0.35922505380057823,0.14719640044202517,0.20659978551593752,0.21783088201926484,0.3195531257099146
513,28.317,28.26,1.58,0.05404195512648248,0.36077305225588535,0.1476418918199114,0.20681448244394116,0.21870133516921125,0.3189272004206267
514,28.337,28.31,1.55,0.05505774919626469,0.362322436412459,0.14808047069383598,0.20702234713881223,0.21959665709112455,0.31827803330212523
515,28.399,28.37,1.56,0.05608333616559388,0.3638728225483315,0.1485121181863756,0.2072233425612783,0.22051655070602957,0.3176059679722728
516,28.461,28.42,1.57,0.057118262566355785,0.36542382785085686,0.14893682436669622,0.20741743067860755,0.22146070556518407,0.31691136613364007
517,28.502,28.48,1.58,0.05816207012697861,0.3669750707656604,0.14935458840987045,0.2076045725811765,0.22242879819438066,0.3161946071921356
518,28.565,28.53,1.61,0.059214296299058146,0.3685261713456095,0.14976541874720598,0.20778472860465372,0.22342049244280954,0.31545608785393997
519,28.689,28.59,1.64,0.060274474784264495,0.3700767515988928,0.1501693332073393,0.20795785845761777,0.224435439836095,0.3146962217013487
520,28.71,28.64,1.62,0.06134213606100789,0.37162643583541605,0.1505663591478822,0.20812392135446778,0.2254732799331254,0.3139154387481535
521,28.73,28.7,1.64,0.062416807910366696,0.3731748510108543,0.15095653357743766,0.2082828761535069,0.22653364068632295,0.31311418497520566
522,28.792,28.75,1.69,0.06349801594081944,0.37472162706780926,0.15133990326782065,0.20843468150009534,0.2276161388050307,0.3122929218468177
523,28.832,28.81,1.69,0.0645852841113655,0.3762663972735677,0.15171652485631942,0.20857929597478236,0.2287203801217288,0.3114521258086673
524,28.893,28.86,1.67,0.06567813525265709,0.37780879855393995,0.15208646493782688,0.20871667824633502,0.22984595996081977,0.3105922877678753
525,28.953,28.92,1.67,0.06677609158579674,0.3793484718225995,0.152449800146654,0.2088467872295983,0.23099246350976008,0.309713912555901
526,29.076,28.97,1.67,0.0678786752384844,0.38088506230526525,0.15280661722781455,0.2089695822481381,0.23215946619234548,0.3088175183748648
527,29.096,29.03,1.63,0.06898540875822114,0.3824182198579918,0.15315701309756205,0.20908502320162523,0.23334653404397956,0.3079036362278878
528,29.138,29.08,1.66,0.07009581562228134,0.3839475992788177,0.1535010948929593,0.20919307073792165,0.23455322408874643,0.3069728093340805
529,29.158,29.14,1.69,0.07120942074415271,0.3854728606120534,0.1538389800102657,0.20929368642984583,0.23577908471808812,0.3060255925288886
530,29.221,29.19,1.67,0.0723257509761226,0.38699366944455266,0.154170796131939,0.2093868329566086,0.23702365607085668,0.305062551650608
531,29.283,29.25,1.68,0.07344433560767455,0.38850969719338413,0.15449668124206134,0.20947247428993063,0.23828647041449136,0.3040842629139809
532,29.345,29.3,1.73,0.0745647068593591,0.3900206213843895,0.15481678363001805,0.20955057588485249,0.23956705252706634,0.3030913122718485
533,29.407,29.36,1.72,0.07568640037183014,0.39152612592115527,0.1551312618822861,0.2096211048752083,0.2408649200799635,0.3020842947658764
534,29.449,29.41,1.73,0.07680895568978208,0.39302590134390947,0.1554402848622218,0.20968403027366678,0.24217958402094145,0.3010638138673737
535,29.491,29.47,1.76,0.0779319167405709,0.3945196450778257,0.15574403167776552,0.20973932317617597,0.24351054895739904,0.3000304808092193
536,29.552,29.52,1.76,0.07905483230734575,0.39600706167018124,0.1560426916370265,0.20978695697057576,0.2448573135396581,0.2989849139098633
537,29.613,29.58,1.74,0.0801772564965573,0.3974878630157922,0.1563364641917957,0.20982690754902186,0.24621937084411574,0.2979277378903224
538,29.676,29.63,1.74,0.08129874919973919,0.39896176857015764,0.15662555886914048,0.20985915352369802,0.24759620875613914,0.29685958318505423
539,29.718,29.69,1.75,0.0824188765494743,0.40042850554977527,0.15691019519134722,0.2098836764451267,0.24898731035258623,0.29578108524758046
540,29.78,29.74,1.74,0.08353721136945062,0.40188780911914734,0.15719060258454823,0.2099004610222814,0.2503921542838344,0.2946928838517371
541,29.842,29.8,1.74,0.08465333361848254,0.40333942256405114,0.15746702027638626,0.20990949534368214,0.25181021515518387,0.2935956223894457
542,29.902,29.85,1.8,0.08576683082832827,0.4047830974507063,0.15773969718303976,0.20991077109869044,0.25324096390748113,0.29248994716589055
543,29.944,29.91,1.79,0.08687729853509889,0.4062185937705004,0.15800889178589328,0.20990428379825754,0.25468386819679173,0.2913765066929612
544,30.005,29.96,1.79,0.0879843407040355,0.4076456800699776,0.1582748719981112,0.20989003299437525,0.25613839277295286,0.290255950981779
545,30.047,30.02,1.83,0.08908757014743325,0.40906413356586435,0.15853791502138528,0.209868022497427,0.2576039998568482,0.28912893083507024
546,30.152,30.07,1.84,0.09018660893550927,0.41047374024499,0.15879830719319132,0.20983826059053828,0.25908014951627506,0.28799609714009183
547,30.172,30.13,1.83,0.0912810888000375,0.4118742949490432,0.15905634382500541,0.20980076023989447,0.26056630004029957,0.28685810016276486
548,30.212,30.18,1.85,0.09237065153059727,0.413265601444188,0.15931232903203746,0.2097555392998897,0.2620619083120178,0.28571558884365805
549,30.272,30.24,1.85,0.09345494936330483,0.41464747247565514,0.15956657555509754,0.20970262071191711,0.2635664301796609,0.28456921009647007
550,30.313,30.29,1.83,0.09453364536191891,0.4160197298074957,0.1598194045752079,0.2096420326956129,0.26507932082599944,0.2834196081096846
551,30.395,30.35,1.82,0.09560641379122711,0.4173822042477258,0.16007114552156068,0.2095738089313861,0.2666000351360099,0.2822674236521178
552,30.437,30.4,1.87,0.09667294048262148,0.4187347356591029,0.16032213587340874,0.20949798873308015,0.26812802806276137,0.2811132933831179
553,30.518,30.46,1.86,0.09773292319175643,0.4200771729557492,0.16057272095647968,0.2094146172095928,0.2696627549914615,0.2799578491681953
554,30.58,30.51,1.86,0.0987860719481565,0.4214093740857941,0.16082325373450415,0.20932374541424775,0.27120367210158786,0.27880171740084553
555,30.601,30.57,1.88,0.09983210939662218,0.4227312060001643,0.16107409459645428,0.2092254304806679,0.27275023672701515,0.27764551833126816
556,30.664,30.62,1.89,0.10087077113028566,0.42404254460759966,0.16132561114009938,0.20911973574387502,0.2743019077140554,0.276489865402632
557,30.725,30.68,1.88,0.10190180601518803,0.4253432747159284,0.161578177952502,0.20900673084533544,0.27585814577732953,0.27533536459551594
558,30.787,30.73,1.92,0.10292497650627001,0.4266332899596286,0.16183217638809153,0.20888649182070443,0.27741841385339383,0.27418261378119446
559,30.828,30.79,1.94,0.10394005895468257,0.42791249271374165,0.16208799434496832,0.20875910116907676,0.2789821774520466,0.2730322020844914
560,30.889,30.84,1.92,0.10494684390633068,0.4291807939942895,0.16234602604012402,0.20862464790261026,0.2805489050052496,0.2718847092569764
561,30.931,30.9,1.92,0.10594513639155022,0.43043811334551474,0.16260667178427918,0.20848322757545862,0.28211806821360885,0.2707407050613031
562,30.993,30.95,1.94,0.10693475620578986,0.43168437871445925,0.16287033775702278,0.20833494229105953,0.2836891423903762,0.26960074866748884
563,31.056,31.01,1.92,0.10791553818114366,0.43291952631353353,0.16313743578286072,0.2081799006870296,0.2852616068029347,0.2684653880618985
564,31.097,31.06,1.92,0.1088873324485569,0.4341435004717541,0.16340838310862216,0.2080182178972544,0.28683494501172363,0.26733515946963987
565,31.16,31.12,1.95,0.10985000469051158,0.43535625347525503,0.16368360218246736,0.2078500154911795,0.288408645206542,0.266210586790987
566,31.264,31.17,1.98,0.11080343638399003,0.4365577453975742,0.16396352043456003,0.20767542139064846,0.28998220054014845,0.26509218105236304
567,31.285,31.23,1.98,0.11174752503351448,0.43774794392016436,0.1642485700593502,0.20749456976482406,0.29155510945905444,0.2639804398723618
568,31.327,31.28,2.0,0.11268218439405774,0.4389268241436435,0.16453918779934854,0.20730760090383032,0.29312687603140375,0.2628758469432703
569,31.369,31.34,2.0,0.11360734468361763,0.44009436839045196,0.1648358147302324,0.2071146610718337,0.29469701027183676,0.26177887152853985
570,31.429,31.39,2.01,0.11452295278525002,0.44125056599976764,0.16513889604711346,0.20691590234037124,0.296265028463261,0.2606899679766473
571,31.491,31.45,1.98,0.1154289724383638,0.44239541311571307,0.16544888085179033,0.2067114824028383,0.2978304534754631,0.2596095752518242
572,31.531,31.5,2.02,0.11632538441909912,0.44352891247004284,0.16576622194080193,0.2065015643711771,0.29939281508050314,0.25853811648219543
573,31.615,31.56,2.0,0.11721218670962658,0.4446510731605932,0.16609137559409534,0.20628631655591997,0.30095165026482656,0.2574759985259489
574,31.635,31.61,1.98,0.11808939465620603,0.4457619104267975,0.16642480136412546,0.20606591223079068,0.3025065035380094,0.2564236115561962
575,31.718,31.67,2.03,0.11895704111581662,0.44686144542351885,0.16676696186518705,0.20584052938306507,0.30405692723803085,0.25538132866516555
576,31.759,31.72,2.06,0.11981517659112322,0.4479497049943273,0.16711832256271633,0.20561035045088544,0.3056024818329425,0.25434950548829466
577,31.821,31.78,2.05,0.12066386935348626,0.4490267214452025,0.16747935156218988,0.20537556204874638,0.3071427362187818,0.25332847984870793
578,31.863,31.83,2.08,0.12150320555366848,0.4500925323195433,0.1678505193971353,0.20513635468242666,0.3086772680135668,0.25231857142247927
579,31.925,31.89,2.1,0.12233328931986819,0.45114718017530947,0.1682322988156942,0.2048929224546979,0.3102056638472185,0.25132008142501416
580,31.985,31.94,2.08,0.12315424284271981,0.4521907123650833,0.16862516456514773,0.20464546276318155,0.31172751964727513,0.25033329231884577
581,32.047,32.0,2.07,0.12396620644692888,0.45322318081981583,0.16902959317381683,0.20439417599176293,0.3132424409202767,0.2493584675431372
582,32.11,32.05,2.11,0.12476933864923649,0.4542446418369994,0.16944606272975965,0.2041392651970053,0.3147500430287066,0.2483958512651977
583,32.151,32.11,2.08,0.12556381620243082,0.45525515587396104,0.16987505265571684,0.2038809357910139,0.316249951463369,0.24744566815435037
584,32.213,32.16,2.05,0.12634983412513665,0.4562547873468843,0.17031704347979199,0.2036193952221643,0.3177418021110584,0.2465081231785225
585,32.276,32.22,2.09,0.12712760571711998,0.45724360443602075,0.17077251660139,0.20335485265502903,0.3192252415173514,0.24558340142392746
586,32.359,32.27,2.09,0.12789736255984582,0.4582216788973272,0.1712419540519646,0.20308751865073735,0.3206999271443154,0.24467166793815381
587,32.379,32.33,2.09,0.12865935450201646,0.4591890858805003,0.17172583825014043,0.20281760484890488,0.32216552762289224,0.24377306759688927
588,32.421,32.38,2.12,0.12941384962977698,0.46014590375315395,0.1722246517507778,0.20254532365218844,0.32362172299967285,0.2428877249944127
589,32.482,32.44,2.15,0.13016113422120684,0.4610922139307493,0.17273887698757595,0.20227088791443087,0.32506820497775374,0.24201574435789985
590,32.523,32.49,2.15,0.13090151268464809,0.4620281007118454,0.17326899600885734,0.2019945106332683,0.3265046771513485,0.2411572094855303
591,32.586,32.55,2.16,0.1316353074803682,0.46295365111829473,0.1738154902062257,0.2017164046480048,0.3279308552338222,0.24031218370834875
592,32.627,32.6,2.18,0.13236285902503894,0.4638689547401136,0.17437884003581883,0.20143678234353257,0.32934646727882483,0.23948070987580636
593,32.732,32.66,2.13,0.13308452557851574,0.46477410358488686,0.17495952473189763,0.2011558553610642,0.3307512538942049,0.23866281036488177
594,32.753,32.71,2.13,0.13380068311241697,0.46566919193167305,0.17555802201252466,0.20087383431642597,0.3321449684483876,0.23785848711267119
595,32.794,32.77,2.17,0.13451172516001475,0.46655431618943405,0.1761748077771016,0.20059092852660595,0.33352737726888076,0.23706772167232976
596,32.856,32.82,2.16,0.13521806264696065,0.4674295747599809,0.17681035579556648,0.20030734574512013,0.3348982598325396,0.23629047529223507
597,32.916,32.88,2.17,0.13592012370237022,0.4682950679053067,0.17746513738910452,0.20002329190653495,0.3362574089471698,0.2355266890182171
598,32.957,32.93,2.2,0.13661835344978412,0.46915089761898854,0.1781396211022939,0.19973897088021525,0.3376046309240171,0.23477628381864518
599,33.103,32.99,2.24,0.13731321377753533,0.46999716750110876,0.17883427236667973,0.19945458423311793,0.33893974574066915,0.2340391607321042
600,33.124,33.04,2.24,0.1380051830880918,0.4708339826359099,0.17954955315583,0.1991703310012825,0.34026258719388713,0.2333152010373625
601,33.144,33.1,2.27,0.13869475602601172,0.4716614494712476,0.18028592163196996,0.19888640746958883,0.3415730030418919,0.23260426644534257
602,33.227,33.15,2.3,0.13938244318423218,0.4724796756988479,0.18104383178432296,0.1986030069593321,0.3428708551356419,0.23190619931283107
603,33.248,33.21,2.3,0.1400687707884962,0.4732887701344154,0.1818237330593256,0.19832031962316388,0.34415601953866354,0.2312208228776998
604,33.309,33.26,2.31,0.14075428035979173,0.47408884259678563,0.18262606998293082,0.19803853224698095,0.345428386635018,0.23054794151543534
605,33.371,33.32,2.38,0.14143952835470502,0.47488000378555706,0.18345128177523393,0.19775782805844186,0.3466878612250094,0.22988734101677774
606,33.454,33.37,2.34,0.14212508578358693,0.4756623651568878,0.18429980195763573,0.19747838654191915,0.3479343626082623,0.2292387888862165
607,33.474,33.43,2.33,0.14281153780639952,0.4764360387972926,0.18517205795270505,0.19720038325978984,0.3491678246538203,0.2286020346609811
608,33.536,33.48,2.38,0.14349948330607684,0.4772011372952368,0.18606847067684867,0.1969239896799726,0.3503881958569316,0.22797681024998467
609,33.577,33.54,2.39,0.144189534439213,0.4779577736101332,0.18698945412587098,0.19664937300955138,0.35159543938220683,0.22736283029200374
610,33.638,33.59,2.4,0.14488231616389063,0.4787060609380974,0.18793541495350777,0.19637669603424154,0.35278953309282424,0.22675979253226225
611,33.699,33.65,2.44,0.1455784657444752,0.4794461125736537,0.1889067520430328,0.19610611696342234,0.35397046956546036,0.22616737821656888
612,33.762,33.7,2.47,0.14627863223322732,0.4801780417665529,0.18990385607206017,0.19583778928049775,0.3551382560906291,0.22558525250218914
613,33.823,33.76,2.47,0.14698347592861946,0.4809019615729513,0.19092710907071853,0.1955718615984339,0.35629291465813706,0.22501306488469008
614,33.843,33.81,2.48,0.14769366781027915,0.4816179847003495,0.1919768839734555,0.19530847752042707,0.3574344819273978,0.22445044964005503
615,33.906,33.87,2.54,0.14840988895051763,0.4823262233458459,0.1930535441648235,0.19504777550576094,0.35856300918238265,0.2238970262814211
616,33.947,33.92,2.53,0.14913282990243948,0.4830267890273577,0.19415744301967405,0.1947898887409738,0.3596785622710225,0.22335240002982448
617,34.01,33.98,2.52,0.1498631900646618,0.4837197924074802,0.19528892343824142,0.19453494501644897,0.3607812215289136,0.22281616229833376
618,34.071,34.03,2.55,0.15060167702268656,0.48440534310960126,0.19644831737663263,0.19428306660847317,0.36187108168721727,0.22228789118889183
619,34.113,34.09,2.57,0.15134900586697117,0.4850835495257883,0.19763594537326487,0.1940343701667165,0.3629482517646805,0.22176715200109726
620,34.195,34.14,2.57,0.15210589848774023,0.4857545186158599,0.1988521160717913,0.19378896660702372,0.3640128549437281,0.22125349775208786
621,34.237,34.2,2.6,0.15287308284659568,0.48641835569700026,0.2000971257410216,0.19354696100939753,0.36506502843059147,0.22074646970665754
622,34.278,34.25,2.63,0.153651292225037,0.4870751642233255,0.20137125779235757,0.1933084525210624,0.36610492329945754,0.22024559791673995
623,34.359,34.31,2.64,0.15444126445009582,0.48772504555497415,0.20267478229537877,0.19307353426447305,0.36713270432064604,0.21975040176942778
624,34.42,34.36,2.65,0.1552437410974042,0.48836809871655984,0.20400795549242343,0.19284229325008995,0.36814854977286,0.21926039054276616
625,34.44,34.42,2.69,0.15605946667213833,0.4890044201451358,0.20537101931321305,0.19261481029372574,0.36915265123959395,0.21877506396864807
626,34.503,34.47,2.67,0.15688918776839728,0.48963410342812064,0.20676420089072411,0.1923911599382738,0.37014521338983325,0.21829391280221908
627,34.585,34.53,2.67,0.15773365220768676,0.49025723903189095,0.2081877120796082,0.1921714103796588,0.37112645374322156,0.21781641939726817
628,34.606,34.58,2.71,0.1585936081572754,0.49087391402193226,0.209641748978507,0.19195562339688985,0.37209660241990916,0.21734205828711867
629,34.668,34.64,2.67,0.1594698032292894,0.49148421177550966,0.2111264914576065,0.19174385428614543,0.37305590187532645,0.21687029677055564
630,34.73,34.69,2.66,0.16036298356152634,0.49208821168776484,0.21264210269274625,0.19153615179886127,0.3740046066201437,0.21640059550234206
631,34.771,34.75,2.69,0.16127389288111849,0.49268598887198856,0.21418872870735614,0.1913325580838306,0.3749429829256863,0.21593240908789438
632,34.834,34.8,2.72,0.16220327155234196,0.49327761385461144,0.21576649792346908,0.19113310863335095,0.37587130851507483,0.21546518668173245
633,34.936,34.86,2.72,0.1631518556100143,0.4938631522652981,0.2173755207230487,0.19093783223344804,0.3767898722403518,0.2149983725894071
634,34.957,34.91,2.73,0.16412037578001676,0.4944426645225232,0.21901588902088345,0.19074675091818577,0.37769897374585903,0.21453140687270816
635,34.998,34.97,2.75,0.16510955648853978,0.4950162055151594,0.2206876758503164,0.19055987992804993,0.3785989231181496,0.21406372595802925
636,35.061,35.02,2.73,0.16612011486169695,0.49558382428084763,0.22239093496309947,0.19037722767238055,0.3794900405227507,0.2135947632478153
637,35.102,35.08,2.73,0.16715275971718566,0.49614556368217777,0.22412570044465974,0.19019879569584627,0.3803726558281265,0.2131239497350712
638,35.164,35.13,2.75,0.1682081905496954,0.4967014600819072,0.22589198634603347,0.19002457864898806,0.3812471082172115,0.21265071462097224
639,35.226,35.19,2.81,0.16928709651177917,0.4972515430185343,0.2276897863336638,0.1898545642628906,0.38211374578690177,0.21217448593566937
640,35.307,35.24,2.78,0.1703901553919115,0.49779583488353313,0.2295190733581684,0.18968873332804967,0.382972925135898,0.21169469116240777
641,35.328,35.3,2.79,0.17151803259145146,0.4983343506014718,0.2313797993430654,0.18952705967750894,0.38382501094131505,0.21121075786499477
642,35.412,35.35,2.8,0.1726713801022178,0.49886709731410994,0.23327189489433564,0.18936951017433337,0.38467037552450867,0.2107221143184561
643,35.433,35.41,2.79,0.17385083548636698,0.49939407406941355,0.23519526903160135,0.18921604470347858,0.38550939840660625,0.21022819014245905
644,35.495,35.46,2.81,0.17505702086024136,0.4999152715163071,0.23714980894163618,0.18906661616813022,0.3863424658542616,0.20972841693688088
645,35.559,35.52,2.83,0.1762905418838418,0.5004306716059517,0.23913537975485724,0.1889211704906355,0.3871699704161607,0.20922222891881326
646,35.6,35.57,2.81,0.17755198675758002,0.5009402473003899,0.24115182434539334,0.18877964661821728,0.3879923104508188,0.20870906356028124
647,35.724,35.63,2.8,0.17884192522797412,0.5014439622895396,0.24319896315525416,0.18864197653373105,0.38880988964621865,0.20818836222596993
648,35.745,35.68,2.82,0.18016090760394796,0.5019417707176979,0.245276594043054,0.18850808527177867,0.38962311653185777,0.20765957081026473
649,35.765,35.74,2.79,0.1815094637853802,0.5024336169208473,0.24738449215768174,0.18837789094050553,0.39043240398378054,0.20712214037292592
650,35.827,35.79,2.76,0.18288810230552996,0.5029194351760979,0.24952240983725804,0.18825130474937674,0.3912381687231707,0.20657552777275007
651,35.889,35.85,2.77,0.18429730938894137,0.5033991494645775,0.25169007653367625,0.18812823104317541,0.3920408308090663,0.20601919629861268
652,35.951,35.9,2.75,0.18573754802639622,0.5038726732490036,0.2538871987629869,0.18800856734238947,0.3928408131257334,0.20545261629733325
653,36.033,35.96,2.73,0.18720925706845262,0.5043399092670212,0.25611346008186037,0.187892204390055,0.3936385408652028,0.2048752657978679
654,36.054,36.01,2.76,0.18871285033905916,0.5048007493411986,0.25836852109033764,0.1877790262050296,0.3944344410054275,0.20428663113141388
655,36.096,36.07,2.89,0.1902487157706777,0.5052550742064021,0.26065201946104083,0.187668910141611,0.39522894178447926,0.20368620754709285
656,36.158,36.12,2.88,0.19181721456227843,0.5057027533552066,0.26296356999496623,0.18756172695541687,0.3960224721711797,0.20307349982292422
657,36.219,36.18,2.89,0.19341868036150694,0.5061436449020462,0.26530276470390785,0.18745734087548463,0.3968154613325797,0.20244802287173075
658,36.262,36.23,2.93,0.19505341847227706,0.5065775954669403,0.2676691729195035,0.18735560968260692,0.39760833809876844,0.20180930234138808
659,36.322,36.29,2.92,0.19672170508901593,0.5070044400797318,0.2700623414288476,0.18725638479394388,0.3984015304255924,0.20115687520850073
660,36.405,36.34,2.91,0.19842378655876827,0.5074240021058123,0.2724817946365921,0.1871595113539361,0.3991954648559521,0.20049029036431845
661,36.426,36.4,2.94,0.20015987867234764,0.5078360931942554,0.27492703475342717,0.18706482833149427,0.3999905659804032,0.19980910919156394
662,36.487,36.45,2.93,0.20193016598571162,0.5082405132491635,0.27739754201080513,0.18697216862338129,0.400787255897827,0.1991129061307963
663,36.529,36.51,2.89,0.20373480117271822,0.508637050424884,0.2798927749017312,0.18688135916366494,0.4015859536769584,0.1984012692349242
664,36.591,36.56,2.91,0.20557390441037748,0.5090254811456589,0.28241217044739003,0.1867922210391309,0.4023870748195827,0.19767380071048837
665,36.654,36.62,2.92,0.20744756279764545,0.5094055701502193,0.2849551444893087,0.18670456961058893,0.4031910307262132,0.19693011744435587
666,36.716,36.67,2.9,0.20935582980873194,0.5097770705617919,0.28752109200669684,0.18661821464005462,0.40399822816505604,0.19616985151453434
667,36.778,36.73,2.89,0.21129872478182146,0.5101397239839348,0.2901093874585437,0.1865329604238229,0.40480906874505174,0.19539265068392256
668,36.819,36.78,2.93,0.21327623244405844,0.5104932606225314,0.29271938515001017,0.18644860593146728,0.40562394839377125,0.19459817887594338
669,36.88,36.84,2.91,0.21528830247363154,0.5108373994341637,0.2953504196226153,0.18636494495079634,0.4064432568409382,0.19378611663115744
670,36.942,36.89,2.93,0.2173348490997911,0.5111718483009728,0.2980018060676765,0.18628176623880863,0.4072673771083484,0.1929561615441195
671,37.004,36.95,2.95,0.21941575074162756,0.511496304232042,0.3006728407624065,0.18619885367872666,0.40809668500695884,0.19210802867988747
672,37.066,37.0,2.95,0.22153084968641382,0.5118104535913119,0.30336280152800227,0.18611598644325006,0.40893154864192943,0.19124145096969017
673,37.128,37.06,2.93,0.2236799518082692,0.5121139723520516,0.30607094820899444,0.18603293916422445,0.4097723279264142,0.19035617958530088
674,37.149,37.11,2.93,0.2258628263278466,0.5124065263779063,0.3087965231730587,0.18594948210898357,0.4106193741049184,0.18945198429167487
675,37.191,37.17,2.93,0.22807920561369452,0.5126877717304933,0.3115387518304344,0.18586538136368988,0.4114730292870539,0.18852865377740807
676,37.252,37.22,2.91,0.23032878502590545,0.5129573550033799,0.3142968431720453,0.18578039902407506,0.4123336259925268,0.18758599596259273
677,37.313,37.28,2.92,0.2326112228026181,0.5132149136821329,0.3170699903253805,0.1856942933940689,0.4132014867081786,0.1866238382836849
678,37.376,37.33,2.93,0.23492613998989184,0.5134600765299984,0.31985737112715545,0.1856068191928954,0.4140769234578845,0.18564202795504287
679,37.415,37.39,2.93,0.2372731204154264,0.513692463998677,0.322658148711752,0.18551772777128847,0.41496023738609134,0.18464043220684262
680,37.497,37.44,2.94,0.23965171070657235,0.5139116886635856,0.3254714721144203,0.1854267673374958,0.4158517183557619,0.1836189384991165
681,37.518,37.5,2.96,0.2420614203530719,0.5141173556829065,0.32829647688824903,0.18533368319364493,0.41675164456148606,0.18257745471169845
682,37.599,37.55,2.95,0.2445017218149793,0.5143090632795979,0.3311322857339837,0.18523821798280377,0.4176602821585172,0.1815159093098726
683,37.642,37.61,2.93,0.24697205067622294,0.5144864032453565,0.33397800914186204,0.18514011194676488,0.4185778849085016,0.1804342514855155
684,37.702,37.66,2.94,0.24947180584426729,0.5146489614653493,0.3368327460446947,0.18503910319435368,0.4195046938426748,0.17933245127350164
685,37.744,37.72,2.93,0.2520003497963099,0.5147963184624169,0.3396955844814257,0.18493492797994698,0.420440936943305,0.17821049964313232
686,37.807,37.77,2.87,0.25455700887238714,0.5149280499594279,0.34256560227040056,0.18482732099185178,0.42138682884414863,0.17706840856436312
687,37.87,37.83,2.87,0.25714107361567184,0.5150437274585108,0.3454418676915597,0.18471601565019122,0.4223425705506552,0.1759062110486503
688,37.931,37.88,2.88,0.2597517991601449,0.5151429188359384,0.3483234401767833,0.18460074441396,0.4233083491806122,0.1747239611642903
689,37.994,37.94,2.85,0.2623884056657183,0.5152251889514542,0.35120937100765826,0.1844812390969132,0.4242843377258582,0.17352173402618748
690,38.033,37.99,2.83,0.2650500788007894,0.515290100270844,0.35409870402000804,0.18435723119193326,0.4252706948356248,0.17229962576004507
691,38.095,38.05,2.85,0.2677359702721122,0.5153372135005893,0.3569904763145928,0.18422845220350392,0.4262675646220012,0.17105775344102628
692,38.156,38.1,2.84,0.2704451984017862,0.5153660882334543,0.3598837189734122,0.1840946339879119,0.4272750764879579,0.169796255006985
693,38.3,38.16,2.82,0.2731768487510748,0.515376283603857,0.3627774577810451,0.18395550910079267,0.42829334497831234,0.16851528914642191
694,38.32,38.21,2.82,0.27592997479067466,0.5153673589518635,0.3656707139504536,0.18381081115160783,0.4293224696539676,0.16721503516136912
695,38.342,38.27,2.81,0.27870359861697686,0.5153388744946125,0.3685625048527268,0.18366027516457087,0.43036253498971044,0.16589569280542707
696,38.382,38.32,2.77,0.28149671171378055,0.5152903920039401,0.3714518447503093,0.18350363794543967,0.43141361029580294,0.16455748209718693
697,38.424,38.38,2.75,0.28430827575883016,0.515221475488979,0.3743377455333146,0.1833406384535229,0.4324757496635428,0.16320064310929108
698,38.506,38.43,2.76,0.28713722347443016,0.5151316918825828,0.3772192174585282,0.18317101817823028,0.43354899193489316,0.16182543573342392
699,38.527,38.49,2.75,0.2899824595212621,0.5150206117305314,0.3800952698906887,0.18299452151950615,0.4346333606961946,0.1604321394215817
700,38.609,38.54,2.76,0.29284286143439336,0.5148878098826037,0.3829649120456094,0.1828108961715047,0.4357288642958812,0.15902105290403942
701,38.629,38.6,2.79,0.29571728060034447,0.5147328661847507,0.38582715373469745,0.1826198935088847,0.436835495886036,0.15759249388449093
702,38.691,38.65,2.77,0.298604543273994,0.5145553661717087,0.3886810061104175,0.18242126897511737,0.4379532334875558,0.15614679871287596
703,38.731,38.71,2.76,0.3015034516340327,0.5143549017594866,0.39152548241224105,0.18221478247222206,0.439082040078643,0.15468432203642302
704,38.793,38.76,2.79,0.30441278487563,0.514131071937199,0.3943595987125956,0.18200019875136292,0.4402218637062992,0.15320543642944143
705,38.854,38.82,2.79,0.3073313003389465,0.5138834834577156,0.39718237466232237,0.18177728780372854,0.4413726376204573,0.15171053200241078
706,38.895,38.87,2.76,0.31025773467211054,0.5136117515265269,0.39999283423516613,0.18154582525105656,0.4425342804303395,0.1502000159909518
707,38.977,38.93,2.77,0.3131908050272773,0.5133155004881483,0.40279000647083957,0.18130559273510546,0.4437066962825847,0.1486743123253117
708,39.04,38.98,2.78,0.316129210288372,0.5129943645093341,0.40557292621619656,0.18105637830536112,0.44488977506063476,0.14713386118103555
709,39.082,39.04,2.79,0.3190716323290941,0.5126479882583439,0.40834063486402056,0.1807979768042956,0.4460833926048142,0.1455791185115299
710,39.144,39.09,2.8,0.3220167372997148,0.5122760275795151,0.4110921810888888,0.18053019024955588,0.4472874109524783,0.14401055556325287
711,39.204,39.15,2.85,0.3249631769411525,0.5118781501624196,0.4138266215795249,0.18025282821251654,0.44850167859754486,0.1424286583742888
712,39.245,39.2,2.92,0.32790958992478897,0.5114540362048962,0.41654302176702607,0.17996570819265553,0.44972603076868745,0.14083392725707813
713,39.328,39.26,2.92,0.3308546032164885,0.511003379069211,0.4192404565483353,0.1796686559872028,0.4509602897254464,0.13922687626605404
714,39.349,39.31,2.95,0.33379683346330596,0.5105258859305067,0.42191801100432147,0.1793615060554765,0.4522042650715235,0.13760803265085067
715,39.39,39.37,2.95,0.33673488840139165,0.5100212784165747,0.42457478111180796,0.1790441018772828,0.4534577540845623,0.13597793629556507
716,39.453,39.42,2.93,0.3396673682836137,0.5094892932378664,0.42720987444888,0.17871629630472238,0.4547205420617519,0.1343371391443517
717,39.555,39.48,2.95,0.3425928673254178,0.5089296828065785,0.42982241089279133,0.17837795190672504,0.4559924026806194,0.13268620461349914
718,39.575,39.53,2.96,0.34550997516742266,0.5083422158436367,0.43241152330982574,0.17802894130560498,0.45727309837437013,0.13102570699013144
719,39.615,39.59,2.97,0.34841727835322217,0.5077266779724341,0.43497635823653874,0.17766914750486323,0.4585623807211063,0.12935623081775005
720,39.718,39.64,2.94,0.3513133618208233,0.5070828722982507,0.4375160765518991,0.17729846420737047,0.45985999084622375,0.127678370268917
721,39.76,39.7,2.99,0.3541968104061009,0.5064106199723403,0.4400298541399372,0.17691679612295427,0.4611656598372509,0.1259927285054492
722,39.802,39.75,2.99,0.35706621035661884,0.5057097607396837,0.44251688254258115,0.17652405926430334,0.46247910917036883,0.12429991702656863
723,39.863,39.81,2.99,0.3599201508541509,0.5049801534693856,0.4449763696024089,0.17612018123000692,0.46380005114781925,0.12260055500558005
724,39.905,39.86,3.02,0.3627572255442344,0.5042216766666794,0.4474075400950645,0.17570510147350374,0.4651281893453746,0.12089526861580893
725,39.965,39.92,3.04,0.36557603407109646,0.5034342289654997,0.4498096363510823,0.17527877155672061,0.46646321906902444,0.11918469034668168
726,40.027,39.97,3.03,0.3683751836162943,0.5026177296006135,0.45218191886685694,0.17484115538722328,0.4678048278200157,0.11746945831095747
727,40.069,40.03,3.06,0.37115329043940415,0.5017721188583462,0.45452366690448565,0.17439222943777796,0.4691526957673674,0.1157502155442366
728,40.131,40.08,3.08,0.37390898141907414,0.5008973585050107,0.4568341790802006,0.17393198294732332,0.47050649622697255,0.11402760929797356
729,40.172,40.14,3.07,0.3766408955927338,0.49999343219218595,0.4591127739411026,0.17346041810246632,0.4718658961463883,0.11230229032729228
730,40.232,40.19,3.09,0.3793476856932179,0.49906034583801967,0.46135879052988404,0.17297755019876115,0.4732305565944069,0.1105749121749321
731,40.273,40.25,3.14,0.38202801968052236,0.4980981279837255,0.4635715889371755,0.17248340778120425,0.4746001332544896,0.1088461304526474
732,40.334,40.3,3.15,0.3846805822668734,0.49710683012441853,0.46575055084108735,0.17197803276354887,0.4759742769211348,0.10711660212135765
733,40.396,40.36,3.17,0.3873040764332646,0.49608652701341266,0.4678950800334557,0.17146148052617546,0.47735263399824646,0.10538698477131192
734,40.459,40.41,3.2,0.3898972249355954,0.495037316939101,0.47000460293226876,0.17093381999231827,0.47873484699857993,0.10365793590348854
735,40.499,40.47,3.22,0.3924587717985407,0.4939593219735572,0.47207856907975165,0.17039513368244577,0.4801205550433619,0.101930112213406
736,40.561,40.52,3.22,0.3949874837952717,0.49285268819202593,0.4741164516256054,0.1698455177465618,0.4815093943612033,0.10020416887849318
737,40.623,40.58,3.25,0.3974821519111307,0.4917175858625531,0.4761177477948897,0.16928508197421407,0.4829009987854503,0.09848075885015914
738,40.665,40.63,3.26,0.3999415927893312,0.49055420960511553,0.4780819793400077,0.16871394978209794,0.4842950002491326,0.09676053215170534
739,40.727,40.69,3.26,0.4023646501567335,0.489362778519724,0.48000869297619875,0.1681322581792864,0.48569102927668883,0.09504413518322849
740,40.871,40.74,3.26,0.4047501962277127,0.4881435362830803,0.4818974607999,0.16754015771025177,0.4870887154716523,0.0933322100346625
741,40.891,40.8,3.31,0.40709713308409456,0.4868967512135136,0.48374788068929525,0.16693781237592473,0.4884876879994809,0.09162539380808256
742,40.911,40.85,3.32,0.40940439402906975,0.48562271630409537,0.48555957668636235,0.16632539953304817,0.4898875760647133,0.08992431795034093
743,40.933,40.91,3.33,0.41167094491292666,0.48432174922402493,0.4873321993597356,0.16570310977204086,0.4912880093816312,0.08822960759703205
744,40.995,40.96,3.39,0.41389578542840005,0.48299419228851914,0.48906542614771137,0.1650711467735185,0.4926886186376198,0.08654188092870684
745,41.057,41.02,3.41,0.4160779503734093,0.4816404123975157,0.49075896168073946,0.16442972714355447,0.49408903594844,0.08486174854017604
746,41.201,41.07,3.4,0.4182165108789466,0.4802608009435413,0.4924125380827494,0.16377908022772192,0.49548889530465867,0.08318981282367022
747,41.221,41.13,3.43,0.4203105755998644,0.47885577368914284,0.4940259152506415,0.16311944790398222,0.4968878330085263,0.08152666736656664
748,41.242,41.18,3.46,0.42235929186629134,0.47742577061435443,0.4955988811112428,0.16245108435456504,0.4982854881006249,0.07987289636435421
749,41.263,41.24,3.43,0.42436184679340494,0.4759712557347498,0.4971312518550106,0.1617742558170801,0.4996815027756487,0.07822907404949361
750,41.325,41.29,3.44,0.4263174683472801,0.47449271689070543,0.49862287214578405,0.16108924031516686,0.5010755227867002,0.07659576413682524
751,41.386,41.35,3.46,0.42822542636453814,0.4729906655085195,0.5000736153059192,0.1603963273690186,0.5024671978375049,0.07497351928616505
752,41.448,41.4,3.47,0.43008503352352717,0.47146563633396954,0.5014833834761778,0.1596958176861264,0.5038561819619539,0.07336288058270973
753,41.551,41.46,3.45,0.4318956462647732,0.4699181871387408,0.502852107749749,0.15898802283260124,0.5052421338903776,0.07176437703585692
754,41.571,41.51,3.51,0.43365666565845307,0.46834889839995963,0.5041797482797788,0.15827326488545174,0.506624717401951,0.07017852509703047
755,41.613,41.57,3.54,0.4353675382166691,0.4667583729528535,0.5054662943597703,0.15755187606619045,0.5080036016626284,0.06860582819709961
756,41.674,41.62,3.55,0.4370277566483526,0.46514723561636484,0.5067117644762433,0.15682419835610334,0.509378461548012,0.06704677630401444
757,41.715,41.68,3.58,0.43863686055467915,0.4635161327914211,0.5079162063330704,0.15609058309348095,0.5107489779505867,0.06550184550132937
758,41.777,41.73,3.6,0.4401944370629588,0.46186573203147613,0.5090796968469524,0.1553513905531065,0.5121148380707822,0.06397149758830055
759,41.838,41.79,3.58,0.44170012139704845,0.4601967215848941,0.5102023421135561,0.15460698950834326,0.5134757356913813,0.06245617970222052
760,41.923,41.84,3.6,0.44315359738243265,0.4585098099087966,0.5112842773438806,0.15385775677626262,0.5148313714348329,0.060956323963613036
761,41.942,41.9,3.63,0.4445545978842172,0.4568057251541676,0.5123256667704713,0.1531040767463766,0.5161814530030644,0.0594723471448746
762,41.983,41.95,3.6,0.44590290517639025,0.45508521462227114,0.513326703523139,0.15234634089363164,0.5175256953994082,0.05800465036290105
763,42.044,42.01,3.61,0.44719835124081736,0.4533490441926934,0.5142876094738935,0.15158494727635946,0.5188638211322706,0.056553618796159943
764,42.126,42.06,3.66,0.4484408179945468,0.4515979977235255,0.5152086350508142,0.15082030001987257,0.5201955604001759,0.055119621426546146
765,42.147,42.12,3.69,0.4496302374441112,0.4498328764243374,0.5160900590206038,0.15005280878635455,0.5215206512578252,0.053703010806213425
766,42.207,42.17,3.7,0.4507665917656195,0.4480544982026937,0.5169321882395707,0.14928288823165373,0.5228388397628231,0.05230412284945035
767,42.268,42.23,3.73,0.4518499133095681,0.44626369698507845,0.5177353573728074,0.14851095744955908,0.524149880102748,0.05092327664957532
768,42.328,42.28,3.77,0.4528802845294621,0.44446132201323074,0.5184999285813768,0.14773743940412548,0.5254535347022936,0.04956077432076093
769,42.39,42.34,3.78,0.4538578378335414,0.44264823711702406,0.5192262911773841,0.14696276035062733,0.5267495743102663,0.048216900864668545
770,42.43,42.39,3.79,0.4547827553591249,0.4408253199651441,0.5199148612468912,0.14618734924578386,0.5280377780662836,0.046891924061778854
771,42.511,42.45,3.82,0.45565526866931727,0.4389934612949195,0.5205660812406991,0.14541163714801006,0.5293179335470832,0.04558609438732057
772,42.532,42.5,3.8,0.45647565837206133,0.43715356412271533,0.5211804195330828,0.14463605660856513,0.5305898367924039,0.044299644951713436
773,42.593,42.56,3.8,0.45724425366177407,0.43530654293630155,0.5217583699486154,0.14386104105457814,0.5318532923104581,0.04303279146544807
774,42.654,42.61,3.84,0.4579614317840866,0.43345332287055083,0.5223004512572283,0.14308702416503052,0.5331081130630462,0.04178573222831952
775,42.737,42.67,3.86,0.45862761742447355,0.43159483886771344,0.5228072066376586,0.14231443924085238,0.5343541204303963,0.040558648142909486
776,42.758,42.72,3.87,0.4592432820217706,0.429732034823417,0.523279203109413,0.14154371857035344,0.5355911441558301,0.039351702752173444
777,42.799,42.78,3.92,0.4598089430077091,0.42786586271945676,0.5237170309333715,0.14077529279125497,0.5368190222703851,0.03816504230092638
778,42.86,42.83,3.94,0.46032516297371134,0.4259972817443792,0.5241213029811643,0.14000959025058932,0.538037600997569,0.03699879582093268
779,42.921,42.89,3.95,0.4607925487663161,0.4241272574028186,0.5244926540735436,0.13924703636367136,0.5392467346384838,0.03585307523921994
780,43.024,42.94,3.97,0.46121175051275765,0.4222567606145501,0.5248317402880914,0.13848805297325456,0.540446285437623,0.03472797550918723
781,43.044,43.0,4.02,0.46158346057839217,0.4203867668042824,0.5251392382367602,0.13773305770990496,0.5416361234297218,0.03362357476407292
782,43.085,43.05,4.0,0.4619084124578374,0.4185182549832898,0.5254158443138962,0.1369824633545568,0.5428161262681157,0.032539934492373
783,43.146,43.11,4.02,0.4621873796018524,0.4166522068240696,0.5256622739155408,0.1362366772041511,0.5439861790351269,0.03147709973483283
784,43.207,43.16,4.05,0.4624211741821275,0.4147896057292535,0.5258792606309333,0.13549610044120702,0.5451461740350743,0.030435099302654145
785,43.249,43.22,4.05,0.46261064579629546,0.41293143589596853,0.5260675554072247,0.134761127508133,0.5462960105705597,0.029413946016561946
786,43.31,43.27,4.04,0.46275668011559096,0.4110786813767454,0.5262279256884842,0.1340321454870547,0.5474355947027386,0.02841363696636439
787,43.433,43.33,4.05,0.46286019747769175,0.40923232513795366,0.5263611545301301,0.133309533485919,0.5485648389963377,0.027434153790608845
788,43.453,43.38,4.05,0.4629221514273543,0.4073933481166134,0.5264680396899747,0.13259366203162645,0.5496836622502225,0.026475462975894065
789,43.474,43.44,4.03,0.46294352720753423,0.40556272827630646,0.5265493926971271,0.1318848924709726,0.5507919892143575,0.025537516175360594
790,43.514,43.49,4.04,0.46292534020373366,0.4037414396628334,0.5266060379000335,0.1311835763802666,0.5518897502940244,0.024620250545858608
791,43.575,43.55,4.07,0.46286863434436504,0.40193045146025896,0.5266388114949547,0.13049005498461475,0.5529768812421778,0.02372358910328207
792,43.636,43.6,4.06,0.46277448045997116,0.4001307270480241,0.5266485605362078,0.12980465858793833,0.5540533228408293,0.0228474410955618
793,43.739,43.66,4.08,0.46264397460421,0.39834322305984693,0.5266361419295272,0.12912770601482723,0.5551190205723746,0.02199170239282548
794,43.76,43.71,4.11,0.46247823633959695,0.3965688884451611,0.5266024214099391,0.12845950406533307,0.5561739242817973,0.021156255894245288
795,43.801,43.77,4.11,0.46227840699109646,0.3948086635338125,0.526548272505565,0.12780034698377934,0.5572179878307314,0.02034097195109689
796,43.864,43.82,4.08,0.46204564787075036,0.3930634791047074,0.5264745754888162,0.12715051594261642,0.5582511687443985,0.019545708805552273
797,43.926,43.88,4.09,0.4617811384766042,0.39133425545910916,0.5263822163164759,0.12651027854229488,0.5592734278524902,0.018770313044721036
798,43.968,43.93,4.1,0.46148607466926106,0.38962190149932485,0.5262720855602311,0.12587988832808936,0.5602847289250935,0.0180146200694451
799,44.009,43.99,4.06,0.4611616668294433,0.3879273138135975,0.5261450773292813,0.12525958432478557,0.5612850383047908,0.017278454577354174
800,44.111,44.04,4.04,0.46080913799997847,0.3862513757681465,0.5260020881867069,0.1246495905901771,0.5622743245360657,0.01656163105970431
801,44.132,44.1,4.07,0.460429722015617,0.3845949566074537,0.5258440160613244,0.1240501157884036,0.5632525579931542,0.015863954311534516
802,44.173,44.15,4.04,0.4600246616240551,0.38295891056402326,0.5256717591567676,0.12346135278424834,0.56421971050746,0.015185219954676362
803,44.234,44.21,4.04,0.4595952066014781,0.38134407597889997,0.5254862148595456,0.12288347825956684,0.5651757549956349,0.014525214973125396
804,44.295,44.26,4.06,0.4591426118658867,0.37975127443420514,0.5252882786478116,0.12231665235303288,0.5661206650894054,0.013883718260214407
805,44.356,44.32,4.07,0.4586681355914338,0.37818130989887333,0.5250788430025614,0.12176101832438589,0.5670544147682084,0.013260501176932483
806,44.417,44.37,4.05,0.45817303732698883,0.3766349678887239,0.5248587963229661,0.12121670224435,0.5679769779957007,0.012655328120645275
807,44.479,44.43,4.06,0.45765857612214383,0.375113014642025,0.5246290218475199,0.12068381271139288,0.5688883283612024,0.012067957103400516
808,44.52,44.48,4.06,0.45712600866389386,0.3736161963117786,0.5243903965826666,0.12016244059648007,0.5697884387271502,0.01149814033894039
809,44.561,44.54,4.03,0.4565765874272393,0.37214523817603956,0.5241437902405647,0.11965265881692398,0.5706772808836392,0.010945624837493877
810,44.645,44.59,4.01,0.4560115588429773,0.37070084386764934,0.5238900641876624,0.11915452214031064,0.5715548252111301,0.0104101530073959
811,44.706,44.65,4.03,0.4554321614859655,0.3692836946247893,0.5236300704057919,0.1186680670193174,0.5724210403523864,0.00989146326256344
812,44.727,44.7,3.99,0.4548396242871606,0.3678944485636986,0.5233646504675394,0.11819331145804476,0.5732758928946773,0.009389290634832246
813,44.79,44.76,3.96,0.45423516477272863,0.36653373997478556,0.5230946345276731,0.11773025491031937,0.574119347063249,0.008903367390098324
814,44.851,44.81,3.99,0.45361998733348047,0.36520217864322835,0.5228208403323995,0.11727887821029946,0.5749513644270201,0.008433423647101868
815,44.912,44.87,3.99,0.45299528152781393,0.3639003491949984,0.5225440722481728,0.1168391435356011,0.5757719036174147,0.007979187997564021
816,44.953,44.92,3.98,0.4523622204212442,0.36262881046907747,0.5222651203117371,0.11641099440305992,0.5765809200611981,0.007540388126277753
817,45.037,44.98,4.0,0.45172195896550754,0.36138809491651935,0.5219847593030326,0.11599435569717043,0.5773783657281383,0.007116751429673131
818,45.077,45.03,4.0,0.4510756324201183,0.36017870802697605,0.5217037478425647,0.11558913373119338,0.5781641888942951,0.006708005631321019
819,45.14,45.09,3.98,0.4504243548191525,0.3590011277833903,0.5214228275148175,0.11519521634088596,0.5789383339217286,0.006313879392829617
820,45.223,45.14,3.98,0.44976921748589743,0.35785580414575113,0.5211427220192645,0.11481247301080741,0.5797007410554028,0.00593410291864585
821,45.244,45.2,4.0,0.44911128759786795,0.35674315856504046,0.5208641363504871,0.1144407550331883,0.5804513462380517,0.005568408553388122
822,45.285,45.25,3.97,0.44845160680456353,0.3556635835286651,0.5205877560088645,0.1140798956993806,0.5811900809437446,0.005216531370474671
823,45.347,45.31,3.94,0.4477911899002416,0.35461744213872726,0.5203142462432763,0.1137297105238743,0.5819168720308613,0.004878209750930717
824,45.408,45.36,3.94,0.4471310235538853,0.35360506772443706,0.5200442513272456,0.11338999750076338,0.5826316416151583,0.004553185951332762
825,45.469,45.42,3.92,0.44647206509843845,0.3526267634898445,0.519778393869942,0.11306053739238234,0.583334306963566,0.004241206659896417
826,45.51,45.47,3.9,0.4458152413812464,0.3516828021979081,0.5195172741634199,0.11274109404966888,0.5840247804093002,0.003942023539768597
827,45.593,45.53,3.93,0.44516144767748567,0.35077342589178834,0.5192614695674064,0.11243141476368944,0.5847029692888037,0.003655393758652159
828,45.614,45.58,3.94,0.4445115466682154,0.34989884565413976,0.5190115339328414,0.11213123064770983,0.5853687759009666,0.003381080503955323
829,45.677,45.64,3.92,0.44386636748456204,0.3490592414050749,0.5187679970652901,0.11184025704918324,0.5860220974890137,0.0031188534827166054
830,45.717,45.69,3.91,0.4432267048194506,0.3482547617394309,0.5185313642292391,0.11155819399105096,0.5866628262454089,0.0028684894056080147
831,45.777,45.75,3.92,0.4425933181081922,0.3474855238040128,0.518302115694218,0.11128472664176305,0.5872908493400862,0.0026297724543659948
832,45.838,45.8,3.9,0.4419669307791328,0.34675161321554326,0.5180807063236184,0.11101952581337413,0.5879060489722917,0.0024024947320553454
833,45.899,45.86,3.87,0.441348229575461,0.34605308402002466,0.5178675652070471,0.11076224848695272,0.588508302446264,0.002186456695642801
834,46.001,45.91,3.87,0.4407378639491631,0.3453899586940826,0.5176630953369975,0.11051253836439875,0.5890974822709347,0.001981467570429744
835,46.021,45.97,3.86,0.44013644552799075,0.34476222818864016,0.5174676733305624,0.11027002644562671,0.5896734562837581,0.0017873457459574576
836,46.062,46.02,3.83,0.43954454765615864,0.34416985201502504,0.5172816491968298,0.1100343316299427,0.5902360877987101,0.001603919153057092
837,46.123,46.08,3.86,0.438962705009306,0.34361275837339567,0.5171053461505024,0.10980506134033939,0.5907852357784132,0.0014310256217671528
838,46.184,46.13,3.87,0.43839141328406095,0.34309084432321096,0.5169390604721481,0.10958181216937143,0.591320755030268,0.0012685132198732045
839,46.225,46.19,3.85,0.43783112896233933,0.342603975995393,0.5167830614153368,0.10936417054528101,0.5918424964263933,0.0011162405718297987
840,46.329,46.24,3.85,0.437282269150316,0.34215198884585724,0.5166375911607013,0.10915171341713331,0.5923503071471202,0.0009740771578070102
841,46.35,46.3,3.88,0.43674521149183276,0.34173468795019274,0.5165028648167443,0.1089440089578493,0.5928440309477337,0.0008419035925680073
842,46.432,46.35,3.85,0.4362202941558554,0.3413518483394067,0.5163790704670235,0.10874061728410575,0.5933235084481054,0.0007196118838427879
843,46.452,46.41,3.84,0.4357078158974444,0.34100321537675593,0.5162663692631896,0.10854109119208682,0.5937885774448145,0.0006071056698225407
844,46.494,46.46,3.85,0.4352080361915699,0.3406885051757039,0.5161648955632303,0.10834497690802922,0.5942390732452969,0.0005043004353494928
845,46.577,46.52,3.84,0.4347211754389901,0.34040740505886197,0.5160747571141647,0.10815181485242342,0.5946748290235144,0.0004111237063342765
846,46.619,46.57,3.8,0.4342474152433256,0.34015957405737474,0.5159960352783703,0.10796114041663055,0.595095676196567,0.00032751522192293517
847,46.681,46.63,3.82,0.4337868987583848,0.33994464344971426,0.5159287853026736,0.1077724847505814,0.5955014448216105,0.0002534270839644798
848,46.722,46.68,3.82,0.43333973110467877,0.33976221733843925,0.5158730366293064,0.10758537556015488,0.5958919640123613,0.00018882388337463854
849,46.763,46.74,3.8,0.43290597985391616,0.33961187326326686,0.5158287932477854,0.10739933791278232,0.5962670623743958,0.0001336828030464887
850,46.824,46.79,3.81,0.4324856755800995,0.33949316284876313,0.5157960340867421,0.10721389504978233,0.5966265684583654,8.799369701785074e-05
851,46.885,46.85,3.85,0.4320788124756951,0.339405612485001,0.5157747134447165,0.10702856920387784,0.5969703112301757,5.175914566516257e-05
852,46.947,46.9,3.82,0.4316853490312095,0.33934872403957744,0.5157647614589338,0.10684288242026743,0.5972981205571133,2.4994486743950953e-05
853,46.987,46.96,3.8,0.4313052087763573,0.33932197559941646,0.5157660846110742,0.10665635737951347,0.5976098277088427,7.727822117743476e-06
854,47.07,47.01,3.8,0.43093828108082466,0.33932482224079913,0.5157785662690016,0.10646851822038537,0.5979052658721489,0.0
855,47.112,47.07,3.79,0.4305844220124378,0.33935669682603387,0.5158020672633679,0.10627889136066328,0.5981842706782357,1.864572506279353e-06
856,47.175,47.12,3.75,0.4302434552503689,0.3394170108250966,0.5158364264979555,0.1060870063137911,0.5984466807413299,1.3387728332334436e-05
857,47.216,47.18,3.78,0.42991517305084487,0.3395051551604766,0.5158814615925618,0.10589239649920991,0.5986923382072402,3.46482004460596e-05
858,47.277,47.23,3.81,0.4295993372626662,0.339620501073401,0.5159369695571486,0.10569460004421233,0.5989210893104322,6.5737148773614e-05
859,47.318,47.29,3.81,0.4292956803896935,0.33976240100958666,0.5160027274958893,0.1054931605752068,0.5991327849380822,0.00010675801793388736
