,Time_Host,Time_Arduino,easingdata,CH1_Oxy,CH1_Deoxy,CH2_Oxy,CH2_Deoxy,CH3_Oxy,CH3_Deoxy
0,1.163,0.04,0.0,0.06437103657843064,0.5982318713967636,0.18399320990329934,0.0,0.0,0.6921759845761187
1,1.184,0.1,0.0,0.06597212399424224,0.5980348059139292,0.18096671782995893,0.00899373162277366,0.0024999795051241906,0.6832588631196048
2,1.205,0.15,0.0,0.06757476624069926,0.5978321571939907,0.17795853219162036,0.01793899751959419,0.005001709244062274,0.6744059478298946
3,1.227,0.21,0.0,0.06917853090387015,0.5976238104435428,0.1749701113182709,0.02683211661360444,0.007504716322716995,0.665620563931026
4,1.246,0.26,0.0,0.07078298927942822,0.5974096531585388,0.17200290470269264,0.035669453387812015,0.010008539452116083,0.6569059750831581
5,1.266,1.05,0.0,0.07238771672243811,0.5971895753728704,0.16905835181045598,0.04444742129482864,0.012512729287673722,0.6482653807714616
6,1.306,1.11,0.0,0.07399229298811405,0.5969634699073618,0.16613788090539314,0.053162486093912956,0.015016848742864386,0.639701913800236
7,1.369,1.16,0.0,0.07559630256333703,0.5967312326183517,0.1632429078919712,0.061811169110575694,0.017520473277441863,0.6312186378938858
8,1.472,1.22,0.0,0.07719933498875245,0.5964927626450192,0.16037483517595333,0.07039005041413862,0.020023191160426508,0.6228185454060875
9,1.494,1.27,0.0,0.07880098517130338,0.596247962654585,0.15753505054470804,0.07889577190876278,0.022524603708171793,0.6145045551381901
10,1.513,1.33,-0.11,0.08040085368708744,0.5959967390845027,0.15472492606850324,0.08732504033357458,0.025024325497904863,0.6062795102676103
11,1.554,1.38,-0.04,0.08199854707445858,0.5957390023807267,0.15194581702410243,0.09567463016761332,0.027521984557208987,0.5981461763867433
12,1.616,1.44,0.01,0.08359367811732979,0.5954746672311428,0.1491990608419589,0.1039413864354285,0.030017222529963652,0.5901072396527568
13,1.678,1.49,-0.08,0.08518586611865595,0.5952036527932876,0.14648597607825176,0.11212222740938327,0.03250969481928375,0.5821653050485912
14,1.739,1.55,-0.13,0.08677473716408785,0.594925882915623,0.1438078614129166,0.12021414720517269,0.03499907070802711,0.5743228947554648
15,1.822,1.6,-0.05,0.08835992437581434,0.5946412863517877,0.14116599467475016,0.12821421826761784,0.03748503345748623,0.5665824466370933
16,1.843,1.66,-0.13,0.0899410681566705,0.5943497969673573,0.13856163189466159,0.13611959374418797,0.03996728038492126,0.5589463128356649
17,1.883,1.71,-0.23,0.09151781642466068,0.5940513539386532,0.1359960063881628,0.143927509743842,0.04244552292060307,0.5514167584794257
18,1.944,1.77,-0.15,0.09308982483809192,0.593745901943095,0.13347032786818397,0.15163528747877292,0.04491948664502517,0.5439959605015154
19,2.006,1.82,-0.12,0.0946567570115149,0.5934333913405367,0.13098578158925706,0.15924033528660786,0.04738891130691747,0.5366860065694764
20,2.09,1.88,-0.24,0.09621828472261716,0.5931137783450202,0.12854352752402218,0.16674015053070446,0.04985355082265554,0.5294888941247162
21,2.112,1.93,-0.19,0.09777408811012556,0.592787025186477,0.12614469957286015,0.17413232137656356,0.05231317325762717,0.5224065295311422
22,2.195,1.99,-0.13,0.09932385586270846,0.592453100262065,0.12379040480731196,0.18141452844299186,0.05476756079011339,0.5154407273321873
23,2.216,2.04,-0.2,0.10086728539886045,0.5921119782769941,0.12148172274786868,0.18858454632729374,0.057216509658246595,0.5085932096154914
24,2.279,2.1,-0.23,0.10240408303777859,0.5917636403748561,0.11921970467668244,0.19564024500435245,0.0596598300906151,0.5018656054845644
25,2.342,2.15,-0.13,0.10393396416129286,0.5914080742576162,0.11700537298573113,0.20257959109993234,0.0620973462210974,0.4952594506367403
26,2.383,2.21,-0.19,0.10545665336698903,0.5910452742954866,0.11483972056098002,0.20940064903878713,0.0645288959885266,0.48877618704662434
27,2.446,2.26,-0.29,0.10697188461273727,0.5906752416268791,0.11272371020308941,0.21610158206819285,0.06695433102179514,0.4824171627540276
28,2.509,2.32,-0.23,0.10847940135288049,0.5902979842485507,0.11065827408516732,0.2226806531574586,0.0693735165110095,0.4761836317551233
29,2.572,2.37,-0.23,0.10997895666634336,0.589913517095932,0.10864431324795805,0.2291362257738704,0.07178633106529089,0.47007675399525534
30,2.656,2.43,-0.36,0.11147031337688183,0.5895218621134922,0.1066826971327025,0.23546676453545826,0.07419266655777129,0.4640975954615827
31,2.677,2.48,-0.29,0.11295324416560515,0.5891230483149392,0.10477426315170202,0.2416708357410531,0.07659242795826571,0.4582471283735921
32,2.718,2.54,-0.2,0.11442753167579901,0.5887171118330299,0.10291981629642266,0.2477471077782909,0.07898553315402773,0.4525262314693987
33,2.781,2.59,-0.24,0.115892968609991,0.5883040959587748,0.10112012878283286,0.2536943514104009,0.08137191275892629,0.4469356903856539
34,2.844,2.65,-0.25,0.11734935781912464,0.5878840511698475,0.09937593973356029,0.25951143994275677,0.08375150991133662,0.44147619812872996
35,2.928,2.7,-0.12,0.11879651238366318,0.5874570351480435,0.0976879548963691,0.2651973492702807,0.08612428006104386,0.436148355634604
36,2.949,2.76,-0.18,0.12023425568645071,0.5870231127856359,0.09605684639840806,0.2707511578068141,0.08849019074550313,0.4309526724145455
37,2.992,2.81,-0.24,0.12166242147719905,0.586582356180433,0.09448325253561901,0.27617204629754144,0.09084922135585458,0.42588956728339766
38,3.053,2.87,-0.21,0.12308085392852611,0.5861348446192494,0.0929677775965926,0.28145929751558996,0.09320136289314361,0.42095936916699395
39,3.095,2.92,-0.17,0.12448940768353871,0.5856806645493918,0.09151099172007199,0.2866122958439985,0.0955466177152266,0.41616231798510805
40,3.159,2.98,-0.27,0.12588794789500568,0.58521990953768,0.09011343078525481,0.29163052674440204,0.0978849992748308,0.4114985656063881
41,3.221,3.03,-0.22,0.12727635025617892,0.5847526802165404,0.08877559633398445,0.296513576114152,0.10021653184919127,0.4069681768719835
42,3.284,3.09,-0.15,0.12865450102331158,0.5842790842168423,0.08749795552385949,0.30126112953418455,0.10254125026163714,0.40257113068491207
43,3.327,3.14,-0.22,0.13002229702991297,0.5837992360873153,0.08628094111126146,0.3058729714105708,0.10485919959545596,0.39830732116252426
44,3.368,3.2,-0.27,0.13137964569275487,0.5833132572005826,0.08512495146327183,0.31034898401322497,0.10717043490033239,0.39417655884963254
45,3.43,3.25,-0.16,0.13272646500959315,0.58282127564603,0.08403035059739507,0.31468914641567985,0.10947502089163705,0.3901785719899468
46,3.494,3.31,-0.18,0.13406268354850942,0.5823234261098587,0.08299746824795673,0.3188935333400504,0.11177303164281868,0.38631300785343553
47,3.555,3.36,-0.26,0.13538824042870987,0.5818198497427117,0.08202659995800474,0.3229623139112843,0.11406455027111191,0.38257943411715883
48,3.596,3.42,-0.15,0.1367030852925591,0.5813106940152565,0.08111800719550646,0.3268957503246579,0.11634966861673555,0.378977340297034
49,3.658,3.47,-0.08,0.1380071782686201,0.5807961125620037,0.0802719174926577,0.3306941964302773,0.1186284869157339,0.37550613922792936
50,3.72,3.53,-0.17,0.1393004899255102,0.5802762650135644,0.07948852460721906,0.3343580962381602,0.12090111346660178,0.3721651685895245
51,3.782,3.58,-0.1,0.14058300121642928,0.579751316817555,0.07876798870490782,0.3378879823474538,0.12316766429083756,0.3689536924755245
52,3.843,3.64,0.01,0.1418547034142528,0.5792214390484707,0.07811043656196914,0.3412844743035149,0.1254282627875975,0.36587090300399233
53,3.864,3.69,-0.04,0.14311559803712334,0.5786868082070242,0.07751596178712654,0.3445482768868158,0.12768303938266903,0.3629159219667053
54,3.947,3.75,-0.06,0.14436569676451247,0.5781476060096055,0.07698462506212919,0.3476801783378916,0.1299321311720289,0.36008780251555517
55,4.05,3.8,0.07,0.14560502134375933,0.5776040191686393,0.07651645440006549,0.35068104852277227,0.13217568156031445,0.3573855308840319
56,4.07,3.86,0.06,0.14683360348712876,0.5770562391646554,0.07611144542057485,0.3535518370434002,0.1344138398946015,0.35480802814178053
57,4.111,3.91,-0.05,0.14805148475946583,0.5765044620108267,0.07576956164109486,0.35629357129736394,0.13664676109393428,0.3523541519801273
58,4.172,3.97,0.01,0.14925871645655298,0.5759488880106148,0.07549073478332036,0.3589073544909898,0.13887460527509427,0.35002269852636686
59,4.233,4.02,0.04,0.15045535947433328,0.5753897215090134,0.07527486509413721,0.36139436360948396,0.14109753737512465,0.3478124041845037
60,4.274,4.08,-0.08,0.15164148416923603,0.5748271706377166,0.07512182168041397,0.3637558473474675,0.1433157267711174,0.34572194750013163
61,4.336,4.13,-0.03,0.15281717020989127,0.5742614470544608,0.07503144285712937,0.36599312400301626,0.14552934689772182,0.3437499510472175
62,4.399,4.19,0.08,0.15398250642051897,0.5736927656768006,0.0750035365083676,0.36810757933825083,0.1477385748627713,0.34189498333466295
63,4.42,4.24,0.04,0.15513759061622687,0.5731213444107033,0.0750378804607398,0.37010066440953737,0.14994359106136368,0.3401555607306154
64,4.483,4.3,0.01,0.15628252943034088,0.572547403874566,0.07513422286876396,0.37197389337046155,0.15214457878868443,0.33853014940258325
65,4.525,4.35,0.17,0.1574174381337674,0.5719711671195248,0.07529228261165567,0.37372884125088607,0.15434172385185774,0.33701716727142494
66,4.585,4.41,0.2,0.15854244044631594,0.5713928593470792,0.07551174970091891,0.37536714171544383,0.15653521418114405,0.33561498597722206
67,4.647,4.46,0.11,0.1596576683399117,0.5708127076250638,0.07579228569811156,0.37689048480469267,0.15872523944085515,0.33432193285495443
68,4.709,4.52,0.2,0.16076326183367873,0.5702309406029058,0.07613352414218817,0.378300614661963,0.16091199064043055,0.33313629291779023
69,4.77,4.57,0.25,0.1618593687809639,0.5696477882269652,0.07653507098592126,0.37959932724872025,0.16309565974620477,0.3320563108457238
70,4.81,4.63,0.15,0.16294614464848642,0.5690634814566259,0.07699650504105823,0.38078846805108657,0.16527643929446692,0.3310801929773163
71,4.873,4.68,0.15,0.164023752287893,0.5684782519817363,0.07751737843201822,0.3818699297801204,0.16745452200645522,0.3302061093024335
72,4.934,4.74,0.22,0.16509236170006383,0.5678923319420097,0.07809721705804949,0.3828456500685205,0.16963010040595125,0.3294321954540478
73,4.995,4.79,0.14,0.1661521497925421,0.5673059536490443,0.07873552106386925,0.383717609166458,0.17180336644013008,0.3287565546973264
74,5.036,4.85,0.09,0.1672033001304304,0.5667193493116999,0.07943176531884723,0.38448782763922085,0.1739745111042781,0.3281772599143501
75,5.139,4.9,0.21,0.1682460026810212,0.5661327507656452,0.08018539990474154,0.3851583640693151,0.17614372407092768,0.3276923555828572
76,5.159,4.96,0.24,0.16928045355233887,0.565546389207905,0.08099585061190268,0.3857313127655379,0.17831119332389286,0.3272998597473806
77,5.199,5.01,0.18,0.1703068547256937,0.5649604949371709,0.08186251944377215,0.3862088014813072,0.1804771047976306,0.3269977659810939
78,5.282,5.07,0.26,0.17132541378229044,0.5643752971005572,0.08278478512942654,0.3865929891443133,0.18264164202232644,0.32678404533661787
79,5.302,5.12,0.3,0.1723363436239281,0.5637910234474055,0.08376200364389046,0.38688606359938466,0.1848049857751233,0.3266566482839775
80,5.365,5.18,0.22,0.17333986218786757,0.5632079000906789,0.08479350873598107,0.38709023936630915,0.1869673137379507,0.3266135066338981
81,5.407,5.23,0.23,0.1743361921560067,0.5626261512764844,0.08587861246350974,0.3872077554142601,0.18912880016244407,0.3266525354447081
82,5.488,5.29,0.32,0.17532556065856866,0.562045999162281,0.08701660573573847,0.38724087295446213,0.19128961554246696,0.32677163491123207
83,5.529,5.34,0.24,0.17630819897258165,0.561467663604353,0.0882067588630728,0.3871918732526816,0.19344992629474397,0.3269686922341818
84,5.57,5.4,0.2,0.17728434221548153,0.5608913619551386,0.08944832211403021,0.38706305546305275,0.19560989444808685,0.32724158346867765
85,5.633,5.45,0.3,0.17825422903419189,0.5603173088710154,0.09074052627952019,0.3868567344846719,0.1977696773416618,0.3275881753505949
86,5.695,5.51,0.28,0.1792181012900358,0.5597457161311188,0.09208258324442713,0.3865752388422765,0.19992942733270735,0.32800632709944394
87,5.758,5.56,0.19,0.18017620373981402,0.5591767924677206,0.09347368656640635,0.3862209085921907,0.2020892915140638,0.32849389219649566
88,5.8,5.62,0.24,0.18112878371335206,0.5586107434086348,0.09491301206169413,0.3857960932546542,0.20424941144182868,0.3290487201368604
89,5.862,5.67,0.29,0.18207609078779052,0.5580477711320461,0.09639971839763446,0.38530314977367885,0.20640992287340984,0.3296686581542298
90,5.922,5.73,0.21,0.18301837645886446,0.5574880743341065,0.0979329476915617,0.384744440505641,0.20857095551619087,0.3303515529170378
91,5.985,5.78,0.23,0.1839558938093786,0.556931848109627,0.09951182611562079,0.38412233123793915,0.21073263278695087,0.3310952521949014
92,6.047,5.84,0.34,0.18488889717505883,0.5563792838461906,0.10113546450706583,0.3834391892391521,0.2128950715821199,0.3318976064943141
93,6.087,5.89,0.3,0.18581764180797675,0.5558305691319858,0.10280295898359784,0.3826973813420734,0.21505838205890143,0.33275647066267827
94,6.148,5.95,0.28,0.18674238353779063,0.5552858876775925,0.10451339156335347,0.3818992720608043,0.2172226674272592,0.3336697054598636
95,6.25,6.0,0.38,0.18766337843109174,0.5547454192518628,0.10626583078916847,0.3810472217429572,0.21938802375275324,0.33463517909652934
96,6.27,6.06,0.39,0.1885808824491703,0.5542093396319407,0.10805933235668758,0.38014358475810495,0.22155453977021833,0.33565076873843247
97,6.291,6.11,0.31,0.18949515110450055,0.5536778205674107,0.10989293974579047,0.3791907077238733,0.223722296708285,0.33671436197594523
98,6.353,6.17,0.38,0.1904064391161829,0.5531510297585955,0.11176568485469938,0.37819092777137975,0.22589136812475094,0.3378238582580574
99,6.413,6.22,0.42,0.191315000064515,0.552629130849104,0.11367658863609591,0.3771465708519224,0.22806181975281353,0.3389771702902333
100,6.475,6.28,0.35,0.19222108604482602,0.552112283432796,0.11562466173462804,0.3760599500867886,0.23023370935816131,0.34017222539563413
101,6.616,6.33,0.33,0.19312494732072005,0.5516006430753135,0.11760890512529162,0.374933364161833,0.2324070866068939,0.34140696683936517
102,6.638,6.39,0.41,0.1940268319769457,0.5510943613501849,0.11962831075229047,0.3737690957681116,0.2345819929442077,0.34267935511549197
103,6.658,6.44,0.37,0.19492698557221186,0.5505935858892594,0.12168186216807918,0.3725694100894359,0.2367584614837418,0.34398736919659023
104,6.679,6.5,0.32,0.1958256507923299,0.5500984604469863,0.123768535172308,0.37133655333730947,0.23893651690741627,0.34532900774557
105,6.741,6.55,0.44,0.19672306710405252,0.5496091249778583,0.12588729845031071,0.3700727513333998,0.2411161753755238,0.34670229028945376
106,6.802,6.61,0.49,0.1976194704099311,0.5491257157262024,0.12803711421067127,0.36878020813939627,0.243297444446778,0.3481052583547077
107,6.842,6.66,0.41,0.19851509270445356,0.5486483653273968,0.13021693882132,0.3674611047338515,0.24548032300797182,0.3495359765637157
108,6.904,6.72,0.51,0.19941016173167142,0.5481772029195755,0.13242572344354456,0.3661175977354743,0.24766480121288814,0.3509925336920556
109,6.965,6.77,0.6,0.2003049006445101,0.5477123542649149,0.13466241466328982,0.36475181817235297,0.24985086043012839,0.3524730436863498
110,7.046,6.83,0.55,0.20119952766599333,0.5472539418796558,0.13692595511917927,0.3633658702966321,0.25203847319956535,0.3539756466426083
111,7.066,6.88,0.54,0.20209425575267764,0.5468020851720775,0.13921528412678033,0.36196183044422925,0.2542276031971693,0.35549850974513525
112,7.128,6.94,0.65,0.20298929226067147,0.546356900587701,0.1415293382987392,0.36054174593921173,0.25641820520800773,0.357039828166163
113,7.211,6.99,0.61,0.20388483861469955,0.545918501761003,0.14386705216052964,0.3591076340423736,0.25861022510726445,0.3585978259263811
114,7.231,7.05,0.55,0.2047810899807395,0.5454869996728764,0.146227358761632,0.3576614809433754,0.26080359984914697,0.3601707567164996
115,7.273,7.1,0.62,0.20567823494279533,0.5450625028129783,0.1486091902819355,0.35620524079566,0.2629982574635608,0.36175690467991106
116,7.333,7.16,0.63,0.20657645518438222,0.5446451173459876,0.15101147863308773,0.3547408347932315,0.26519411706042545,0.36335458515644575
117,7.395,7.21,0.52,0.20747592517527227,0.5442349472806802,0.15343315605443938,0.353270150288274,0.26739108884148166,0.36496214538719374
118,7.456,7.27,0.61,0.20837681186397422,0.5438320946407051,0.1558731557031371,0.3517950399485988,0.2695890741193964,0.3665779651804294
119,7.518,7.32,0.71,0.20927927437633256,0.5434366596359725,0.15833041223782082,0.35031732095403356,0.271787965343915,0.3682004575387841
120,7.558,7.38,0.68,0.2101834637205641,0.5430487408336182,0.16080386239532626,0.3488387742310336,0.2739876461347589,0.3698280692479518
121,7.621,7.43,0.69,0.21108952249902774,0.5426684353275614,0.1632924455597658,0.3473611437249502,0.2761879913209333,0.37145928142733464
122,7.723,7.49,0.83,0.21199758462705884,0.542295838905718,0.16579510432337322,0.3458861357095401,0.2783888669861261,0.37309261004307703
123,7.743,7.54,0.81,0.2129077750592875,0.5419310462139243,0.1683107850385643,0.34441541813331134,0.2805901305199375,0.3747266063838795
124,7.784,7.6,0.74,0.21382020952395236,0.5415741509156078,0.1708384383607462,0.3429506200021701,0.2827916306747449,0.37635985749988937
125,7.846,7.65,0.85,0.21473499426577228,0.541225245846222,0.17337701978146328,0.34149333079765376,0.2849932076280749,0.3779909866048598
126,7.908,7.71,0.89,0.21565222579796917,0.5408844231614653,0.1759254901515268,0.34004509992984594,0.2871946930504179,0.37961865344170487
127,7.971,7.76,0.82,0.21657199066404326,0.5405517744783181,0.17848281619383918,0.338607436223956,0.28939591017845545,0.38124155461161324
128,8.052,7.82,0.88,0.2174943652098781,0.5402273910080224,0.18104797100564782,0.33718180743967835,0.29159667389369687,0.382858423867013
129,8.072,7.87,0.96,0.2184194153666798,0.539911363680329,0.183619934549957,0.33576963982279223,0.2937967908065564,0.3844680323688019
130,8.134,7.93,0.88,0.21934719644517162,0.5396037832585984,0.18619769413582873,0.33437231768886283,0.29599605934593815,0.38606918890834235
131,8.175,7.98,0.83,0.22027775294137025,0.5393047404455981,0.18878024488729359,0.33299118303924136,0.2981942698544259,0.3876607400947474
132,8.238,8.04,0.95,0.22121111835418814,0.5390143259800504,0.191366590200573,0.3316275352098254,0.30039120468919683,0.3892415705079375
133,8.299,8.09,0.89,0.2221473150150453,0.5387326307240912,0.19395574218930806,0.3302826305530901,0.3025866383287768,0.39081060281783797
134,8.34,8.15,0.83,0.22308635392961926,0.53845974574182,0.1965467221175054,0.3289576821537359,0.3047803374857275,0.3923667978699626
135,8.443,8.2,0.93,0.22402823463182223,0.5381957623690659,0.19913856081991882,0.3276538595780347,0.30697206122531107,0.3939091547375334
136,8.464,8.26,0.99,0.22497294505010623,0.5379407722743885,0.201730299109644,0.3263722886566581,0.3091615610901413,0.3954367107402457
137,8.485,8.31,0.9,0.2259204613862555,0.5376948675112466,0.2043209881728161,0.32511405130053833,0.31134858123079284,0.3969485414298763
138,8.547,8.37,0.98,0.2268707480068828,0.5374581405612779,0.2069096899504079,0.32388018534929264,0.31353285854232227,0.3984437605431208
139,8.609,8.42,1.08,0.22782375734788826,0.5372306843687413,0.2094954775072025,0.3226716844519426,0.31571412280666983,0.3999215199222513
140,8.672,8.48,1.03,0.22877942983216093,0.5370125923663334,0.21207743538807675,0.3214894979799374,0.3178920968409421,0.40138100940436494
141,8.712,8.53,0.99,0.22973769380080172,0.5368039584927493,0.21465465996174674,0.3203345309727872,0.3200664966516144,0.4028214566801535
142,8.813,8.59,1.11,0.23069846545812905,0.5366048772025003,0.21722625975209975,0.31920764411688557,0.3222370315947397,0.4042421271231897
143,8.834,8.64,1.08,0.2316616488307211,0.5364154434685209,0.2197913557572316,0.3181096537581669,0.32440340454229905,0.4056423235907092
144,8.874,8.7,0.98,0.23262713574075095,0.5362357527780489,0.2223490817563282,0.3170413319490732,0.3265653120548514,0.40702138619680767
145,8.934,8.75,1.04,0.23359480579387773,0.5360659011221268,0.2248985846045581,0.3160034065300158,0.3287224445606505,0.4083786920589071
146,8.996,8.81,1.08,0.23456452638199113,0.5359059849789038,0.22743902451619857,0.31499656124520353,0.33087448654139007,0.4097136550182894
147,9.037,8.86,0.98,0.2355361527011586,0.5357561012907527,0.22996957533631482,0.3140214358923967,0.3330211167247024,0.4110257253355166
148,9.181,8.92,1.03,0.23650952778515388,0.5356163474351078,0.23248942480139095,0.3130786265059847,0.3351620082834717,0.4123143893616433
149,9.202,8.97,1.14,0.23748448255494467,0.5354868211889067,0.23499777478934528,0.3121686855727895,0.3372968290419625,0.4135791691862184
150,9.221,9.03,1.09,0.23846083588448966,0.5353676206865704,0.23749384155936124,0.3112921222801131,0.33942524168871724,0.41481962226315516
151,9.262,9.08,1.08,0.23943839468313174,0.535258844371556,0.23997685598190102,0.31044940279575217,0.34154690399615173,0.41603534101560047
152,9.323,9.14,1.21,0.24041695399479315,0.5351605909416473,0.24244606375915181,0.30964095057995855,0.34366146904678857,0.4172259524209309
153,9.365,9.19,1.24,0.24139629711410274,0.5350729592882213,0.24490072563604942,0.3088671467294601,0.3457685854661049,0.4183911175769178
154,9.426,9.25,1.16,0.24237619571954616,0.5349960484297123,0.24734011760197142,0.3081283303536056,0.3478678976620121,0.41953053124999895
155,9.488,9.3,1.24,0.24335641002371566,0.5349299574394062,0.2497635310831626,0.3074247989825973,0.34995904607103673,0.4206439214064869
156,9.55,9.36,1.29,0.24433668894077937,0.5348747853675705,0.25217027312599083,0.3067568090076559,0.35204166741133636,0.4217310487274461
157,9.59,9.41,1.16,0.24531677027136506,0.5348306311577908,0.25455966657122936,0.3061245761528176,0.3541153949427336,0.42279170610794115
158,9.651,9.47,1.15,0.24629638090510805,0.5347975935573318,0.2569310502196798,0.3055282759779462,0.3561798587339768,0.423825718141395
159,9.712,9.52,1.22,0.24727523704112564,0.5347757710213873,0.25928377898954,0.3049680444125059,0.3582346859374282,0.4248329405898698
160,9.753,9.58,1.14,0.24825304442664606,0.5347652616111715,0.261617224065991,0.3044439783196008,0.3602795010713412,0.4258132598411528
161,9.814,9.63,1.1,0.24922949861393193,0.534766162885925,0.2639307730434736,0.3039561360897428,0.3623139263097993,0.42676659235359893
162,9.918,9.69,1.24,0.2502042852355027,0.5347785717890047,0.2662238300610299,0.30350453826376383,0.364337581780295,0.42769288408967127
163,9.938,9.74,1.27,0.25117708029752456,0.5348025845282429,0.2684958159309705,0.3030891681841192,0.36635008586883855,0.42859210993902785
164,9.978,9.8,1.19,0.252147550491116,0.5348382964507006,0.2707461682610201,0.30270997267359834,0.368351055532424,0.4294642731318789
165,10.04,9.85,1.28,0.2531153535212173,0.5348858019118965,0.27297434156999933,0.30236686274034347,0.3703401066186596,0.43030940464321565
166,10.082,9.91,1.35,0.25408013845260735,0.5349451941396108,0.2751798073970515,0.3020597143081523,0.37231685419240423,0.4311275625884011
167,10.144,9.96,1.25,0.2550415460726334,0.5350165650924081,0.27736205440443124,0.301788368971217,0.3742809128692791,0.4319188316105708
168,10.207,10.02,1.25,0.2559992092702255,0.5351000053130949,0.27952058847389266,0.301552634772694,0.3762318971559627,0.4326833222603299
169,10.269,10.07,1.36,0.25695275343079027,0.5351956037773953,0.2816549327967396,0.3013522870067719,0.3781694217971837,0.43342117036828753
170,10.33,10.13,1.3,0.2579017968466082,0.5353034477381614,0.28376462795763463,0.30118706904405135,0.38009310212933006,0.4341325364110211
171,10.371,10.18,1.24,0.258845951142364,0.5354236225654637,0.28584923201227774,0.3010566931800855,0.38200255444056985,0.43481760487109244
172,10.452,10.24,1.34,0.2597848217153981,0.5355562115829359,0.2879083205590055,0.30096084150689845,0.38389739633734693,0.4354765835917052
173,10.473,10.29,1.33,0.26071800819019897,0.535701295900737,0.2899414868042801,0.3008991668071848,0.38577724711709055,0.43610970312646996
174,10.534,10.35,1.21,0.2616451048865559,0.5358589542454713,0.2919483416219455,0.3008712934707242,0.38764172814693126,0.43671721608462477
175,10.576,10.4,1.3,0.2625657013006639,0.5360292627874144,0.29392851360603445,0.30087681843244135,0.3894904632481669,0.4372993964719613
176,10.637,10.46,1.31,0.2634793825983425,0.536212294965445,0.2958816491168462,0.3009153121315054,0.3913230790861694,0.4378565390276328
177,10.697,10.51,1.26,0.2643857301194282,0.5364081213101454,0.2978074123200074,0.30098631949083854,0.3931392055653589,0.4383889585569921
178,10.759,10.57,1.26,0.26528432189232865,0.5366168092656131,0.29970548521823576,0.3010893609164444,0.39493847622879885,0.43889698926062826
179,10.802,10.62,1.39,0.2661747331577046,0.5368384230105933,0.3015755676755422,0.30122393331604297,0.39672052866189916,0.43938098405979575
180,10.863,10.68,1.36,0.26705653690027564,0.5370730232795484,0.30341737743367875,0.30138951113645296,0.39848500489966165,0.4398413139184702
181,10.926,10.73,1.32,0.2679293043878171,0.5373206671842214,0.3052306501207292,0.30158554741895993,0.4002315518368651,0.44027836716228663
182,11.009,10.79,1.39,0.2687926057164911,0.537581408036128,0.3070151392517824,0.3018114748716482,0.40195982164058053,0.44069254879459474
183,11.05,10.84,1.41,0.26964601036171215,0.5378552951702763,0.30877061622162316,0.302066706957421,0.4036694721644233,0.44108427980979475
184,11.071,10.9,1.31,0.27048908773377445,0.5381423737703009,0.31049687028933565,0.30235063899625825,0.4053601673639489,0.44145399650410894
185,11.132,10.95,1.39,0.2713214077374519,0.5384426846951734,0.31219370855464346,0.302662649280268,0.4070315777125759,0.4418021497840335
186,11.194,11.01,1.45,0.2721425413347469,0.5387562643076979,0.31386095592577423,0.30300210020023566,0.40868338061738607,0.4421292044728505
187,11.235,11.06,1.34,0.2729520611099342,0.5390831443050849,0.3154984550786731,0.3033683393825178,0.4103152608341103,0.44243563861571944
188,11.296,11.12,1.31,0.273749541836002,0.5394233515520017,0.317106066407452,0.30376070083521545,0.4119269108805613,0.44272194278398425
189,11.378,11.17,1.44,0.27453456104155727,0.5397769079165771,0.31868366796601705,0.30417850610258534,0.4135180314477379,0.4429886193793732
190,11.399,11.23,1.4,0.2753066995772396,0.5401438301098416,0.32023115540086117,0.30462106542652934,0.4150883318077656,0.44323618193874614
191,11.46,11.28,1.34,0.27606554218067064,0.540524129529008,0.32174844187501034,0.30508767891376387,0.41663753021776523,0.443465154439983
192,11.521,11.34,1.48,0.27681067803894754,0.5409178121048647,0.32323545798305364,0.3055776377069995,0.4181653543186699,0.4436760706095097
193,11.583,11.39,1.54,0.2775417013476689,0.5413248781534233,0.32469215165712884,0.3060902251581775,0.4196715415279792,0.4438694732318484
194,11.624,11.45,1.45,0.27825821186547406,0.5417453222318552,0.3261184880636946,0.30662471800157487,0.42115583942541573,0.4440459134615546
195,11.684,11.5,1.55,0.2789598154630604,0.5421791329987328,0.3275144494908802,0.3071803875245614,0.4226180061304689,0.4442059501379789
196,11.746,11.56,1.66,0.27964612466565797,0.5426262930786409,0.32888003522621073,0.30775650073390537,0.42405781067084364,0.4443501491034043
197,11.787,11.61,1.61,0.2803167591879868,0.5430867789312916,0.33021526142459023,0.30835232151567865,0.42547503334088865,0.444479082525236
198,11.849,11.67,1.59,0.2809713464608105,0.5435605607253405,0.33152016096655584,0.30896711178695957,0.42686946604913545,0.4445933282230228
199,11.91,11.72,1.72,0.28160952214829726,0.5440476022171471,0.3327947833069392,0.3096001326376727,0.42824091265415076,0.44469346900109447
200,11.971,11.78,1.68,0.2822309306555194,0.5445478606347189,0.3340391943142051,0.3102506454608931,0.42958918928798207,0.44478009198751134
201,12.013,11.83,1.6,0.2828352256255013,0.5450612865670409,0.3352534761008396,0.3109179130697589,0.43091412466652834,0.4448537879798877
202,12.116,11.89,1.67,0.2834220704252475,0.5455878238589636,0.3364377268452057,0.3116012007988762,0.4322155603862025,0.4449151507985099
203,12.136,11.94,1.7,0.2839911386201606,0.5461274095118073,0.3375920606052922,0.3122997775878451,0.43349335120625765,0.44496477664702505
204,12.178,12.0,1.61,0.2845421144361966,0.5466799735898054,0.3387166071247599,0.31301291704436995,0.4347473653161308,0.4450032634809156
205,12.26,12.05,1.72,0.28507469320901685,0.5472454391325239,0.3398115116315946,0.31373989848449774,0.4359774845871152,0.44503121038399285
206,12.281,12.11,1.83,0.2855885818193026,0.5478237220734437,0.34087693462953433,0.3144800079478219,0.43718360480764745,0.4450492169531935
207,12.344,12.16,1.79,0.28608349911334313,0.5484147311649857,0.3419130516822824,0.31523253918586946,0.4383656359014909,0.4450578826920309
208,12.406,12.22,1.79,0.2865591763079975,0.549018367910361,0.3429200531903699,0.3159967946222723,0.43952350212814023,0.44505780641310816
209,12.469,12.27,1.93,0.28701535737918216,0.5496345265027138,0.34389814416043835,0.3167720862836818,0.44065714226485087,0.44504958565008657
210,12.509,12.33,1.91,0.28745179943313554,0.5502630937720473,0.3448475439667266,0.3175577367005637,0.44176650976981224,0.44503381607941034
211,12.572,12.38,1.84,0.28786827305982615,0.5509039491403581,0.34576848610461625,0.31835307977697014,0.44285157292607774,0.4450110909519731
212,12.613,12.44,1.92,0.2882645626679671,0.5515569645852997,0.3466612179361761,0.3191574616281902,0.44391231496596045,0.44498200053480014
213,12.673,12.49,1.97,0.2886404668011945,0.5522220046125541,0.34752600042776133,0.31997024138489083,0.4449487341756796,0.4449471315627543
214,12.735,12.55,1.87,0.2889957984350492,0.5528989262369635,0.34836310787985536,0.3207907919621002,0.44596084398008906,0.44490706670030666
215,12.797,12.6,1.92,0.28933038525444454,0.5535875789724236,0.34917282764944363,0.32161850079135645,0.44694867300734653,0.4448623840135408
216,12.859,12.66,1.98,0.2896440699113278,0.5542878048305712,0.34995545986528076,0.3224527705145411,0.44791226513341076,0.4448136564526949
217,12.919,12.71,1.9,0.289936710262259,0.5549994383283694,0.35071131713648784,0.32329301963818935,0.44885167950627364,0.444761451345663
218,12.96,12.77,1.88,0.2902081795856459,0.5557223065047812,0.3514407242549393,0.3241386831473758,0.4497669905498463,0.444706329902942
219,13.045,12.82,2.02,0.29045836677836756,0.5564562289467884,0.35214401789183963,0.32498921307859496,0.4506582879474226,0.44464884673449423
220,13.065,12.88,2.01,0.29068717653152143,0.5572010178250209,0.35282154628879137,0.32584407905124985,0.4515256766046473,0.4445895493788806
221,13.106,12.93,1.94,0.29089452948502165,0.5579564779391887,0.3534736689435394,0.3267027687574039,0.4523692765919178,0.4445289778448498
222,13.209,12.99,2.03,0.2910803623607822,0.558722406773404,0.35410075629043714,0.32756478840942976,0.4531892230661824,0.44446766416538225
223,13.23,13.04,2.07,0.29124462807428353,0.5594985945613242,0.35470318937556716,0.32842966314515243,0.45398566617216074,0.44440613196401935
224,13.271,13.1,1.95,0.2913872958244286,0.5602848243608738,0.35528135952641143,0.3292969373900282,0.45475877092306805,0.4443448960332651
225,13.332,13.15,2.02,0.2915083511617129,0.5610808721382213,0.35583566801599653,0.33016617517594227,0.4555087170609784,0.44428446192493015
226,13.394,13.21,2.1,0.2916077960348164,0.5618865068606674,0.35636652572152683,0.3310369604163553,0.4562356988969963,0.44422532555244426
227,13.455,13.26,2.03,0.29168564881579484,0.5627014905981662,0.3568743527776364,0.33190889713769905,0.4569399251314339,0.4441679728053332
228,13.496,13.32,1.98,0.29174194430406886,0.5635255786332851,0.3573595782244327,0.33278160966713205,0.45762161865420964,0.44411287917619957
229,13.622,13.37,2.1,0.2917767337094069,0.5643585195794912,0.3578226396504392,0.3336547427770166,0.45828101632571094,0.44406050940058583
230,13.643,13.43,2.06,0.2917900846140793,0.5652000555076712,0.35826398283043426,0.33452796178663935,0.45891836873839625,0.4440113171100335
231,13.685,13.48,1.93,0.2917820809143533,0.5660499220807256,0.35868406135809183,0.33540095262165803,0.4595339399594187,0.4439657444985384
232,13.746,13.54,2.01,0.2917528227414925,0.5669078486959523,0.35908333627327915,0.3362734218315919,0.4601280072545528,0.4439242220024797
233,13.787,13.59,2.07,0.2917024263624546,0.567773558634753,0.35946227568390227,0.33714509656539554,0.46070086079369754,0.44388716799398553
234,13.848,13.65,1.96,0.2916310240605331,0.5686467692190208,0.3598213543822981,0.33801572450484163,0.46125280333819807,0.4438549884876719
235,13.951,13.7,2.01,0.2915387639962337,0.5695271919734846,0.36016105345631316,0.33888507375524657,0.4617841499101887,0.4438280768607616
236,13.971,13.76,2.12,0.29142581004870677,0.5704145327932993,0.3604818598953366,0.33975293269305956,0.4622952274441495,0.4438068135867051
237,14.011,13.81,2.06,0.29129234163808493,0.5713084921162901,0.36078426619169013,0.3406191097699462,0.4627863744208747,0.443791565982562
238,14.052,13.87,2.03,0.2911385535290783,0.5722087650994137,0.36106876993784004,0.34148343327324726,0.4632579404840774,0.4437826879705376
239,14.114,13.92,2.18,0.29096465561615553,0.5731150417991895,0.36133587341985673,0.34234575104307047,0.4637102860399047,0.44378051985413736
240,14.178,13.98,2.19,0.29077087269062074,0.5740270073559497,0.3615860832074723,0.343205930146596,0.464143781839701,0.4437853881093701
241,14.241,14.03,2.09,0.2905574441898895,0.5749443421817785,0.3618199097410125,0.34406385651036564,0.4645588085464257,0.4437976051913528
242,14.283,14.09,2.18,0.2903246239292873,0.5758667221519688,0.36203786691542983,0.3449194345114662,0.4649557562852161,0.4438174693565512
243,14.343,14.14,2.21,0.29007267981675255,0.5767938187997445,0.3622404716616648,0.34577258652861576,0.4653350241786755,0.4438452645007659
244,14.406,14.2,2.08,0.28980189355092745,0.5777252995139116,0.36242824352565284,0.34662325245419373,0.46569701986754514,0.44388126001290074
245,14.447,14.25,2.04,0.2895125603031954,0.5786608277390712,0.3626017042453888,0.3474713891683168,0.4660421590174595,0.4439257106445726
246,14.508,14.31,2.12,0.2892049883842733,0.5796000631780671,0.3627613773265433,0.3483169699761887,0.46637086481249856,0.4439788563956731
247,14.57,14.36,2.04,0.28887949889596415,0.5805426619964282,0.3629077876171758,0.34915998401007137,0.4666835674362211,0.4440409224160685
248,14.611,14.42,2.01,0.2885364253686158,0.5814882770286647,0.3630414608820752,0.35000043559731686,0.46698070354079285,0.44411211892369545
249,14.693,14.47,2.14,0.28817611338472227,0.5824365579863737,0.36316292337714573,0.3508383435960017,0.467262715704746,0.4441926411393133
250,14.714,14.53,2.18,0.2877989201889766,0.5833871516681467,0.36327270142411616,0.35167374069973767,0.46753005187985375,0.44428266923809406
251,14.755,14.58,2.09,0.2874052142849883,0.5843397021712553,0.36337132098572716,0.3525066727132132,0.4677831648275924,0.44438236831811717
252,14.838,14.64,2.19,0.2869953750188202,0.585293851105098,0.3634593072414677,0.35333719780008876,0.4680225115457023,0.44449188838573334
253,14.88,14.69,2.28,0.28656979214951495,0.5862492378064048,0.36353718416392,0.3541653857050515,0.46824855268544163,0.4446113643576722
254,14.942,14.75,2.19,0.28612886540686255,0.5872054995562331,0.363605474095851,0.3549913169520814,0.4684617519602255,0.44474091607974775
255,15.003,14.8,2.18,0.28567300403676443,0.5881622717988217,0.3636646973282775,0.35581508202127315,0.4686625755464325,0.4448806483620508
256,15.063,14.86,2.28,0.2852026263346582,0.5891191883624166,0.3637153716798402,0.35663678050683667,0.4688514914772606,0.44503065103054007
257,15.083,14.91,2.22,0.2847181591675701,0.590075881682206,0.3637580120779499,0.3574565202589981,0.4690289690305974,0.4451909989949199
258,15.145,14.97,2.14,0.2842200374854461,0.5910319830254857,0.3637931301422803,0.3582744165124433,0.46919547811192736,0.4453617523326595
259,15.206,15.02,2.22,0.28370870382245966,0.5919871227191222,0.3638212337712086,0.3590905910038032,0.4693514886333348,0.4455429563889187
260,15.267,15.08,2.18,0.2831846077890066,0.592940930379301,0.3638428267317715,0.3599051710805016,0.4694974698896786,0.4457346418920205
261,15.328,15.13,2.04,0.2826482055550703,0.5938930351434618,0.36385840825365057,0.36071828880311785,0.4696338899330113,0.4459368250840265
262,15.41,15.19,2.11,0.28209995932558224,0.5948430659042884,0.3638684726276144,0.36153008004337095,0.46976121494627904,0.4461495078659562
263,15.43,15.24,2.19,0.2815403368083632,0.5957906515456032,0.36387350880878777,0.36234068357991644,0.46987990861729123,0.44637267795723834
264,15.491,15.3,2.13,0.280969810675247,0.5967354211800001,0.36387400002509257,0.36315024019428765,0.4699904315138829,0.4466063090690655
265,15.532,15.35,2.11,0.2803888580170424,0.597677004388031,0.3638704233911897,0.3639588917695011,0.4700932404611403,0.44685036109141446
266,15.593,15.41,2.23,0.2797979597930559,0.5986150314587573,0.3638632495282236,0.36476678039406973,0.47018878792155505,0.4471047802935088
267,15.633,15.46,2.18,0.27919760027597873,0.5995491336314633,0.3638529421896835,0.3655740474742765,0.47027752137900825,0.4473694995374474
268,15.694,15.52,2.11,0.27858826649300666,0.600478943338277,0.3638399578937147,0.36638083285750866,0.4703598827275283,0.4476444385046346
269,15.797,15.57,2.2,0.277970447664124,0.6014040944473603,0.3638247455622021,0.36718727396932227,0.47043630766580796,0.4479295039345375
270,15.817,15.63,2.23,0.27734463463852965,0.6023242225062125,0.3638077461669364,0.367993504966717,0.47050722509850806,0.4482245898751953
271,15.858,15.68,2.11,0.27671131933021703,0.6032389649845361,0.3637893923831601,0.36879965590992003,0.470573056545397,0.44852957794488074
272,15.918,15.74,2.16,0.27607099415370856,0.6041479615161138,0.3637701082507554,0.36960585195496376,0.4706342155593963,0.44884433760440406
273,15.978,15.79,2.22,0.2754241514609128,0.6050508541392698,0.3637503088433028,0.37041221256946827,0.4706911071546273,0.4491687264396716
274,16.019,15.85,2.13,0.2747712829800223,0.6059472875356896,0.3637303999452877,0.37121885077414385,0.47074412724557246,0.4495025904542495
275,16.079,15.9,2.07,0.27411287925730277,0.6068369092676081,0.3637107777378003,0.37202587241255813,0.4707936620984646,0.44984576437178897
276,16.223,15.96,2.14,0.27344942910257675,0.607719370013546,0.3636918284931347,0.3728333754516825,0.47084008779601494,0.4501980719481727
277,16.243,16.01,2.08,0.2727814190391819,0.6085943238028128,0.3636739282787202,0.37364144931557136,0.4708837697165721,0.4505593262931388
278,16.264,16.07,1.99,0.2721093327591643,0.6094614282489159,0.36365744267080063,0.3744501742541931,0.4709250620287563,0.450929330200981
279,16.305,16.12,2.07,0.2714336505844289,0.6103203447818822,0.36364272647824164,0.3752596207489645,0.47096430720254795,0.45130787648975984
280,16.366,16.18,2.1,0.2707548489345464,0.6111707388793258,0.36363012347684903,0.37606984895595647,0.47100183553773634,0.4516947483483226
281,16.406,16.23,1.99,0.2700733998019209,0.6120122802959564,0.3636199661546442,0.3768809081871863,0.4710379647105643,0.45208971969041056
282,16.49,16.29,2.05,0.2693897702350383,0.6128446432911708,0.3636125754685831,0.37769283643015084,0.47107299933935,0.4524925555152208
283,16.532,16.34,2.13,0.26870442183053744,0.6136675068544158,0.3636082606132218,0.37850565990580604,0.4711072305698408,0.4529030122739258
284,16.572,16.4,2.05,0.26801781023488114,0.6144805549280894,0.36360731880183755,0.3793193926653575,0.4711409356810436,0.4533208382417978
285,16.634,16.45,2.01,0.26733038465640274,0.6152834766278455,0.36361003506048784,0.3801340362263906,0.4711743777122683,0.4537457738956869
286,16.696,16.51,2.12,0.2666425873884809,0.6160759664602679,0.3636166820354244,0.38094957924898365,0.4712078051121307,0.45417755229661183
287,16.757,16.56,2.08,0.2659548533445515,0.616857724537936,0.3636275198142201,0.3817659972524235,0.4712414514102738,0.4546158994771169
288,16.819,16.62,1.94,0.2652676096056155,0.6176284567919155,0.36364279576092046,0.38258325237294843,0.4712755349125622,0.4550605348328951
289,16.88,16.67,2.0,0.26458127498084943,0.6183878751816725,0.36366274436550117,0.3834012931626893,0.47131025842049334,0.4555111715180182
290,16.942,16.73,1.93,0.26389625958189566,0.6191356979023186,0.3636875871079348,0.3842200544296329,0.4713458089755417,0.4559675168429842
291,16.963,16.78,1.81,0.26321296441140407,0.6198716495889633,0.36371753233725496,0.38503945711803833,0.4713823576290773,0.45642927267478756
292,17.025,16.84,1.83,0.26253178096637486,0.6205954615178527,0.36375277516604787,0.38585940822844106,0.4714200592383748,0.4568961358383222
293,17.066,16.89,1.93,0.2618530908568026,0.6213068718039509,0.3637934973807754,0.386679800776284,0.47145905228907053,0.45736779851858606
294,17.128,16.95,1.86,0.2611772654400376,0.6220056255946912,0.3638398673682513,0.38750051378822675,0.47149945874425897,0.45784394866331624
295,17.191,17.0,1.83,0.26050466547116374,0.6226914752597523,0.3638920400584847,0.3883214123352608,0.4715413839202779,0.4583242703858319
296,17.254,17.06,1.97,0.2598356407695767,0.6233641805768563,0.36395015688396676,0.3891423476018366,0.47158491638915273,0.45880844436791135
297,17.315,17.11,1.99,0.25917052990189987,0.6240235089136207,0.36401434575539604,0.3899631569901379,0.4716301279076428,0.45929614826247883
298,17.377,17.17,1.9,0.25850965988140934,0.6246692354054146,0.36408472105379475,0.3907836642584445,0.4716770733728294,0.45978705709576656
299,17.479,17.22,1.97,0.25785334588422815,0.6253011431290322,0.36416138363892736,0.39160367969236487,0.4717257908042067,0.4602808436684964
300,17.499,17.28,2.01,0.2572018909826518,0.6259190232718699,0.3642444208739308,0.39242300030765903,0.4717763013522815,0.4607771789554988
301,17.54,17.33,1.89,0.25655558589605537,0.6265226752962055,0.36433390666609267,0.39324141008339747,0.4718286093337165,0.46127573250312526
302,17.622,17.39,1.85,0.2559147087598904,0.6271119070981509,0.3644299015237486,0.3940586802243405,0.47188270229306206,0.4617761728238401
303,17.642,17.44,1.93,0.2552795249133029,0.62768653516087,0.3645324526292615,0.3948745694516604,0.47193855109109567,0.46227816778741726
304,17.683,17.5,1.83,0.2546502867059138,0.62824638470166,0.3646415939280359,0.39568882432128694,0.47199611001973457,0.462781385008216
305,17.746,17.55,1.75,0.25402723332426863,0.6287912898125096,0.3647573462334572,0.39650117956921654,0.4720553169433848,0.4632854922280281
306,17.787,17.61,1.86,0.2534105906383602,0.6293210935937587,0.36487971734751007,0.3973113584831322,0.47211609346647193,0.46379015769394694
307,17.848,17.66,1.89,0.25280057106849146,0.6298356482804611,0.36500870219667664,0.3981190732996074,0.47217834512678025,0.46429505053059117
308,17.909,17.72,1.8,0.25219737347258436,0.6303348153610151,0.36514428298256096,0.39892402562601487,0.47224196161410903,0.4647998411059115
309,17.992,17.77,1.89,0.25160118305388707,0.6308184656876081,0.3652864293465566,0.3997259068861924,0.4723068170136738,0.4653042013897363
310,18.012,17.83,1.96,0.2510121712889274,0.6312864795780716,0.3654350985478051,0.40052439878896295,0.47237277007364964,0.46580780530418076
311,18.075,17.88,1.87,0.2504304958755273,0.6317387469088013,0.36559023565371573,0.40131917381869714,0.4724396644962535,0.46631032906506625
312,18.137,17.94,1.87,0.2498563007007037,0.6321751671984925,0.3657517737423818,0.40210989574724404,0.4725073292517743,0.4668114515135617
313,18.178,17.99,1.98,0.24928971582831877,0.6325956496825303,0.3659196341163144,0.4028962201666802,0.4725755789149767,0.467310854437294
314,18.239,18.05,1.93,0.24873085750640023,0.6330001133779036,0.36609372652701033,0.4036777950423224,0.47264421402331935,0.46780822288018103
315,18.279,18.1,1.85,0.24817982819410736,0.6333884871384863,0.36627394940995184,0.4044542612852666,0.472713021456418,0.4683032454402383
316,18.363,18.16,1.95,0.24763671660834372,0.6337607097004577,0.36646019012964537,0.4052252533434772,0.47278177483617934,0.46879561455458035
317,18.383,18.21,1.92,0.247101597790007,0.6341167297175473,0.3666523252342934,0.4059903998101775,0.47285023494701856,0.46928502677078615
318,18.444,18.27,1.8,0.24657453318981315,0.6344565057857281,0.3668502207196629,0.40674932404803316,0.47291815017553995,0.4697711830038109
319,18.507,18.32,1.84,0.24605557077353232,0.6347800064569828,0.36705373230165467,0.40750164482751455,0.4729852569690039,0.4702537887777445
320,18.568,18.38,1.91,0.245544745146368,0.6350872102418247,0.36726270569701996,0.40824697697787227,0.47305128031183724,0.47073255445190754
321,18.61,18.43,1.86,0.2450420776961173,0.6353781056003266,0.36747697691165165,0.40898493204926417,0.47311593421935255,0.47120719543100076
322,18.671,18.49,1.85,0.24454757675466895,0.6356526909214939,0.367696372535859,0.40971511898467167,0.47317892224775365,0.4716774323591963
323,18.774,18.54,2.0,0.24406123777732255,0.635910974490895,0.36792071004601673,0.410437144800313,0.47323993801944714,0.47214299129810605
324,18.794,18.6,1.94,0.2435830435393712,0.6361529744465075,0.3681497981119987,0.4111506152731886,0.4732986657626639,0.47260360388847084
325,18.836,18.65,1.84,0.2431129643493699,0.6363787187227514,0.36838343690984215,0.41185513563419623,0.47335478086440025,0.4730590074953024
326,18.898,18.71,1.96,0.24265095827850397,0.636588244982661,0.3686214184391244,0.4125503112650252,0.4734079504357116,0.4735089453360981
327,18.96,18.76,2.02,0.24219697140549715,0.6367816005380904,0.36886352684460727,0.41323574839681737,0.47345783388840784,0.4739531665917214
328,19.0,18.82,1.92,0.24175093807652895,0.636958842257802,0.3691095387418001,0.4139110548084452,0.47350408352219026,0.47439142649963795
329,19.102,18.87,1.98,0.24131278117963262,0.6371200364633289,0.36935922354615125,0.41457584052236524,0.4735463451212604,0.47482348642940836
330,19.123,18.93,2.04,0.24088241243301628,0.6372652588126752,0.3696123438056043,0.41522971849634144,0.47358425855944497,0.47524911394053
331,19.163,18.98,1.96,0.24045973268670315,0.6373945941721488,0.36986865553630416,0.4158723053096825,0.4736174584129063,0.4756680828228719
332,19.226,19.04,1.93,0.24004463223682487,0.6375081364768823,0.3701279085612786,0.4165032218429501,0.47364557457953027,0.47608017312005724
333,19.266,19.09,2.03,0.23963699115183487,0.6376059885808022,0.3703898468519244,0.4171220939503465,0.473668232904084,0.47648517113619704
334,19.35,19.15,1.98,0.2392366796098526,0.637688262096924,0.3706542088721263,0.41772855312406715,0.4736850558082312,0.47688286942634356
335,19.392,19.2,1.89,0.23884355824630757,0.6377550772288358,0.37092072792480013,0.4183222371497702,0.4736956629244586,0.47727306677094694
336,19.451,19.26,2.01,0.23845747851101115,0.6378065625941324,0.37118913250056446,0.4189027907520999,0.4736996717329358,0.4776555681344933
337,19.533,19.31,2.06,0.2380782830337818,0.6378428550403836,0.37145914662813795,0.4194698662289734,0.4736966982002998,0.4780301846084007
338,19.553,19.37,1.95,0.23770580599778174,0.6378640994540276,0.37173049022599564,0.4200231240731632,0.47368635741932313,0.4783967333382664
339,19.594,19.42,2.0,0.23733987351976352,0.6378704485624828,0.3720028794547931,0.42056223357969624,0.473668264248411,0.4787550374356646
340,19.656,19.48,2.1,0.236980304036466,0.6378620627297853,0.3722760270701104,0.4210868734377323,0.4736420339498833,0.47910492587485587
341,19.717,19.53,2.04,0.2366269086964402,0.6378391097461368,0.3725496427751412,0.42159673230579475,0.47360728282601827,0.47944623337493164
342,19.777,19.59,2.02,0.23627949175659949,0.6378017646118679,0.3728234335729799,0.4220915093695079,0.47356362885184966,0.4797788002680877
343,19.839,19.64,2.15,0.23593785098276898,0.6377502093164373,0.373097104118074,0.4225709148813361,0.47351069230374415,0.4801024723547914
344,19.88,19.7,2.18,0.23560177805348104,0.6376846326131339,0.37337035706631805,0.4230346706819971,0.4734480963828278,0.48041710074660154
345,19.943,19.75,2.07,0.23527105896624312,0.6376052297901227,0.3736428934232,0.4234825107031929,0.47337546783238565,0.4807225416973246
346,20.004,19.81,2.15,0.23494547444551186,0.6375122024384061,0.3739144128893939,0.4239141814511762,0.47329243754841965,0.4810186564230904
347,20.067,19.86,2.18,0.2346248003516783,0.6374057582171392,0.3741846142032492,0.4243294424705279,0.4731986411826271,0.48130531091181594
348,20.087,19.92,2.06,0.2343088080905055,0.6372861106166023,0.37445319547975114,0.42472806678738895,0.4730937197371192,0.4815823757224761
349,20.211,19.97,2.05,0.23399726502259252,0.6371534787190218,0.3747198545456426,0.4251098413313715,0.47297732015022137,0.48184972577465357
350,20.23,20.03,2.17,0.2336899348725199,0.6370080869574035,0.374984289270469,0.42547456733548694,0.47284909587269847,0.4821072401289224
351,20.272,20.08,2.12,0.23338657813736058,0.636850164872528,0.3752461978933443,0.4258220607135557,0.47270870743371907,0.4823548017587025
352,20.312,20.14,2.05,0.2330869524942185,0.6366799468682636,0.37550527934520617,0.4261521524146738,0.47255582299583604,0.48259229731428155
353,20.375,20.19,2.18,0.2327908132064177,0.6364976719653448,0.375761233566234,0.42646468875443666,0.4723901188982416,0.4828196168796885
354,20.434,20.25,2.21,0.2324979135279425,0.6363035835537186,0.37601376181799995,0.4267595317226567,0.47221128018757214,0.4830366537230369
355,20.476,20.3,2.12,0.23220800510573134,0.6360979291434797,0.3762625669898472,0.4270365592672515,0.47201900113556244,0.48324330404091675
356,20.579,20.36,2.2,0.2319208383794292,0.6358809601143638,0.3765073538988767,0.42729566555401427,0.4718129857428946,0.48343946669741056
357,20.6,20.41,2.28,0.23163616297821554,0.6356529314637678,0.3767478295828432,0.42753676120213724,0.47159294822864944,0.48362504295831626
358,20.642,20.47,2.16,0.23135372811434748,0.6354141015533085,0.37698370358527306,0.42775977349553307,0.47135861350483826,0.48379993622117823
359,20.725,20.52,2.12,0.23107328297308768,0.6351647318540066,0.3772146882321984,0.4279646465701563,0.47110971763555515,0.483964051741773
360,20.766,20.58,2.22,0.23079457709871518,0.6349050866902568,0.3774404989000391,0.4281513415776307,0.4708460082803468,0.4841172963576855
361,20.828,20.63,2.13,0.23051736077636928,0.6346354329827576,0.37766085427432994,0.4283198368254203,0.47056724512142484,0.4842595782095884
362,20.869,20.69,2.01,0.23024138540952016,0.634356039990488,0.3778754765991089,0.4284701278935436,0.47027320027432673,0.4843908064607971
363,20.93,20.74,2.08,0.22996640389286896,0.6340671790516857,0.3780840919168051,0.428602227727543,0.4699636586815889,0.48451089101561734
364,20.991,20.8,2.12,0.2296921709804537,0.6337691233236107,0.3782864302984201,0.42871616670712775,0.4696384184889319,0.48461974223692866
365,21.052,20.85,2.03,0.22941844364866046,0.6334621475207534,0.3784822260637322,0.4288119926896702,0.4692972914033733,0.4847172706634619
366,21.094,20.91,2.12,0.22914498145372703,0.63314652765112,0.3786712179911724,0.428889771027662,0.4689401030326048,0.4848033867273242
367,21.156,20.96,2.2,0.2288715468832294,0.6328225407503021,0.3788531495169723,0.4289495845593591,0.4685666932049324,0.4848780004724542
368,21.217,21.02,2.14,0.22859790570100322,0.6324904646131321,0.3790277689232109,0.42899153357204517,0.46817691626908686,0.4849410212748048
369,21.343,21.07,2.13,0.22832382728497197,0.6321505775228504,0.3791948295144215,0.4290157357376708,0.4677706413732587,0.4849923575651555
370,21.364,21.13,2.27,0.22804908495741927,0.6318031579777952,0.37935408978246565,0.4290223260209825,0.46734775272278156,0.48503191655547406
371,21.385,21.18,2.23,0.2277734563073379,0.6314484844156804,0.3795053135594427,0.42901145656047823,0.4669081498159731,0.4850596039696792
372,21.426,21.24,2.14,0.22749672350457023,0.6310868349355141,0.3796482701584797,0.4289832965225124,0.46645174765771885,0.48507532377952645
373,21.487,21.29,2.2,0.2272186736055109,0.630718487017168,0.37978273450229044,0.4289380319287365,0.46597847695046135,0.48507897794616284
374,21.53,21.35,2.23,0.2269390988501869,0.6303437172385412,0.379908487239455,0.42887586545688755,0.46548828426232974,0.48507046616775
375,21.591,21.4,2.11,0.22665779695055985,0.6299628009902046,0.3800253148484339,0.42879701621481925,0.464981132172175,0.48504968563352185
376,21.654,21.46,2.16,0.22637457136987157,0.62957601218745,0.3801330097293711,0.4287017194877805,0.46445699939128327,0.4850165307847331
377,21.695,21.51,2.21,0.22608923159280658,0.6291836229797807,0.3802313702837414,0.4285902264592411,0.46391588086153246,0.48497089308308494
378,21.757,21.57,2.14,0.22580159338618627,0.6287859034580298,0.3803202009819103,0.42846280390586866,0.4633577878297515,0.48491266078732315
379,21.797,21.62,2.12,0.2255114790498449,0.6283831213594318,0.3803993124186372,0.4283197338675297,0.4627827478980311,0.48484171873877463
380,21.86,21.68,2.27,0.2252187176572641,0.6279755417710947,0.38046852135646864,0.4281613132934113,0.46219080504973736,0.48475794815656137
381,21.922,21.73,2.26,0.224923145285498,0.627563426832359,0.38052765075693,0.42798785366539066,0.46158201965099593,0.4846612264431269
382,21.984,21.79,2.16,0.224624605233912,0.6271470354365015,0.3805765297994442,0.42779968059961565,0.46095646842744525,0.48455142700056386
383,22.046,21.84,2.25,0.22432294823129445,0.6267266229321575,0.3806149938879716,0.42759713342699257,0.4603142444161307,0.48442841905807477
384,22.088,21.9,2.3,0.22401803263100717,0.6263024408246828,0.3806428846455024,0.42738056475296315,0.45965545689249676,0.48429206751077936
385,22.15,21.95,2.19,0.22370972459398122,0.625874736477545,0.3806600498967377,0.42715033999662366,0.4589802312725142,0.4841422327700908
386,22.211,22.01,2.23,0.22339789825949236,0.6254437528137609,0.3806663436395111,0.42690683690902875,0.4582887089900369,0.48397877062602385
387,22.251,22.06,2.3,0.22308243590373417,0.6250097280174512,0.3806616260056678,0.4266504450705029,0.45758104734953586,0.48380153212198507
388,22.313,22.12,2.22,0.2227632280862414,0.6245728952357299,0.38064576321222726,0.4263815653668666,0.4568574193544139,0.4836103634427579
389,22.415,22.17,2.18,0.2224401737841919,0.6241334822813512,0.3806186275036522,0.4261006094446824,0.4561180135111424,0.48340510581652696
390,22.436,22.23,2.29,0.22211318051454115,0.6236917113367635,0.3805800970859429,0.42580799914587125,0.45536303360950625,0.48318559543182743
391,22.457,22.28,2.27,0.22178216444387858,0.6232477986603411,0.3805300560531539,0.4255041659221924,0.4545926984792758,0.4829516633702447
392,22.518,22.34,2.15,0.22144705048584826,0.6228019542955737,0.380468394306822,0.4251895502300573,0.4538072417236512,0.4827031355555751
393,22.58,22.39,2.23,0.2211077723859512,0.6223543817839255,0.3803950074687015,0.42486460090608674,0.4530069114298547,0.48243983272
394,22.621,22.45,2.28,0.22076427279355007,0.6219052778819807,0.38030979678715465,0.4245297745237537,0.45219196985728266,0.4821615703876752
395,22.703,22.5,2.18,0.22041650332093454,0.6214548322833621,0.3802126690375659,0.42418553473138126,0.4513626931036557,0.4818681588760537
396,22.763,22.56,2.18,0.22006442458934866,0.6210032273458428,0.3801035364171848,0.4238323515718106,0.4505193707496195,0.4815594033152805
397,22.783,22.61,2.3,0.2197080062619281,0.6205506378240658,0.3799823164348452,0.4234707007842132,0.44966230548228386,0.48123510368605277
398,22.845,22.67,2.23,0.2193472270635505,0.6200972306083186,0.37984893179608625,0.42310106308864676,0.4487918126982206,0.48089505487640477
399,22.908,22.72,2.18,0.21898207478765222,0.6196431644698583,0.3797033102842545,0.422723923454013,0.4479082200864824,0.48053904675792924
400,22.97,22.78,2.31,0.21861254629009122,0.6191885898133274,0.3795453846381703,0.42233977035010545,0.447011867192252,0.4801668642819131
401,23.011,22.83,2.33,0.2182386474701627,0.6187336484367678,0.37937509242691153,0.42194909498441774,0.4461031049617936,0.47977828759572927
402,23.073,22.89,2.21,0.21786039323889603,0.6182784732997083,0.3791923759222084,0.42155239052441895,0.4451822952694495,0.47937309217966095
403,23.133,22.94,2.26,0.2174778074747789,0.6178231882997571,0.3789971819688212,0.42115015130632555,0.44424981042750616,0.4789510490041585
404,23.215,23.0,2.31,0.21709092296708424,0.617367908058151,0.37878946185317197,0.4207428720319511,0.44330603267985125,0.47851192470737364
405,23.236,23.05,2.17,0.2166997813470164,0.6169127377147594,0.3785691711704829,0.42033104695570633,0.442351353680418,0.47805548179272356
406,23.297,23.11,2.11,0.21630443300692212,0.6164577727331222,0.37833626969071366,0.4199151690641506,0.4413861739574485,0.4775814788462362
407,23.338,23.16,2.18,0.21590493700782543,0.6160030987161853,0.3780907212236335,0.4194957292506636,0.4404109023646247,0.4770896707734289
408,23.42,23.22,2.13,0.21550136097555592,0.6155487912334282,0.37783249348339526,0.4190732154877702,0.43942595552008895,0.4765798090554615
409,23.504,23.27,2.06,0.21509378098574183,0.615094915660007,0.3775615579529678,0.41864811199943647,0.43843175723432076,0.4760516420242655
410,23.525,23.33,2.15,0.21468228143792242,0.6146415270284118,0.3772778897486961,0.4182208984353858,0.43742873792777304,0.4755049151562696
411,23.566,23.38,2.17,0.21426695491901543,0.6141886698929608,0.376981467485127,0.4177920490492058,0.436417334039129,0.4749393713842038
412,23.627,23.44,2.05,0.21384790205635754,0.6137363782073052,0.3766722731401131,0.417362031881804,0.43539798742503194,0.47435475142635836
413,23.691,23.49,2.12,0.21342523136050673,0.6132846752150616,0.3763502919200667,0.41693130795176736,0.4343711447521501,0.47375079413264376
414,23.733,23.55,2.19,0.21299905905798464,0.6128335733537092,0.3760155121251503,0.4165003304543715,0.43333725688247926,0.4731272368468179
415,23.795,23.6,2.11,0.2125695089141429,0.6123830741719545,0.3756679250141849,0.4160695439712207,0.4322967782528212,0.4724838157843023
416,23.879,23.66,2.07,0.2121367120463569,0.6119331682608846,0.375307524669086,0.4156393836927162,0.43125016624941986,0.471820266425061
417,23.899,23.71,2.15,0.21170080672777525,0.6114838351993356,0.3749343078586845,0.4152102746557332,0.43019788057878394,0.47113632392099253
418,23.983,23.77,2.05,0.21126193818189484,0.6110350435139611,0.37454827390186063,0.41478263099892004,0.42914038263577214,0.47043172351716556
419,24.004,23.82,1.94,0.21082025836827487,0.6105867506544588,0.3741494245300293,0.41435685523786103,0.4280781348700335,0.46970620098609295
420,24.067,23.88,1.97,0.21037592575972744,0.6101389029842904,0.3737377637491287,0.41393333756203426,0.42701160015188677,0.46895949307407525
421,24.11,23.93,1.97,0.209929105111327,0.6096914357870805,0.3733132977013884,0.41351245515510515,0.4259412411386737,0.468191337958516
422,24.174,23.99,1.85,0.20947996722153717,0.609244273288737,0.3728760345272121,0.41309457153976414,0.42486751964253877,0.46740147571505897
423,24.235,24.04,1.92,0.20902868868565302,0.6087973286952918,0.3724259842274546,0.4126800359482098,0.42379089600047865,0.46658964879344544
424,24.298,24.1,1.99,0.20857545164163752,0.6083505042464952,0.3719631585262701,0.4122691827194568,0.42271182844741295,0.465755602501068
425,24.34,24.15,1.93,0.20812044350835163,0.6079036912852601,0.3714875707346558,0.4118623307247564,0.4216307724929595,0.4648990854932805
426,24.402,24.21,1.9,0.2076638567161539,0.6074567703431183,0.3709992356148034,0.4114597828225119,0.4205481803025736,0.4640198502695912
427,24.486,24.26,2.01,0.2072058884298874,0.6070096112419029,0.3704981692453943,0.4110618253441366,0.4194645000837343,0.4631176536748544
428,24.507,24.32,1.96,0.2067467402643627,0.6065620732118578,0.36998438888804297,0.41066872761221873,0.41838017547790296,0.46219225740448017
429,24.549,24.37,1.85,0.20628661799255224,0.6061140050262921,0.36945791285515656,0.41028074149211785,0.4172956449590273,0.4612434285125297
430,24.612,24.43,1.93,0.20582573124680337,0.6056652451527545,0.36891876037949345,0.40989810097784035,0.4162113412394007,0.4602709399213962
431,24.675,24.48,1.92,0.20536429321346633,0.6052156219205123,0.368366951485706,0.4095210218127426,0.415127690683708,0.4592745709316335
432,24.737,24.54,1.79,0.20490252032139264,0.6047649537039544,0.3678025068641593,0.4091497011453601,0.4140451127320821,0.45825410773047337
433,24.78,24.59,1.82,0.20444063192476203,0.6043130491214747,0.3672254477472908,0.4087843172205997,0.4129640193329552,0.45720934389767076
434,24.843,24.65,1.86,0.20397884998065943,0.6038597072494198,0.36663579578873334,0.40842502910662704,0.41188481438644725,0.45614008090744435
435,24.906,24.7,1.75,0.20351739872177382,0.603404717850786,0.3660335729454321,0.40807197645779064,0.4108078931989722,0.4550461286254073
436,24.969,24.76,1.71,0.20305650432452668,0.6029478616184402,0.36541880136301647,0.4077252793137286,0.4097336419496776,0.4539273057994587
437,24.99,24.81,1.83,0.2025963945728783,0.6024889104327228,0.3647915032647154,0.40738503793444514,0.40866243716926665,0.4527834405435815
438,25.053,24.87,1.79,0.2021372985180156,0.6020276276332506,0.3641517008441123,0.40705133267070764,0.40759464523169353,0.45161437081336064
439,25.115,24.92,1.7,0.20167944613409325,0.6015637683046539,0.36349941616202863,0.40672422386864254,0.40653062185916916,0.4504199448718717
440,25.177,24.98,1.78,0.201223067970179,0.6010970795758421,0.3628346710478157,0.40640375180695476,0.40547071164088744,0.44920002174441676
441,25.219,25.03,1.82,0.2007683947985765,0.6006273009322399,0.3621574870054067,0.406089936664711,0.4044152475658764,0.44795447166045566
442,25.281,25.09,1.7,0.2003156572597555,0.6001541645403148,0.3614678851246208,0.4057827785171774,0.4033645505703766,0.4466831764810435
443,25.342,25.14,1.65,0.1998650855041724,0.5996773955836754,0.3607658859983236,0.40548225735697185,0.4023189291001509,0.4453860301101565
444,25.382,25.2,1.73,0.1994169088313053,0.5991967126100793,0.36005150964610055,0.40518833313790303,0.40127867868812056,0.44406293888842935
445,25.443,25.25,1.65,0.19897135532625823,0.5987118278887755,0.35932477544506736,0.40490094583934416,0.4002440815476956,0.4427138219681041
446,25.506,25.31,1.61,0.19852865149429022,0.5982224477777284,0.3585857020682532,0.40462001554991067,0.3992154061820917,0.44133861166841243
447,25.567,25.36,1.72,0.19808902189359465,0.5977282731003946,0.35783430743069194,0.40434544257035565,0.39819290700984444,0.43993725381103727
448,25.608,25.42,1.66,0.1976526887666148,0.5972289995318031,0.3570706086430867,0.4040771075364383,0.3971768240066659,0.43850970803552997
449,25.711,25.47,1.54,0.19721987167014643,0.596724317993675,0.35629462197273826,0.4038148715628067,0.3961673823637475,0.43705594809457815
450,25.731,25.53,1.63,0.19679078710446307,0.5962139150582347,0.35550636281133746,0.403558576408836,0.39516479216257955,0.4355759621288979
451,25.772,25.58,1.68,0.19636564814173474,0.5956974733601754,0.3547058456492085,0.40330804466706865,0.3941692480663293,0.43406975292139177
452,25.813,25.64,1.55,0.19594466405408845,0.5951746720160292,0.3538930840556655,0.4030630799745472,0.3931809290277656,0.43253733813017214
453,25.875,25.69,1.61,0.19552803994173942,0.5946451870500347,0.35306809066523026,0.402823467247086,0.39219999801366673,0.4309787505001139
454,25.937,25.75,1.69,0.1951159763616944,0.5941086918255393,0.352230877169543,0.4025889729364607,0.39122660174562257,0.42939403805271714
455,25.999,25.8,1.62,0.19470866895758268,0.5935648574810142,0.351381454314865,0.40235934531054574,0.3902608704571294,0.4277832642542029
456,26.062,25.86,1.59,0.19430630809118543,0.5930133533698678,0.3505198319050661,0.4021343147565966,0.3893029176668778,0.4261465081619284
457,26.083,25.91,1.71,0.19390907847619862,0.5924538475033914,0.34964601880987983,0.4019135941081013,0.3883528399681446,0.42448386454929204
458,26.144,25.97,1.7,0.1935171588147289,0.5918860069962505,0.348760022978079,0.4016968789957451,0.38741071683423156,0.4227954440092998
459,26.206,26.02,1.6,0.19313072143699933,0.5913094985139381,0.3478618514551195,0.4014838482229717,0.38647661043991455,0.42108137303691306
460,26.268,26.08,1.66,0.19274993194475717,0.5907239887215169,0.34695151040475386,0.40127416416646433,0.38555056549890554,0.41934179409021716
461,26.31,26.13,1.69,0.19237494885893378,0.5901291447328424,0.3460290051341516,0.40106747320165886,0.3846326091173608,0.41757686563036944
462,26.372,26.19,1.55,0.19200592327218438,0.589524634559304,0.34509434012218265,0.4008634061531583,0.3837227506634879,0.415786762140292
463,26.452,26.24,1.55,0.19164299850698285,0.5889101275570602,0.3441475190506227,0.4006615787697919,0.38282098165328626,0.41397167412218244
464,26.473,26.3,1.62,0.19128630977994696,0.5882852948717894,0.3431885448380953,0.4004615922240776,0.3819272756524238,0.41213180807406286
465,26.534,26.35,1.56,0.19093598387303107,0.5876498098800814,0.3422174196765865,0.4002630336358954,0.38104158819419703,0.4102673864457367
466,26.597,26.41,1.53,0.1905921388121513,0.5870033486267315,0.34123414507032845,0.4000654766202145,0.38016385671345365,0.40837864757465125
467,26.637,26.46,1.66,0.1902548835537174,0.5863455902573206,0.3402387218767494,0.39986848185876933,0.37929400049630224,0.4064658456022318
468,26.7,26.52,1.68,0.18992431767947568,0.5856762174455215,0.33923115034909485,0.39967159769551774,0.3784319206454093,0.4045292503712476
469,26.761,26.57,1.59,0.18960053110002878,0.5849949168145863,0.3382114301802829,0.39947436075552156,0.37757750006069235,0.40256914730473625
470,26.801,26.63,1.67,0.18928360376738787,0.5843013793524493,0.3371795605475489,0.3992762965866613,0.376730603435262,0.40058583726695385
471,26.862,26.68,1.73,0.18897360539695637,0.5835953008198274,0.3361355401574916,0.3990769203233668,0.3758910772665435,0.39857963640675853
472,26.923,26.74,1.6,0.1886705951994256,0.5828763821506356,0.33507936729126797,0.39887573737132637,0.37505874988258536,0.3965508759838278
473,26.984,26.79,1.61,0.18837462162313603,0.5821443298440232,0.3340110398498313,0.39867224411203633,0.3742334314836192,0.39449990217818437
474,27.046,26.85,1.69,0.18808572210750105,0.5813988563473915,0.3329305553992484,0.39846592862607405,0.3734149141989816,0.3924270758836057
475,27.107,26.9,1.61,0.18780392284810718,0.5806396804298704,0.33183791121625683,0.3982562714340229,0.3726029721595257,0.3903327724856125
476,27.188,26.96,1.53,0.18752923857407253,0.5798665275458533,0.330733104334276,0.39804274625401154,0.37179736158563903,0.3882173816248433
477,27.209,27.01,1.64,0.18726167233816793,0.579079130188341,0.3296161315900254,0.39782482077488296,0.3709978208909624,0.38608130694666987
478,27.271,27.07,1.64,0.1870012153201103,0.5782772282319164,0.3284869896707953,0.39760195744398696,0.37020407080188555,0.3839249658378544
479,27.332,27.12,1.56,0.18674784664333335,0.5774605692651993,0.32734567516230223,0.39737361426846685,0.36941581449286465,0.38174878915096455
480,27.352,27.18,1.65,0.18650153320544788,0.5766289089126064,0.3261921845969597,0.39713924562881014,0.3686327377375931,0.37955322091715554
481,27.413,27.23,1.7,0.18626222952255783,0.575782011145204,0.32502651450236747,0.3968983031033505,0.36785450907607314,0.37733871804782154
482,27.475,27.29,1.58,0.18602987758761486,0.5749196485803664,0.3238486614498828,0.3966502363023294,0.3670807799976708,0.3751057500255509
483,27.537,27.34,1.58,0.1858044067430413,0.5740416027699385,0.32265862210322577,0.3963944937101391,0.36631118514028294,0.3728547985848336
484,27.598,27.4,1.67,0.1855857335678987,0.5731476644766453,0.3214563932671476,0.3961305235344823,0.3655453425057904,0.37058635738302814
485,27.639,27.45,1.6,0.18537376177991843,0.5722376339385805,0.3202419719362677,0.39585777456126414,0.36478285369200164,0.3683009316621919
486,27.68,27.51,1.54,0.1851683821527283,0.5713113211217008,0.31901535534423525,0.3955756970140457,0.3640233041412837,0.36599903790249105
487,27.742,27.56,1.65,0.18496947244860173,0.5703685459603216,0.3177765410133701,0.39528374341686917,0.3632662634060804,0.36368120346795085
488,27.803,27.62,1.63,0.18477689736704175,0.5694091385856227,0.316525526804939,0.3949813694591235,0.36251128543152067,0.36134796624525894
489,27.926,27.67,1.54,0.1845905085094912,0.5684329395421367,0.3152623109702329,0.39466803486087276,0.3617579088553245,0.3589998742762447
490,27.946,27.73,1.59,0.18441014436041042,0.5674397999921923,0.3139868922025964,0.39434320423687247,0.36100565732522544,0.3566374853845496
491,27.987,27.78,1.61,0.1842356302848983,0.566429581908332,0.3126992696905457,0.3940063479574136,0.36025403983414345,0.35426136679689824
492,28.029,27.84,1.48,0.18406677854297254,0.5654021582537936,0.31139944317210366,0.3936569430041473,0.3595025510733512,0.351872094759314
493,28.07,27.89,1.47,0.18390338832057196,0.5643574131512271,0.31008741299047177,0.3932944738191913,0.35875067180385833,0.3494702541486305
494,28.131,27.95,1.56,0.18374524577731144,0.5632952420398939,0.30876318015112975,0.392918433146065,0.35799786924620935,0.34705643807970027
495,28.192,28.0,1.48,0.18359212411101458,0.5622155518216411,0.30742674638044837,0.39252832286121575,0.35724359748883633,0.34463124750880847
496,28.273,28.06,1.42,0.18344378363904637,0.5611182609959876,0.3060781141858846,0.3921236547950489,0.35648729791504413,0.34219529083393035
497,28.314,28.11,1.52,0.18329997189645514,0.5600032997846969,0.3047172869177824,0.39170395154145016,0.35572839964865755,0.33974918349254923
498,28.354,28.17,1.53,0.1831604237509242,0.558870610246197,0.30334426883277105,0.3912687472547323,0.35496632001833256,0.3372935475577348
499,28.395,28.22,1.42,0.18302486153453,0.5577201463801469,0.3019590651587426,0.390817588432791,0.35420046504051717,0.33482901133312704
500,28.458,28.28,1.46,0.18289299519230615,0.5565518742223664,0.3005616821613837,0.3903500346851787,0.35343022992103995,0.33235620894739565
501,28.521,28.33,1.48,0.18276452244763614,0.5553657719302652,0.29915212721228174,0.38986565948482665,0.35265499957531654,0.32987577994867184
502,28.562,28.39,1.33,0.1826391289845422,0.5541618298588418,0.29773040885872476,0.38936405090220844,0.35187414916715287,0.3273883688994326
503,28.643,28.44,1.3,0.18251648864696868,0.5529400506273062,0.2962965368953906,0.3888448123209063,0.35108704466609186,0.32489462497238736
504,28.685,28.5,1.35,0.1823962636551576,0.5517004491763858,0.29485052243815263,0.38830756313379305,0.35029304342318085,0.32239520154803697
505,28.725,28.55,1.25,0.18227810483918344,0.5504430528164145,0.29339237800022605,0.3877519394192258,0.3494914947649351,0.31989075581470666
506,28.787,28.61,1.19,0.18216165188961672,0.5491679012663393,0.29192211757083203,0.38717759459674894,0.34868174060513685,0.3173819483719652
507,28.848,28.66,1.3,0.18204653362512185,0.5478750466838419,0.29043975669642974,0.3865842000618812,0.3478631160739738,0.3148694428383691
508,28.89,28.72,1.31,0.18193236827661016,0.5465645536867814,0.2889453125644159,0.38597144579956266,0.3470349501639004,0.31235390546437714
509,28.971,28.77,1.22,0.18181876378740483,0.545236499366114,0.28743880408905687,0.3853390409757569,0.3461965663915057,0.30983600475115314
510,29.012,28.83,1.29,0.18170531812876056,0.5438909732904091,0.28592025199931786,0.3846867145066427,0.34534728347462096,0.30731641107582164
511,29.073,28.88,1.35,0.18159161963003295,0.542528077502056,0.2843896789282275,0.3840142156048312,0.34448641602388475,0.30479579632360904
512,29.136,28.94,1.23,0.1814772473228023,0.5411479265052725,0.2828471095034728,0.3833213143020489,0.3436132752479913,0.3022748335272315
513,29.198,28.99,1.23,0.18136177129828207,0.5397506472460893,0.281292570439017,0.3826078019477795,0.34272716967184624,0.29975419651390933
514,29.239,29.05,1.32,0.18124475307736568,0.5383363790845741,0.27972609062762177,0.3818734916834344,0.341827405866846,0.2972345595604397
515,29.3,29.1,1.25,0.1811257459926871,0.5369052737596658,0.27814770123423904,0.3811182188916834,0.34091328919247676,0.29471659705681513
516,29.382,29.16,1.19,0.18100429558207756,0.5354574953470611,0.2765574357902431,0.38034184162068563,0.3399841245483873,0.29220098317892457
517,29.402,29.21,1.28,0.18087993999279606,0.5339932202106377,0.27495533028837477,0.3795442409832033,0.33903921713605284,0.28968839157084963
518,29.443,29.27,1.26,0.18075221039590922,0.5325126369478368,0.2733414232781231,0.3787253215308186,0.3380778732291101,0.28717949503716317
519,29.505,29.32,1.16,0.18062063141019524,0.5310159463292952,0.2717157559611578,0.37788501160355215,0.33709940095141155,0.28467496524550223
520,29.565,29.38,1.23,0.18048472153493186,0.5295033612328741,0.27007837228633746,0.3770232636551489,0.3361031110618071,0.28217547243955937
521,29.606,29.43,1.27,0.18034399359092382,0.5279751065721326,0.2684293190438019,0.3761400545542428,0.33508831774462794,0.2796816851625332
522,29.668,29.49,1.17,0.18019795516913106,0.5264314192192222,0.26676864595769634,0.3752353858615516,0.33405433940480744,0.27719426999103247
523,29.75,29.54,1.2,0.18004610908627944,0.5248725479221517,0.2650964057771392,0.3743092840832571,0.3330004994665339,0.2747138912794467
524,29.81,29.6,1.31,0.17988795384686196,0.5232987532163813,0.2634126543651145,0.37336180090076976,0.3319261271743062,0.2722412109148342
525,29.831,29.65,1.26,0.1797229841109785,0.5217103073307192,0.2617174507850596,0.37239301337708713,0.33083055839524506,0.26977688808243416
526,29.892,29.71,1.23,0.1795506911674861,0.52010749408755,0.26001085738497687,0.3714030241399372,0.3297131364215065,0.2673215790419369
527,29.933,29.76,1.35,0.17937056341193505,0.5184906087974797,0.25829293987889773,0.3703919615418727,0.3285732127716584,0.2648759369146014
528,29.994,29.82,1.38,0.17918208682876258,0.5168599581485037,0.2565637674255044,0.369359979797365,0.32741014798992324,0.26244061148115877
529,30.467,29.87,1.3,0.17898474547720836,0.5152158600897664,0.2548234127037031,0.36830725909672324,0.3262233124422442,0.260016248990281
530,30.489,29.93,1.36,0.17877802198040282,0.513558643709961,0.25307195198493543,0.3672340056964669,0.32501208710819923,0.2576034919772297
531,30.51,29.98,1.41,0.17856139801708543,0.5118886491103896,0.25130946520204966,0.36614045198562933,0.32377586436787353,0.25520297909213824
532,30.53,30.04,1.28,0.17833435481545135,0.5102062272726875,0.2495360360146435,0.36502685652734035,0.3225140487828734,0.25281534493726826
533,30.551,30.09,1.26,0.17809637364868042,0.5085117399211949,0.24775175187088533,0.36389350407497445,0.3212260578707143,0.2504412199125613
534,30.572,30.15,1.32,0.17784693633175885,0.5068055593799552,0.24595670406589207,0.3627407055621828,0.31991132287183033,0.2480812300688438
535,30.592,30.2,1.25,0.17758552571924596,0.505088068424303,0.24415098779678848,0.36156879806615744,0.318569289508436,0.2457359969681279
536,30.613,30.26,1.22,0.17731162620364097,0.5033596601269908,0.2423347022145641,0.36037814474348084,0.3171994187344167,0.24340613755056578
537,30.634,30.31,1.35,0.1770247242139624,0.5016207376988039,0.24050795047272988,0.359169134737935,0.31580118747536856,0.2410922640077007
538,30.654,30.37,1.38,0.17672430871410696,0.4998717143235852,0.23867083977260398,0.3579421830596456,0.31437408935787153,0.2387949836616959
539,30.674,30.42,1.29,0.1764098717005283,0.49811301298753013,0.23682348140487558,0.3566977304349167,0.3129176354270807,0.23651489885023497
540,30.695,30.48,1.37,0.1760809086987878,0.4963450663025422,0.23496599078696626,0.35543624312612837,0.31143135485176415,0.23425260681677418
541,30.717,30.53,1.43,0.17573691925859247,0.49456831632334947,0.2330984874956961,0.3541582127210948,0.30991479561600405,0.23200869960580692
542,30.778,30.59,1.28,0.17537740744704386,0.4927832143579961,0.2312210952948559,0.35286415589129344,0.3083675251968605,0.22978376396282743
543,30.88,30.64,1.33,0.17500188233993894,0.4909902207712694,0.2293339421574103,0.351554614118453,0.30678913122737045,0.22757838123879334
544,30.901,30.7,1.43,0.17460985851106578,0.4891898047806215,0.22743716028217817,0.3502301533891308,0.305179222144305,0.2253931272990116
545,30.942,30.75,1.34,0.17420085651951261,0.4873824442441813,0.22553088610496344,0.3488913638569987,0.3035374278201507,0.22322857243646801
546,31.003,30.81,1.27,0.17377440339504246,0.4855686254405328,0.22361526030419066,0.34753885947258795,0.3018634001788044,0.22108528128964028
547,31.044,30.86,1.39,0.17333003312157771,0.48374884284001557,0.22169042780111123,0.3461732775802445,0.3001568137945095,0.21896381276474478
548,31.105,30.92,1.39,0.17286728711881563,0.4819235988673328,0.21975653775463402,0.3447952784819665,0.29841736647358996,0.21686471996223905
549,31.167,30.97,1.27,0.17238571472196013,0.4800934036552252,0.21781374355081562,0.34340554496770237,0.29664477981856463,0.21478855010732825
550,31.248,31.03,1.35,0.17188487365950536,0.4782587747889338,0.21586220278702561,0.34200478181173954,0.29483879977423993,0.21273584448419564
551,31.269,31.08,1.41,0.17136433052899155,0.47642023704113323,0.21390207725082735,0.34059371523499415,0.2929991971554271,0.2107071383736542
552,31.31,31.14,1.28,0.17082366127069284,0.4745783220969717,0.21193353289372688,0.3391730923332379,0.29112576815597285,0.20870296099395913
553,31.372,31.19,1.3,0.1702624516392622,0.4727335682688846,0.2099567398000695,0.33774368047162046,0.2892183348388242,0.20672383544465617
554,31.433,31.25,1.39,0.16968029767341702,0.4708865202009598,0.20797187215148316,0.33630626664628294,0.28727674560689037,0.20477027865352132
555,31.494,31.3,1.3,0.1690768061637835,0.4690377285628029,0.20597910818738063,0.3348616568142637,0.2853008756544997,0.20284280132681243
556,31.535,31.36,1.26,0.16845159511900462,0.4671877497330342,0.20397863016208043,0.33341067519324885,0.2832906273992709,0.20094190790316843
557,31.597,31.41,1.38,0.16780429423016754,0.46533714547270116,0.20197062429906043,0.33195416353298507,0.2812459308942527,0.19906809651149446
558,31.66,31.47,1.37,0.16713454533356148,0.46348648258895314,0.19995528074279656,0.33049298036021,0.27916674422021165,0.19722185893307664
559,31.702,31.52,1.25,0.16644200287174793,0.4616363325892846,0.1979327935086279,0.3290280001987104,0.2770530538579955,0.19540368056804386
560,31.764,31.58,1.31,0.16572633435291473,0.45978727132657343,0.19590336043112194,0.32756011276576225,0.2749048750409453,0.19361404040615945
561,31.806,31.63,1.35,0.1649872208084996,0.4579398786350234,0.19386718311150725,0.32609022214585975,0.27272225208739614,0.1918534110017973
562,31.869,31.69,1.18,0.16422435724910434,0.45609473795701083,0.19182446686486435,0.32461924594241565,0.2705052587133507,0.19012225845290023
563,31.949,31.74,1.19,0.1634374531187321,0.45425243596078313,0.18977542066784117,0.3231481144081026,0.26825399832542374,0.18842104238373278
564,31.969,31.8,1.26,0.16262623274735144,0.4524135621489697,0.18772025710767856,0.32167776955468264,0.2659686042941557,0.18675021593126334
565,32.031,31.85,1.18,0.161790435801731,0.45057870845792525,0.18565919233331296,0.3202091642433739,0.2636492402077693,0.18511022573502656
566,32.093,31.91,1.18,0.16092981773438939,0.4487484688480213,0.18359244600925795,0.3187432612570232,0.2612961001064112,0.18350151193034944
567,32.154,31.96,1.28,0.16004415023038954,0.44692343888510466,0.18152024127284874,0.31728103235558414,0.2589094086969023,0.18192450814482464
568,32.214,32.02,1.27,0.1591332216516135,0.4451042153133924,0.1794428046953387,0.3158234573165082,0.2564894215480409,0.18037964149783794
569,32.255,32.07,1.16,0.1581968374780972,0.4432913956200398,0.177360366247279,0.31437152296157916,0.25403642526655407,0.17886733260282844
570,32.316,32.13,1.22,0.1572348207459861,0.4414855775915407,0.17527315926858283,0.31292622217158056,0.2515507376538703,0.17738799557178758
571,32.398,32.18,1.23,0.1562470124817126,0.4396873588619881,0.1731814204437024,0.31148855289001565,0.24903270784396828,0.17594203802134137
572,32.439,32.24,1.06,0.15523327213207255,0.437897336453095,0.17108538978244414,0.3100595171169518,0.24648271642261807,0.17452986107968474
573,32.481,32.29,1.06,0.1541934779899445,0.43611610630581193,0.16898531060703872,0.3086401198940771,0.24390117552834828,0.1731518593936721
574,32.56,32.35,1.09,0.15312752761541998,0.43434426280341526,0.16688142954612395,0.3072313682822752,0.24128852893546196,0.1718084211354606
575,32.581,32.4,0.98,0.15203533825208823,0.43258239828605355,0.1647739965362826,0.30583427033332206,0.23864525211937604,0.17049992800823385
576,32.643,32.46,0.92,0.15091684723813595,0.43083110255690826,0.16266326483167745,0.3044498340576089,0.23597185230448114,0.16922675525068004
577,32.685,32.51,1.01,0.14977201241179,0.42909096238030814,0.16054949102213711,0.30307906639007265,0.2332688684946354,0.16798927163997301
578,32.746,32.57,0.99,0.14860081251049181,0.4273625609722663,0.15843293505984382,0.3017229721566244,0.2305368714863307,0.1667878394929693
579,32.807,32.62,0.88,0.147403247563064,0.42564647748395623,0.1563138602945987,0.3003825530432746,0.22777646386450362,0.16562281466522769
580,32.848,32.68,0.95,0.14617933927405202,0.42394328647862656,0.1541925335175192,0.29905880656993505,0.2249882799809275,0.16449454654731208
581,32.909,32.73,0.95,0.1449291313994346,0.42225355740236803,0.15206922501299908,0.2977527250705947,0.22217298591511744,0.16340337805771135
582,32.972,32.79,0.83,0.14365269011297926,0.4205778540490491,0.14994420861883273,0.2964652946812828,0.21933127941767755,0.16234964563167814
583,33.054,32.84,0.87,0.14235010436261497,0.418916734019697,0.1478177617944876,0.2951974943370915,0.21646388983601078,0.16133367920537986
584,33.096,32.9,0.91,0.14102148621627214,0.4172707481766418,0.14569016569756654,0.29395029477957385,0.21357157802229837,0.16035580219490714
585,33.158,32.95,0.82,0.1396669711966927,0.4156404400928348,0.14356170526852732,0.29272465757595745,0.2106551362236392,0.1594163314698622
586,33.198,33.01,0.77,0.13828671860472805,0.41402634549689343,0.1414326693236888,0.29152153415179055,0.20771538795422156,0.15851557732141536
587,33.26,33.06,0.86,0.13688091183061307,0.41242899171457875,0.1393033506564208,0.29034186483885516,0.2047531878493915,0.15765384342481764
588,33.322,33.12,0.8,0.13544975865266048,0.4108488971075257,0.1371740461462223,0.28918657794032543,0.20176942150147106,0.15683142679638387
589,33.363,33.17,0.69,0.1339934915227634,0.4092865705101155,0.13504505687519036,0.288056588815161,0.19876500527716004,0.15604861774494783
590,33.447,33.23,0.73,0.13251236783802917,0.4077425106654422,0.13291668825122727,0.2869527989835929,0.19574088611633217,0.15530569981773615
591,33.466,33.28,0.73,0.13100667019782847,0.4062172056613498,0.130789250137296,0.28587609525528473,0.19269804131201818,0.15460294974054117
592,33.528,33.34,0.63,0.12947670664553065,0.40471113236750683,0.1286630569860807,0.2848273488813794,0.1896374782713241,0.15394063735207164
593,33.569,33.39,0.69,0.12792281089419746,0.40322475587445816,0.12653842797946,0.2838074147313495,0.18656023425697893,0.15331902553244692
594,33.632,33.45,0.74,0.1263453425355106,0.401758528935615,0.12441568717222821,0.2828171304954252,0.1834673761091536,0.1527383701259235
595,33.694,33.5,0.69,0.1247446872312183,0.4003128914132134,0.12229516363951004,0.28185731591334906,0.18035999994716503,0.1521989198580684
596,33.734,33.56,0.67,0.12312125688639215,0.39888826972941377,0.12017719162729841,0.2809287720302988,0.1772392308506807,0.1517009162476912
597,33.796,33.61,0.75,0.1214754898037957,0.39748507632386976,0.11806211070551069,0.28003228048093437,0.1741062225200775,0.15124459351385952
598,33.857,33.67,0.7,0.11980785081870388,0.39610370911920734,0.11595026592295331,0.2791686028025165,0.17096215691567282,0.15083017847825145
599,33.938,33.72,0.63,0.11811883141356486,0.39474455099588646,0.1138420079635896,0.27833847977784143,0.16780824387559837,0.15045789046298447
600,33.959,33.78,0.69,0.11640894981195782,0.3934079692778962,0.11173769330347147,0.27754263080846886,0.16464572071214192,0.15012794118392964
601,34.021,33.83,0.68,0.11467875105138209,0.3920943152306746,0.10963768436763009,0.2767817533184445,0.1614758517864193,0.14984053463939068
602,34.082,33.89,0.57,0.11292880703450218,0.39080392357257565,0.10754234968614958,0.2760565221884967,0.1582999280612659,0.1495958669939621
603,34.165,33.94,0.61,0.11115971655853521,0.38953711200120983,0.10545206404857539,0.27536758922057697,0.15511926663224393,0.14939412645739292
604,34.184,34.0,0.64,0.10937210532249989,0.3882941807360586,0.10336720865576153,0.2747155826326389,0.15193521023666967,0.1492354931583443
605,34.225,34.05,0.59,0.10756662591206224,0.3870754120788647,0.10128817126822866,0.274101106583613,0.1487491267405613,0.1491201390130104
606,34.287,34.11,0.58,0.10574395776171554,0.38588106999341426,0.0992153463500668,0.27352474072861227,0.14556240860340436,0.14904822758863479
607,34.349,34.16,0.66,0.10390480709403814,0.3847113997064164,0.09714913520738375,0.2729870398043935,0.1423764723206492,0.1490199139619385
608,34.389,34.22,0.62,0.1020499068357959,0.38356662733122804,0.0950899461203054,0.2724885332449201,0.13919275784389207,0.1490353445723715
609,34.452,34.27,0.57,0.10018001651069139,0.38244695951616187,0.09303819446755139,0.2720297248265547,0.13601272797874828,0.1490946570699605
610,34.533,34.33,0.64,0.09829592210861009,0.3813525831190552,0.09099430284259846,0.2716110923420864,0.13283786776049752,0.14919798015738225
611,34.574,34.38,0.65,0.0963984359313016,0.3802836649096442,0.08895870116044115,0.27123308730250323,0.12966968380765895,0.14934543342577794
612,34.636,34.44,0.6,0.09448839641455062,0.37924035130110295,0.08693182675397512,0.2708961346651838,0.12650970365372782,0.14953712718380285
613,34.719,34.49,0.66,0.09256666792700426,0.37822276811197003,0.08491412445905189,0.2706006325871074,0.12335947505738135,0.14977316227946746
614,34.74,34.55,0.68,0.09063414054590663,0.37723102035963574,0.08290604668730397,0.27034695220174776,0.1202205652915529,0.15005362991441623
615,34.781,34.6,0.6,0.08869172981004993,0.3762651920865964,0.08090805348595105,0.27013543741843116,0.11709456041187707,0.15037861145038497
616,34.892,34.66,0.54,0.08674037645028385,0.37532534622073654,0.07892061258395558,0.2699664047431112,0.11398306450511145,0.15074817820769434
617,34.913,34.71,0.57,0.08478104609794224,0.3744115244709235,0.07694419942410295,0.26984014311973825,0.11088769891823387,0.1511623912557899
618,34.954,34.77,0.46,0.08281472897154919,0.37352374725914705,0.07497929718082742,0.2697569137916351,0.10781010146897044,0.15162130119603362
619,35.016,34.82,0.36,0.08084243954213129,0.3726620136902791,0.07302639676382443,0.269716950182477,0.10475192563851643,0.15212494793717019
620,35.057,34.88,0.4,0.07886521617737859,0.3718263015603077,0.07108599680762463,0.2697204577966234,0.10171483974717788,0.15267336046405655
621,35.118,34.93,0.39,0.0768841207647767,0.3710165674036234,0.06915860364737325,0.26976761413860756,0.09870052611359763,0.15326655660035937
622,35.16,34.99,0.29,0.07490023831368767,0.3702327465796837,0.06724473128107344,0.2698585686516376,0.09571068019814886,0.15390454276604043
623,35.264,35.04,0.33,0.07291467653621794,0.36947475339919317,0.06534490131852418,0.269993442675137,0.09274700973100815,0.15458731373060172
624,35.284,35.1,0.36,0.07092856540662151,0.3687424812898128,0.06345964291716075,0.2701723294216592,0.08981123382538235,0.15531485236321846
625,35.346,35.15,0.26,0.06894305669896826,0.36803580300130934,0.061589492705038364,0.2703952939738358,0.08690508207634777,0.15608712938104607
626,35.387,35.21,0.24,0.06695932350283537,0.3673545708499748,0.05973499469125599,0.270662373302337,0.08403029364576024,0.15690410309712652
627,35.45,35.26,0.3,0.06497855971684204,0.36669861700205564,0.0578967001641852,0.27097357630608526,0.08118861633370615,0.15776571916940288
628,35.491,35.32,0.21,0.06300197951993883,0.36606775379579515,0.056075167577949364,0.27132888387607074,0.07838180563697904,0.1586719103523783
629,35.551,35.37,0.14,0.061030816820465364,0.3654617741015067,0.05427096242766072,0.27172824898406334,0.07561162379506824,0.15962259625293254
630,35.633,35.43,0.19,0.05906632468307905,0.3648804517188584,0.05248465711392888,0.27217159679738767,0.0728798388241416,0.16061768309172617
631,35.696,35.48,0.15,0.05710977473372175,0.3643235418102992,0.050716830797118195,0.2726588248207713,0.07018822353949407,0.16165706347149747
632,35.715,35.54,0.02,0.05516245654281025,0.3637907813693143,0.04896806924176503,0.27318980306612467,0.06753855456690275,0.16274061615346636
633,35.778,35.59,0.06,0.0532256769868128,0.3632818897220149,0.04723896465147759,0.2737643742510494,0.06493261134328945,0.16386820584302145
634,35.819,35.65,0.09,0.05130075958833948,0.362796569060435,0.04553011549457717,0.2743823540268698,0.0623721751070458,0.1650396829858581
635,35.882,35.7,-0.03,0.04938904383485193,0.36233450500580283,0.04384212632072722,0.27504353123697617,0.05985902787832195,0.16625488357575557
636,35.946,35.76,-0.01,0.04749188447609398,0.36189536719997334,0.04217560756881473,0.27574766820623703,0.05739495142952377,0.16751362897521355
637,36.028,35.81,0.08,0.04561065080036921,0.36147880992313786,0.04053117536641147,0.2764945010620852,0.054981726246228435,0.1688157257501747
638,36.048,35.87,0.02,0.04374672588985358,0.361084472735852,0.038909451321266664,0.2772837400875062,0.052621130478713134,0.17016096552004983
639,36.109,35.92,-0.03,0.04190150585521144,0.3607119811433496,0.0373110623054063,0.27811507010569264,0.050314938884297764,0.17154912482424023
640,36.151,35.98,0.15,0.040076399049863494,0.36036094728004114,0.035736640232469745,0.2789881508957703,0.048064921760741064,0.17297996500624735
641,36.213,36.03,0.14,0.03827282526433399,0.36003097061202033,0.03418682182892418,0.27990261763877833,0.045872843870996806,0.17445323211625294
642,36.275,36.09,0.03,0.03649221490116945,0.35972163865532414,0.032662248399780894,0.2808580813929395,0.04374046335972349,0.17596865683275806
643,36.379,36.14,0.03,0.03473600813096954,0.3594325277076444,0.03116356558939314,0.2818541295972409,0.04166953066205639,0.17752595440350863
644,36.399,36.2,0.01,0.03300565403012787,0.35916320359117254,0.02969142313789143,0.28289032660241703,0.039661787405277635,0.17912482460556867
645,36.441,36.25,-0.13,0.03130260970094697,0.35891322240427426,0.02824647463384077,0.2839662142284978,0.03771896530410017,0.180764951724172
646,36.482,36.31,-0.14,0.02962833937483889,0.35868213127975085,0.026829377263748882,0.2850813123481871,0.03584278505028512,0.18244600454994933
647,36.564,36.36,-0.11,0.027984313499340253,0.35846946914754724,0.025440791559070787,0.2862351194954746,0.03403495519725434,0.18416763639420056
648,36.647,36.42,-0.19,0.02637200780966168,0.35827476749988524,0.024081381141325967,0.2874271134990159,0.032297171040268205,0.1859294851219899
649,36.667,36.47,-0.26,0.02479290238543818,0.35809755115692926,0.02275181246583384,0.2886567521399311,0.030631113492639427,0.18773117320293073
650,36.729,36.53,-0.14,0.023248480693260753,0.3579373390312104,0.021452754564389925,0.2899234738337861,0.029038447958371235,0.1895723077795409
651,36.772,36.58,-0.14,0.02174022861549204,0.35779364488908966,0.0201848787870264,0.2912266983365207,0.02752082320155177,0.19145248075297808
652,36.814,36.64,-0.23,0.020269633465828947,0.35766597810752265,0.018948858542871937,0.2925658274739452,0.026079870212803356,0.19337126888585124
653,36.876,36.69,-0.15,0.018838182992088726,0.35755384442434507,0.01774536904005981,0.2939402458942224,0.024717201073094226,0.195328233921663
654,36.919,36.75,-0.12,0.017447364366776102,0.3574567466802318,0.016575087024658448,0.29534932184250884,0.02343440781526941,0.19732292272029478
655,36.981,36.8,-0.23,0.01609866316611545,0.3573741855504134,0.01543869051870329,0.29679240795666034,0.022233061283718405,0.199354867408872
656,37.043,36.86,-0.18,0.014793562338349628,0.35730566026423144,0.01433685855751781,0.29826884208272797,0.021114709992654662,0.2014235855473566
657,37.104,36.91,-0.13,0.01353354116219023,0.3572506693106915,0.013270270926584388,0.29977794810893243,0.02008087898353825,0.20352858030824478
658,37.166,36.97,-0.22,0.012320074196351413,0.35720871112832414,0.012239607898256405,0.30131903681683286,0.01913306868222078,0.20566934066978204
659,37.207,37.02,-0.26,0.011154630221097108,0.35717928477786637,0.011245549968555275,0.3028914067484972,0.01827275375642898,0.20784534162212362
660,37.291,37.08,-0.16,0.010038671172684695,0.35716189059649683,0.010288777594163781,0.30449434508858836,0.017501381974237416,0.2100560443858325
661,37.312,37.13,-0.22,0.008973651071527535,0.35715603083254016,0.00936997092957099,0.3061271285602694,0.01682037306420631,0.21230089664200233
662,37.374,37.19,-0.31,0.007961014944837188,0.3571612102596576,0.008489809564173112,0.30778902433366345,0.01623111757787328,0.21457933277313887
663,37.458,37.24,-0.23,0.00700219774446042,0.35717693676957474,0.007648972258985665,0.3094792909454133,0.01573497575529962,0.2168907741137456
664,37.478,37.3,-0.22,0.006098623260633357,0.357202721942334,0.0068481366824993265,0.3111971792277647,0.015333276394385916,0.21923462920938147
665,37.539,37.35,-0.31,0.005251703032432196,0.35723808159296017,0.006087979145139454,0.31294193324553815,0.015027315724676653,0.22161029408289687
666,37.58,37.41,-0.24,0.004462835255774214,0.35728253629338796,0.005369174331763189,0.3147127912393586,0.01481835628637802,0.22401715250662432
667,37.642,37.46,-0.17,0.003733403689897282,0.3573356118685558,0.004692395031657456,0.3165089865735243,0.014707625815337255,0.22645457627943247
668,37.703,37.52,-0.21,0.0030647765633211184,0.3573968398657074,0.004058311865571558,0.31832974868687125,0.014696316134774227,0.2289219255076961
669,37.764,37.57,-0.25,0.002458305480362624,0.35746575799613545,0.003467593009370425,0.3201743040449801,0.014785582054617443,0.2314185488893488
670,37.825,37.63,-0.14,0.0019153243293481607,0.35754191054879914,0.0029209039139084527,0.3220418770920819,0.014976540279384954,0.23394378400020935
671,37.928,37.68,-0.19,0.0014371481937516173,0.3576248487753968,0.0024189070207354473,0.323931691200927,0.015270268325646631,0.2364969575817169
672,37.949,37.74,-0.26,0.0010250722675730192,0.3577141312465444,0.001962261473256051,0.3258429696186447,0.01566780345018606,0.2390773858291251
673,37.969,37.79,-0.19,0.0006803707763458639,0.35780932417872313,0.001551622822946579,0.3277749364063026,0.016170141590050403,0.24168437467911277
674,38.031,37.85,-0.19,0.0004042959052275099,0.3579100017316378,0.0011876427302118008,0.32972681736952425,0.016778236315737348,0.24431722009567697
675,38.094,37.9,-0.32,0.0001980767356607723,0.3580157462756112,0.0008709686594327877,0.3316978409772048,0.01749299779880974,0.2469752083531348
676,38.135,37.96,-0.26,6.291819207105552e-05,0.35812614862871195,0.0006022435676729277,0.333687239265248,0.01831529179525434,0.24965761631508182
677,38.197,38.01,-0.18,0.0,0.3582408082634629,0.0003821055863986845,0.335694248722302,0.019245938645917293,0.25236371170820787
678,38.26,38.07,-0.22,1.0475657022533481e-05,0.35835933348315346,0.00021118769548731688,0.3377181111545462,0.02028571229535367,0.2550927533899608
679,38.321,38.12,-0.23,9.547141777417862e-05,0.35848134156795486,9.011738874350114e-05,0.33975807452660556,0.021435339330440485,0.25784399160914817
680,38.362,38.18,-0.11,0.000256085294449521,0.3586064588911842,1.9516330134955473e-05,0.3418133937756206,0.022695498040153583,0.26061666825860774
681,38.425,38.23,-0.14,0.0004933860742202579,0.3587343210061668,0.0,0.3438833315953044,0.024066817497999552,0.263410017119037
682,38.485,38.29,-0.18,0.0008084123551282146,0.3588645727042061,3.2177330543996614e-05,0.3459671591864694,0.025549876668701958,0.2662232640929847
683,38.607,38.34,-0.09,0.001202171602109355,0.35899686804419567,0.00011665032998796187,0.3480641569701048,0.027145203540858087,0.2690556274279014
684,38.627,38.4,-0.1,0.0016756392248973688,0.3591308703544094,0.00025401369477431136,0.35017361525871954,0.028853274287400258,0.2719063179270607
685,38.648,38.45,-0.24,0.00222975767962602,0.3592662522069892,0.00044485440928451633,0.3522948348814913,0.030674512455797956,0.27477453914718997
686,38.689,38.51,-0.22,0.0028654355959838334,0.35940269536566066,0.0006897513325767894,0.35442712775894814,0.03260928819001677,0.27765948758181563
687,38.75,38.56,-0.23,0.003583546931785135,0.3595398907072225,0.0009892747717528483,0.356569817423449,0.03465791748629679,0.2805603528295822
688,38.793,38.62,-0.4,0.004384930156811003,0.35967753811737047,0.0013439860417164909,0.35872223948243254,0.03682066148480302,0.28347631774709814
689,38.853,38.67,-0.47,0.005270387467726513,0.3598153463614168,0.0017544370112394798,0.3608837420221544,0.039097725799130324,0.2864065585861518
690,38.935,38.73,-0.42,0.006240684035793257,0.3599530329304864,0.0022211696353752115,0.3630536859503173,0.041489259885530046,0.289350245115364
691,38.955,38.78,-0.52,0.007296547288981368,0.360090323863771,0.0027447154743833967,0.3652314452764182,0.0439953564535659,0.29230654072650664
692,39.018,38.84,-0.59,0.008438666229936734,0.3602269535474164,0.0033255951994206013,0.3674164073287934,0.0466160509197141,0.29527460252582766
693,39.08,38.89,-0.49,0.009667690791080787,0.36036266449060067,0.003964318085277708,0.3696079729073641,0.04935132090523106,0.2982535814107485
694,39.121,38.95,-0.48,0.010984231227935948,0.3604972070793367,0.00466138149043367,0.37180555637110857,0.05220108577944975,0.3012426221322691
695,39.202,39.0,-0.59,0.012388857551588126,0.360630339308534,0.005417270324678004,0.37400858565939465,0.05516520624953435,0.30424086334339645
696,39.324,39.06,-0.54,0.013882099001023107,0.360761826492921,0.006232456504550767,0.37621650224664854,0.05824348399763307,0.3072474376339238
697,39.345,39.11,-0.49,0.01546444355592647,0.36089144095757536,0.00710739839691127,0.3784287610303796,0.06143566136631502,0.310261471551941
698,39.365,39.17,-0.61,0.017136337490417746,0.361018961709017,0.008042540251087159,0.3806448301532501,0.06474142109312796,0.31328208561258936
699,39.405,39.22,-0.64,0.018898184968075566,0.36114417408807814,0.009038311620204544,0.38286419076067,0.06816038609504818,0.31630839429481367
700,39.466,39.28,-0.55,0.02075034767849899,0.3612668694060536,0.010095126772432097,0.385086336696238,0.07169211930351863,0.31933950602715094
701,39.507,39.33,-0.65,0.022693144515542194,0.36138684456589304,0.01121338409301562,0.3873107741380269,0.07533612355067477,0.3223745231638891
702,39.568,39.39,-0.72,0.02472685129722723,0.361503901670434,0.012393465478098433,0.3895370211791632,0.07909184150723572,0.3254125419532075
703,39.671,39.44,-0.64,0.026851700527169915,0.361617847619874,0.013635735721372397,0.39176460735644764,0.0829586556724053,0.32845265249908523
704,39.692,39.5,-0.65,0.029067881197175002,0.3617284937007901,0.014940541894611633,0.3939930731309029,0.08693588841599181,0.331493938718826
705,39.733,39.55,-0.73,0.03137553863049387,0.36183565516901833,0.016308212723129756,0.39622196932416104,0.0910228020728081,0.33453547829804636
706,39.794,39.61,-0.63,0.033774774365101526,0.36193915082862854,0.017739057957172493,0.39845085651461765,0.09521859908927491,0.3375763426449387
707,39.835,39.66,-0.56,0.03626564607626616,0.36203880260909616,0.019233367740266682,0.40067930439728405,0.09952242222203234,0.34061559684556464
708,39.898,39.72,-0.66,0.03884816753766253,0.362134435142606,0.020791411975629972,0.4029068911111985,0.1039333547882717,0.34365229962192234
709,39.96,39.77,-0.57,0.04152230862029772,0.3622258753432857,0.022413439691870984,0.40513320253818014,0.10845042096743122,0.34668550329455633
710,40.043,39.83,-0.48,0.04428799532855564,0.3623129519900794,0.02409967840933325,0.4073578315766959,0.11307258615386137,0.34971425375151416
711,40.062,39.88,-0.52,0.04714510987270331,0.36239549531494164,0.025850333508536515,0.40958037739464975,0.11779875736003982,0.35273759042547004
712,40.124,39.94,-0.53,0.05009349077720842,0.3624733365980335,0.027665587602198904,0.4118004446649881,0.12262778366989689,0.35575454628083114
713,40.165,39.99,-0.38,0.05313293302419385,0.36254630777162006,0.029545599912275546,0.4140176427881314,0.12755845674180377,0.3587641478125498
714,40.228,40.05,-0.42,0.05626318823133172,0.36261424103431245,0.03149050565337633,0.4162315851052151,0.13258951136077735,0.36176541505818766
715,40.29,40.1,-0.52,0.059483964863470705,0.36267696847715797,0.033500415423853375,0.41844188810595295,0.1377196260394471,0.3647573616245461
716,40.351,40.16,-0.43,0.0627949284773027,0.36273432172287845,0.03557541460578811,0.4206481706346824,0.14294742366731672,0.3677389947299356
717,40.412,40.21,-0.41,0.06619570199841686,0.3627861315792989,0.03771556277510174,0.4228500530978546,0.14827147220781972,0.3707093152629512
718,40.493,40.27,-0.53,0.06968586603012826,0.362832227707771,0.039920893123063995,0.4250471566759115,0.15369028544259267,0.37366731785853374
719,40.514,40.32,-0.44,0.0732649591934543,0.3628724383072408,0.042191411890516915,0.4272391025422639,0.15920232376227764,0.3766119909921205
720,40.557,40.38,-0.34,0.07693247849754134,0.3629065898145577,0.0445270978161418,0.42942551109199345,0.16480599500304696,0.379542317092746
721,40.618,40.43,-0.39,0.08068787973975207,0.36293450662161547,0.04692790160009143,0.4316060011828623,0.17049965532792385,0.3824572726760016
722,40.68,40.49,-0.35,0.08453057793453841,0.3629560108099348,0.049393745384281,0.4337801893912289,0.17628161015187854,0.38535582849779104
723,40.763,40.54,-0.2,0.08845994777017868,0.36297092190330743,0.0519245222505978,0.43594768928549416,0.18215011510962412,0.3882369497297805
724,40.784,40.6,-0.22,0.09247532409246718,0.3629790566390866,0.05452009573828808,0.43810811071961425,0.1881033770650234,0.3910995961573281
725,40.846,40.65,-0.26,0.09657600241449021,0.36298022875860037,0.05718029938177692,0.4402610591490031,0.19413955516101708,0.39394272240052625
726,40.888,40.71,-0.13,0.10076123945168064,0.36297424881701057,0.05990493627013211,0.4424061349709065,0.20025676190900082,0.3967652781588024
727,40.949,40.76,-0.08,0.1050302536814104,0.3629609240127318,0.06269377862932701,0.4445429328910961,0.20645306431659607,0.3995662084793458
728,40.991,40.82,-0.17,0.10938222592642706,0.36294005803635515,0.06554656742840041,0.44667104131856455,0.21272648505276318,0.40234445404952757
729,41.05,40.87,-0.07,0.11381629996144434,0.3629114509389429,0.0684630120105296,0.4487900417898975,0.21907500364919344,0.405098951513469
730,41.175,40.93,0.0,0.11833158314218203,0.3628748990195738,0.07144278974996411,0.4508995084251161,0.22549655773690966,0.4078286338129408
731,41.196,40.98,-0.06,0.12292714705615,0.36283019473205047,0.07448554573575146,0.45299900741685917,0.23198904431698006,0.4105324305528237
732,41.237,41.04,-0.06,0.12760202819448102,0.3627771266107095,0.07759089248319559,0.45508809655477706,0.23855032106421922,0.4132092683913992
733,41.278,41.09,0.06,0.13235522864412602,0.36271547921528,0.0807584096739938,0.45716632478694064,0.24517820766270626,0.41585807145569503
734,41.34,41.15,0.05,0.13718571679972213,0.3626450330947136,0.08398764392600154,0.45923323181983755,0.251870487171904,0.4184777617819735
735,41.403,41.2,0.04,0.14209242809440875,0.36256556476986956,0.08727810859354776,0.4612883477581497,0.25862490742209343,0.4210672597812777
736,41.444,41.26,0.18,0.1470742657488115,0.362476846734899,0.09062928359914876,0.4633311927850891,0.2654391824377801,0.42362548472976036
737,41.507,41.31,0.25,0.15213010153737658,0.3623786474771057,0.09404061529738773,0.46536127688365647,0.2723109938876935,0.4261513552833518
738,41.569,41.37,0.21,0.15725877657122625,0.36227073151500366,0.09751151637166838,0.46737809959883353,0.27923799255998577,0.42864379001622793
739,41.651,41.42,0.33,0.16245910209670233,0.36215285945425774,0.10104136576451232,0.4693811498405087,0.2862177998612528,0.4311017079825116
740,41.672,41.48,0.43,0.16772986030877945,0.3620247880612074,0.10462950864205295,0.47136990572686754,0.29324800933803874,0.4335240293006333
741,41.712,41.53,0.38,0.1730698051785675,0.36188627035370496,0.10827525639337775,0.47334383446799666,0.30032618821954893,0.4359096757597891
742,41.775,41.59,0.4,0.17847766329416886,0.36173705570904247,0.11197788666534732,0.4753023922895464,0.3074498789803421,0.4382575714479474
743,41.817,41.64,0.51,0.1839521347141953,0.36157688998879955,0.1157366434334902,0.477245024396388,0.31461660092183275,0.440566643400857
744,41.879,41.7,0.47,0.18949189383329057,0.36140551568046086,0.11955073710958114,0.4791711649761275,0.3218238517714552,0.4428358222714869
745,41.962,41.75,0.43,0.19509559025903403,0.36122267205562486,0.12341934468651566,0.48108023724207777,0.3290691092983422,0.445064043019302
746,41.983,41.81,0.54,0.20076184969961722,0.3610280953445406,0.1273416099210467,0.48297165351495597,0.33634983294432735,0.44725024561871335
747,42.046,41.86,0.61,0.20648927486167531,0.36082151892659137,0.13131664355484732,0.48484481534222135,0.34366346546903176,0.4493933757859403
748,42.109,41.92,0.58,0.21227644635760487,0.36060267353623765,0.13534352357422647,0.48669911365365953,0.3510074346077247,0.4514923857234217
749,42.171,41.97,0.72,0.21812192362160876,0.36037128748389063,0.13942129550867302,0.4885339289516604,0.35837915474059673,0.45354623488082374
750,42.233,42.03,0.81,0.2240242458336305,0.3601270868912042,0.14354897276828404,0.4903486315346489,0.3657760285720704,0.45555389073160507
751,42.253,42.08,0.76,0.22998193285030805,0.35986979594032636,0.1477255370200652,0.49214258175228703,0.37319544881880806,0.45751432956406346
752,42.315,42.14,0.8,0.23599348614208343,0.35959913713673863,0.1519499386030371,0.49391513029133693,0.38063479990512317,0.4594265372858274
753,42.398,42.19,0.93,0.2420573897356375,0.35931483158542205,0.1562210969820407,0.49566561849136065,0.3880914596645676,0.46128951024083736
754,42.418,42.25,0.89,0.2481721111608589,0.3590165992802027,0.1605379012401264,0.4973933786895815,0.3955628010465012,0.46310225603796734
755,42.48,42.3,0.91,0.2543361024015766,0.35870415940624684,0.16489921060938606,0.49909773459430995,0.4030461938264641,0.46486379439052977
756,42.543,42.36,1.05,0.2605478008492799,0.35837723065577126,0.1693038550400035,0.5007780016864039,0.41053900631916906,0.46657315796594856
757,42.604,42.41,1.06,0.26680563025903925,0.35803553155707324,0.17375063580719,0.5024334876482437,0.41803860709293583,0.46822939324482626
758,42.667,42.47,0.97,0.2731080017068368,0.3576787808169496,0.17823832615556076,0.5040634928196344,0.42554236668439044,0.46983156138852505
759,42.728,42.52,1.04,0.2794533145475263,0.35730669767649537,0.18276567198039126,0.5056673106799746,0.4330476593122596,0.47137873911423106
760,42.79,42.58,1.1,0.2858399573726681,0.356919002280144,0.18733139254510156,0.5072442283559621,0.4405518645890792,0.4728700195763333
761,42.811,42.63,1.04,0.29226630896752215,0.35651541605765985,0.19193418123427727,0.5087935271539615,0.44805236922958597,0.4743045132528841
762,42.872,42.69,1.14,0.2987307392664925,0.3560956621186566,0.19657270634151003,0.5103144831160105,0.4555465687544661,0.47568134883593227
763,42.996,42.74,1.27,0.30523161030631235,0.3556594656591288,0.20124561189130666,0.5118063675983578,0.4630318691880451,0.47699967412455446
764,43.017,42.8,1.24,0.31176727717624403,0.3552065543794492,0.2059515184942724,0.5132684478714412,0.470505688748437,0.478258656919443
765,43.037,42.85,1.26,0.3183360889645525,0.35473665891329187,0.210689024234682,0.5146999877403309,0.47796545952865,0.47945748591792076
766,43.098,42.91,1.43,0.3249363897004898,0.35424951326696064,0.21545670558941823,0.5161002481848623,0.4854086291671604,0.48059537160821203
767,43.16,42.96,1.46,0.33156651929101666,0.35374485526857863,0.22025311837714137,0.5174684880187432,0.4928326625064976,0.481671547161692
768,43.202,43.02,1.41,0.33822481445149993,0.3532224270265007,0.22507679873647632,0.5188039645668102,0.5002350432384142,0.48268526932171196
769,43.283,43.07,1.5,0.34490960962965334,0.35268197539616125,0.22992626413195685,0.5201059343594188,0.5076132755342464,0.4836358192874571
770,43.344,43.13,1.57,0.3516192379220614,0.3521232524543762,0.23480001438646358,0.5213736538427348,0.5149648856591178,0.4845225035911835
771,43.364,43.18,1.48,0.3583520319827271,0.3515460159799149,0.23969653273891295,0.5226063801035136,0.5222874235686482,0.48534465496714946
772,43.425,43.24,1.56,0.3651063249231593,0.35095002993902596,0.24461428692594953,0.5238033716069367,0.5295784644868213,0.4861016332106454
773,43.466,43.29,1.67,0.3718804512035701,0.35033506497454575,0.24955173028636193,0.5249638889462426,0.5368356104636235,0.4867928260256457
774,43.529,43.35,1.66,0.3786727475147585,0.3497008988972164,0.2545073028869061,0.5260871956030773,0.5440564919110239,0.48741764985971225
775,43.59,43.4,1.7,0.38548155365023984,0.34904731717787735,0.2594794326681416,0.5271725587177214,0.551238769115812,0.4879755507248541
776,43.632,43.46,1.87,0.39230521336812296,0.3483741134392622,0.26446653660877306,0.5282192498685218,0.5583801337277874,0.4884660050030035
777,43.737,43.51,1.88,0.3991420752421842,0.3476810899462,0.26946702190690314,0.5292265458598873,0.5654783102218016,0.48888852023464147
778,43.756,43.57,1.87,0.4059904935015379,0.3469680580930886,0.27447928717656855,0.5301937295180396,0.5725310573321936,0.48924263588892736
779,43.798,43.62,2.0,0.4128488288582606,0.34623483888755807,0.2795017236579183,0.5311200904934517,0.5795361694582152,0.48952792411353974
780,43.86,43.68,2.07,0.41971544932233695,0.3454812634292187,0.28453271643943306,0.5320049260685924,0.5864914780391146,0.48974399046232236
781,43.923,43.73,2.01,0.42658873100333905,0.3447071733823264,0.289570645690655,0.5328475419693048,0.5933948528975971,0.4898904745988319
782,43.964,43.79,2.11,0.43346705889828646,0.343912421441162,0.2946138879039531,0.5336472531780738,0.6002442035504231,0.48996705097399135
783,44.025,43.84,2.23,0.4403488276651703,0.343096871786961,0.2996608171438696,0.5344033847476145,0.6070374804849523,0.48997342947620637
784,44.086,43.9,2.19,0.44723244238166077,0.342260400535296,0.30470980630261013,0.5351152726135067,0.6137726764004653,0.4899093560524997
785,44.146,43.95,2.2,0.45411631928855617,0.34140289617289327,0.30975922836022945,0.5357822644048835,0.6204478274131304,0.48977461329938843
786,44.188,44.01,2.33,0.46099888651756943,0.34052425998292085,0.3148074576480341,0.5364037202524249,0.6270610142235095,0.48956902102229505
787,44.25,44.06,2.28,0.4678785848030694,0.33962440645778413,0.3198528711136824,0.5369790135929604,0.633610363245532,0.48929243676221806
788,44.334,44.12,2.25,0.4747538681773977,0.3387032636984169,0.3248938495863973,0.5375075319698611,0.6400940476958649,0.4889447562882544
789,44.354,44.17,2.41,0.4816232046493442,0.3377607737989766,0.32992877904061607,0.5379886778281597,0.6465102886425932,0.4885259140544074
790,44.457,44.23,2.49,0.48848507686532894,0.33679689321575335,0.3349560518563358,0.5384218693030524,0.6528573560120943,0.4880358836190038
791,44.477,44.28,2.43,0.4953379827528063,0.3358115931190303,0.3399740680743802,0.5388065410002013,0.6591335695529545,0.48747467802506167
792,44.518,44.34,2.57,0.5021804361453911,0.33480485972661594,0.3449812366447846,0.5391421447662523,0.6653372997557742,0.48684235014010524
793,44.58,44.39,2.7,0.5090109673892191,0.33377669461781656,0.3499759766664958,0.5394281504481644,0.6714669687277559,0.48613899295414076
794,44.62,44.45,2.65,0.5158281239301179,0.33272711502668934,0.3549567186166524,0.5396640466401809,0.677521051021041,0.4853647398347441
795,44.68,44.5,2.68,0.5226304708812395,0.33165615411350763,0.35992190556782244,0.5398493414174548,0.6834980744138393,0.4845197647384399
796,44.742,44.56,2.85,0.5294165915708997,0.33056386121345854,0.3648699943917188,0.5399835630554704,0.6893966206434889,0.48360428237769576
797,44.826,44.61,2.7,0.5361850880704395,0.32945030206166,0.36979945694807653,0.5400662607343404,0.6952153260906738,0.4826185483429237
798,44.847,44.67,2.67,0.5429345817019711,0.32831555899363846,0.3747087812575276,0.5400970052268531,0.700952882414077,0.4815628591789303
799,44.908,44.72,2.79,0.5496637135258502,0.3271597311204944,0.3795964726573627,0.5400753895689185,0.7066080371347645,0.4804375524153642
800,44.97,44.78,2.85,0.5563711448076559,0.32598293447806476,0.384461054939058,0.5400010297109078,0.712179594169551,0.47924300655091867
801,45.01,44.83,2.78,0.5630555574643706,0.3247853021494627,0.3893010714663423,0.5398735651484201,0.7176664143125192,0.4779796409913873
802,45.071,44.89,2.93,0.569715654489351,0.32356698436043374,0.39411508627241143,0.539692659531311,0.7230674156637695,0.4766479159419859
803,45.131,44.94,3.07,0.5763501603556135,0.32232814854702546,0.3989016851347602,0.539458001250224,0.7283815740044548,0.47524833225456303
804,45.173,45.0,3.0,0.58295782139693,0.3210689793951368,0.40365947662606233,0.5391693040001857,0.7336079231171678,0.47378143123045025
805,45.234,45.05,3.06,0.5895374061662506,0.3197896788516268,0.40838709313956184,0.5388263073210806,0.7387455550508071,0.47224779437982456
806,45.295,45.11,3.23,0.596087705771011,0.318490466106806,0.4130831918875047,0.5384287771150709,0.7437936203291455,0.47064804313855796
807,45.358,45.16,3.22,0.6026075341849387,0.31717157754827113,0.41774645587125275,0.5379765061411289,0.7487513281024225,0.46898283854361167
808,45.401,45.22,3.24,0.6090957285360196,0.31583326668615713,0.42237559482184556,0.5374693144867745,0.7536179462413636,0.4672528808681248
809,45.463,45.27,3.41,0.6155511493702905,0.31447580404997005,0.42696934610986353,0.5369070500168892,0.7583928013731382,0.46545890921736144
810,45.545,45.33,3.47,0.6219726808911308,0.31309947705719443,0.43152647562350754,0.5362895887991738,0.7630752788588748,0.4636017010866064
811,45.606,45.38,3.42,0.628359231173744,0.3117045898538517,0.43604577861384836,0.5356168355055195,0.7676648227124819,0.46168207188196425
812,45.627,45.44,3.54,0.6347097323545611,0.3102914631271705,0.44052608050619374,0.5348887237884912,0.7721609354606678,0.4597008744048724
813,45.669,45.49,3.6,0.6410231407953564,0.3088604338905286,0.44496623767654425,0.5341052166321978,0.7765631779441925,0.45765899830099643
814,45.73,45.55,3.49,0.6472984372219438,0.3074118552408428,0.44936513819218044,0.5332663066769741,0.7808711690605191,0.45555736947409664
815,45.792,45.6,3.56,0.6535346268373692,0.30594609608864465,0.4537217025155122,0.5323720165174642,0.7850845854481268,0.4533969494654608
816,45.832,45.66,3.7,0.6597307394095381,0.3044635408611827,0.45803488417039423,0.5314223989739163,0.789203161112818,0.45117873479955317
817,45.914,45.71,3.66,0.6658858293332229,0.30296458917901076,0.46230367037018744,0.5304175373365978,0.793226686996393,0.44890375629662654
818,45.956,45.77,3.67,0.671998975666376,0.3014496555066549,0.46652708260689685,0.5293575455832811,0.7971550104880893,0.4465730783531705
819,45.997,45.82,3.87,0.6780692821406794,0.29991916877807856,0.4707041772007332,0.528242568569739,0.8009880348792489,0.4441877981911585
820,46.06,45.88,3.98,0.6840958771463135,0.2983735719977437,0.4748340458094745,0.5270727821930749,0.8047257187617535,0.4417490450771048
821,46.122,45.93,3.92,0.6900779136910127,0.2968133218180843,0.47891581589706766,0.5258483935274969,0.8083680753708893,0.4392579795119478
822,46.163,45.99,4.06,0.6960145693335698,0.2952388880942005,0.48294865116099234,0.5245696409319449,0.8119151718734707,0.43671579239269354
823,46.287,46.04,4.12,0.701905046092061,0.2936507534165525,0.4869317519180384,0.5232367941288308,0.8153671286022784,0.4341237041465511
824,46.307,46.1,4.02,0.7077485703272006,0.29204941262238376,0.49086435544834817,0.5218501542530235,0.8187241182380925,0.43148296383810847
825,46.348,46.15,4.08,0.7135443926013723,0.29043537228659605,0.4947457362977781,0.520410053870186,0.821986364940798,0.42879484825003084
826,46.41,46.21,4.14,0.7192917875140024,0.2888091501928461,0.49857520653880677,0.5189168569636858,0.8251541434311851,0.42606066093781964
827,46.451,46.26,4.06,0.7249900535140348,0.2871712747857365,0.5023521159903386,0.517370958889505,0.8282277780251651,0.42328173125930796
828,46.513,46.32,4.02,0.7306385126902841,0.28552228460512447,0.5060758523967618,0.5157727862989,0.8312076416221663,0.4204594133797472
829,46.575,46.37,4.19,0.736236510540422,0.2838627277037525,0.5097458415665018,0.5141227970289175,0.8340941546495111,0.41759508525348543
830,46.657,46.43,4.18,0.7417834157192974,0.2821931610495276,0.5133615474701835,0.5124214799610332,0.8368877839645703,0.4146901475832789
831,46.678,46.48,4.12,0.7472786197672581,0.2805141499138054,0.5169224722984187,0.5106693548480481,0.839589041716505,0.4117460227582288
832,46.719,46.54,4.23,0.7527215368191278,0.27882626724697535,0.5204281564792049,0.5088669721090859,0.8421984841694363,0.408764153771216
833,46.78,46.59,4.29,0.7581116032945463,0.2771300930425195,0.523878178655008,0.5070149125921869,0.844716710488957,0.40574600311658326
834,46.821,46.65,4.17,0.7634482775704777,0.2754262136906116,0.5272721556197999,0.5051137873036942,0.8471443614939783,0.4026930516688327
835,46.883,46.7,4.28,0.7687310396368096,0.27371522132231163,0.5306097422165253,0.503164237103589,0.849482118375989,0.3996067975432577
836,46.946,46.76,4.37,0.7739593907360547,0.27199771314551696,0.5338906311956293,0.5011669323661867,0.8517307013878809,0.39648875493965435
837,47.029,46.81,4.31,0.7791328529882655,0.2702742907739992,0.5371145530354143,0.49912257260600024,0.8538908685045715,0.3933404529704871
838,47.05,46.87,4.28,0.7842509690023182,0.2685455595510427,0.5402812757250683,0.49703188606906934,0.8559634140577278,0.3901634344750832
839,47.092,46.92,4.37,0.7893133014747983,0.26681212786937547,0.5433906045112435,0.4948956292905459,0.8579491673469738,0.38695925482152277
840,47.154,46.98,4.29,0.7943194327777465,0.2650746064891956,0.5464423816091417,0.49271458661963746,0.859848991230048,0.38372948069786267
841,47.216,47.03,4.18,0.7992689645365509,0.2633336078561323,0.5494364858791552,0.4904895697130531,0.8616637806944102,0.38047568889425465
842,47.298,47.09,4.23,0.8041615171992342,0.26158974542092894,0.5523728324701984,0.4882214169979994,0.8633944614128016,0.37719946507740987
843,47.319,47.14,4.28,0.8089967295983637,0.25984363296248353,0.5552513724309298,0.4859109931056318,0.8650419882852226,0.373902402558777
844,47.422,47.2,4.18,0.8137742585067651,0.25809588391566907,0.5580720922900941,0.4835591882757733,0.8666073439697045,0.3705861010577715
845,47.443,47.25,4.26,0.818493778188156,0.2563471107051766,0.5608350136071798,0.481166917733851,0.8680915374041599,0.3672521654614208
846,47.484,47.31,4.32,0.8231549799437335,0.2545979240865196,0.5635401924944968,0.4787351210412882,0.8694956023215357,0.3639022045818052
847,47.546,47.36,4.25,0.8277575716557036,0.2528489324953018,0.5661877191117406,0.4762647614209085,0.8708205957604672,0.3605378299126945
848,47.587,47.42,4.24,0.8323012773287161,0.25110074140586897,0.5687777171340926,0.4737568250591745,0.872067596573633,0.3571606543867973
849,47.648,47.47,4.35,0.8367858366301764,0.24935395270049018,0.5713103431949079,0.4712123203873068,0.8732377039360351,0.35377229113500896
850,47.75,47.53,4.27,0.8412110044304523,0.24760916405019975,0.5737857863040728,0.46863227734337054,0.8743320358554425,0.3503743522489407
851,47.771,47.58,4.19,0.84557655034405,0.2458669683083439,0.5762042672431642,0.46601774661722184,0.8753517276872457,0.34696844754785716
852,47.812,47.64,4.29,0.8498822582728851,0.2441279529177514,0.578566037938573,0.4633697988798682,0.8762979306559536,0.3435561833509821
853,47.873,47.69,4.29,0.8541279259528134,0.24239269933229185,0.5808713808137779,0.4606895239983991,0.8771718103855582,0.3401391612559661
854,47.934,47.75,4.16,0.8583133645045863,0.24066178245345193,0.5831206081219689,0.4579780302373154,0.8779745454409325,0.336718976924239
855,47.975,47.8,4.2,0.8624383979903283,0.2389357700825038,0.5853140612601377,0.45523644344700404,0.8787073258823807,0.3332972188739613
856,48.036,47.86,4.24,0.866502862976537,0.23721522238883372,0.5874521100656537,0.4524659062402245,0.8793713518354005,0.32987546728130485
857,48.14,47.91,4.16,0.8705066081045059,0.23550069139500737,0.5895351520962526,0.4496675771576418,0.8799678320776468,0.3264552927908089
858,48.161,47.97,4.14,0.8744494936689893,0.2337927204791322,0.591563611894301,0.4468426298235943,0.8804979826450022,0.3230382553355671
859,48.246,48.02,4.26,0.8783313912058632,0.23209184389503196,0.59353794023616,0.4439922520933791,0.8809630254585732,0.31962590296795806
860,48.267,48.08,4.18,0.8821521830895132,0.23039858631064827,0.5954586133675022,0.4411176451932458,0.881364186974362,0.3162197707015186
861,48.33,48.13,4.11,0.8859117621406729,0.22871346236495038,0.5973261322254526,0.4382200228540608,0.881702696857297,0.3128213793644232
862,48.371,48.19,4.19,0.8896100312454351,0.22703697624349703,0.5991410216483933,0.43530061043934626,0.8819797866812573,0.30943223446487533
863,48.432,48.24,4.21,0.8932469029861243,0.22536962127266846,0.6009038295742022,0.4323606440681825,0.8821966886566841,0.30605382506857315
864,48.493,48.3,4.04,0.8968222992846815,0.22371187953249977,0.6026151262276233,0.4294013697333242,0.8823546343873033,0.3026876226883776
865,48.555,48.35,4.1,0.900336151059122,0.2220642214880427,0.604275503297384,0.4264240424149436,0.8824548536574134,0.2993350801863859
866,48.597,48.41,4.16,0.9037883978935528,0.22042710563923282,0.6058855731036134,0.4234299251906189,0.8824985732511097,0.29599763068880786
867,48.658,48.46,4.04,0.9071789877222047,0.21880097818929148,0.607445967756131,0.4204202883424197,0.8824870158047111,0.2926766865143372
868,48.7,48.52,4.0,0.9105078765279321,0.2171862727317241,0.6089573383042175,0.41739640846214376,0.8824213986935362,0.28937363811704436
